PRES,HGHT,TEMP,DWPT,RELH,MIXR,DRCT,SPED,THTA,THTE,THTV
1016.2,31,23.4,21.7,90,16.27,75,2.2,295.2,342.0,298.1
1015.7,35,23.7,21.9,90,16.54,84,2.2,295.5,343.2,298.4
1015.1,40,23.8,22.0,89,16.57,86,2.3,295.7,343.5,298.6
1014.3,47,23.9,21.9,89,16.58,86,2.5,295.9,343.7,298.8
1013.6,53,24.0,21.8,88,16.46,85,2.6,296.0,343.5,298.9
1013.1,58,23.9,21.7,87,16.35,85,2.8,296.0,343.2,298.9
1012.4,64,23.9,21.6,87,16.29,84,2.9,296.0,343.0,298.8
1011.7,69,23.8,21.6,87,16.26,84,3.0,296.0,342.9,298.8
1011.1,75,23.7,21.6,88,16.26,83,3.1,296.0,342.9,298.8
1010.4,80,23.7,21.6,88,16.24,83,3.2,296.0,342.9,298.8
1009.8,86,23.6,21.5,88,16.21,82,3.3,295.9,342.8,298.8
1009.3,91,23.6,21.5,88,16.18,82,3.4,295.9,342.6,298.8
1008.7,96,23.5,21.5,88,16.19,81,3.5,296.0,342.7,298.8
1008.1,100,23.5,21.5,88,16.20,81,3.5,296.0,342.7,298.8
1007.6,105,23.4,21.5,89,16.20,81,3.6,295.9,342.7,298.8
1007.0,110,23.4,21.5,89,16.21,80,3.6,296.0,342.8,298.8
1006.5,115,23.4,21.5,89,16.23,80,3.6,296.0,342.8,298.8
1005.9,120,23.3,21.5,90,16.26,80,3.7,296.0,342.9,298.9
1005.3,125,23.3,21.5,90,16.23,79,3.7,296.0,342.9,298.8
1004.7,131,23.2,21.4,90,16.18,79,3.7,296.0,342.7,298.8
1004.0,136,23.2,21.4,90,16.17,79,3.7,296.0,342.7,298.8
1003.4,142,23.1,21.4,90,16.19,79,3.7,296.0,342.7,298.8
1002.7,148,23.1,21.4,91,16.23,78,3.6,296.0,342.9,298.8
1002.0,153,23.0,21.5,91,16.28,78,3.6,296.0,343.0,298.9
1001.4,159,22.9,21.4,91,16.28,78,3.6,296.0,343.0,298.8
1000.8,165,22.9,21.4,91,16.26,78,3.6,296.0,342.9,298.8
1000.2,170,22.8,21.4,92,16.25,78,3.5,296.0,342.9,298.8
1000.0,171,22.8,21.4,92,16.25,77,3.5,296.0,342.9,298.8
999.6,175,22.8,21.4,92,16.26,77,3.5,296.0,342.9,298.9
999.0,180,22.8,21.4,92,16.27,77,3.5,296.0,343.0,298.9
998.4,185,22.7,21.3,92,16.20,77,3.4,296.0,342.8,298.9
997.9,190,22.7,21.2,92,16.13,77,3.4,296.0,342.6,298.8
997.3,195,22.6,21.2,92,16.09,76,3.4,296.0,342.5,298.8
996.7,200,22.6,21.2,92,16.08,76,3.4,296.0,342.4,298.8
996.2,205,22.5,21.2,92,16.07,76,3.3,296.0,342.4,298.8
995.6,210,22.5,21.1,92,16.04,76,3.3,296.0,342.3,298.8
995.1,215,22.5,21.1,92,15.99,75,3.3,296.0,342.2,298.8
994.5,219,22.4,21.0,92,15.98,75,3.3,296.0,342.2,298.9
994.0,224,22.4,21.0,92,15.98,74,3.3,296.0,342.2,298.9
993.4,229,22.3,21.0,92,15.96,74,3.3,296.0,342.1,298.9
992.9,234,22.3,20.9,92,15.91,74,3.2,296.0,342.0,298.9
992.3,239,22.2,20.9,92,15.90,73,3.2,296.0,342.0,298.9
991.8,244,22.2,20.9,92,15.90,73,3.2,296.0,342.0,298.9
991.2,248,22.2,20.9,92,15.87,72,3.2,296.1,341.9,298.9
990.7,253,22.1,20.8,92,15.84,72,3.2,296.0,341.8,298.9
990.2,258,22.1,20.8,92,15.81,72,3.2,296.1,341.8,298.9
989.7,262,22.0,20.8,93,15.80,71,3.2,296.1,341.7,298.9
989.2,267,22.0,20.7,93,15.77,71,3.2,296.1,341.6,298.9
988.6,271,22.0,20.7,93,15.73,70,3.2,296.1,341.5,298.9
988.1,276,21.9,20.7,93,15.72,70,3.2,296.1,341.5,298.9
987.6,280,21.9,20.7,93,15.77,69,3.2,296.1,341.6,298.9
987.1,285,21.8,20.8,94,15.87,69,3.2,296.1,341.9,298.9
986.6,290,21.8,20.9,95,16.00,68,3.2,296.1,342.3,298.9
986.0,294,21.7,21.0,96,16.10,68,3.2,296.0,342.5,298.9
985.5,299,21.6,20.9,96,16.00,67,3.2,296.0,342.2,298.8
984.9,304,21.6,20.7,94,15.75,67,3.2,296.1,341.6,298.8
984.4,309,21.6,20.4,93,15.55,67,3.2,296.1,341.1,298.9
983.8,314,21.6,20.4,93,15.52,66,3.2,296.1,341.0,298.9
983.2,319,21.6,20.4,93,15.52,66,3.2,296.1,341.0,298.9
982.7,324,21.5,20.3,93,15.48,65,3.2,296.1,340.9,298.9
982.1,329,21.5,20.3,93,15.41,65,3.2,296.1,340.7,298.9
981.5,334,21.4,20.2,92,15.32,65,3.2,296.2,340.5,298.9
981.0,339,21.4,20.0,92,15.20,64,3.2,296.2,340.1,298.9
980.4,344,21.4,19.9,91,15.08,64,3.1,296.2,339.8,298.9
979.8,349,21.4,19.8,91,15.02,64,3.1,296.3,339.7,298.9
979.3,354,21.4,19.7,90,14.96,63,3.1,296.3,339.6,298.9
978.7,359,21.3,19.7,90,14.91,63,3.1,296.3,339.4,299.0
978.1,364,21.3,19.6,90,14.88,63,3.0,296.3,339.4,299.0
977.6,369,21.3,19.6,90,14.87,62,3.0,296.3,339.4,299.0
977.0,374,21.2,19.6,90,14.88,62,2.9,296.4,339.4,299.0
976.5,379,21.2,19.6,91,14.85,61,2.9,296.3,339.3,299.0
976.0,383,21.2,19.5,90,14.81,61,2.8,296.3,339.2,299.0
975.5,388,21.1,19.5,91,14.82,61,2.8,296.4,339.2,299.0
975.0,392,21.1,19.6,91,14.85,60,2.7,296.4,339.4,299.0
974.5,397,21.1,19.6,91,14.88,60,2.6,296.4,339.4,299.0
974.0,401,21.0,19.6,91,14.88,59,2.6,296.4,339.4,299.0
973.4,406,21.0,19.6,92,14.88,58,2.5,296.4,339.4,299.0
972.9,411,20.9,19.6,92,14.89,58,2.4,296.4,339.5,299.0
972.4,416,20.9,19.6,92,14.89,57,2.3,296.4,339.5,299.0
971.8,420,20.9,19.6,92,14.89,56,2.3,296.4,339.5,299.1
971.3,425,20.8,19.5,92,14.86,55,2.2,296.4,339.4,299.1
970.8,430,20.8,19.5,92,14.81,54,2.1,296.4,339.3,299.1
970.3,434,20.8,19.4,92,14.80,53,2.0,296.4,339.3,299.1
969.7,439,20.7,19.4,92,14.82,52,2.0,296.5,339.4,299.1
969.2,444,20.7,19.4,93,14.82,51,1.9,296.5,339.4,299.1
968.7,448,20.6,19.4,93,14.81,50,1.9,296.5,339.3,299.1
968.2,453,20.6,19.4,93,14.82,48,1.8,296.5,339.3,299.1
967.6,458,20.5,19.4,93,14.83,47,1.7,296.5,339.4,299.1
967.1,463,20.5,19.4,93,14.82,45,1.7,296.5,339.3,299.1
966.5,468,20.4,19.4,93,14.79,44,1.7,296.5,339.3,299.1
966.0,473,20.4,19.3,94,14.78,43,1.6,296.5,339.2,299.1
965.4,478,20.3,19.3,94,14.78,42,1.6,296.5,339.2,299.1
964.9,483,20.3,19.3,94,14.76,41,1.6,296.5,339.2,299.1
964.3,488,20.3,19.3,94,14.77,40,1.6,296.5,339.2,299.1
963.8,492,20.2,19.3,95,14.79,40,1.6,296.5,339.3,299.1
963.3,497,20.2,19.3,95,14.81,40,1.6,296.5,339.4,299.1
962.7,502,20.2,19.3,95,14.82,40,1.6,296.5,339.4,299.1
962.2,507,20.1,19.3,95,14.81,40,1.6,296.5,339.4,299.1
961.7,511,20.1,19.3,95,14.79,41,1.6,296.5,339.3,299.1
961.1,516,20.0,19.2,95,14.77,41,1.6,296.5,339.2,299.1
960.6,521,19.9,19.2,96,14.77,42,1.6,296.5,339.2,299.1
960.1,526,19.9,19.2,96,14.76,43,1.7,296.5,339.2,299.1
959.5,531,19.9,19.2,96,14.74,44,1.7,296.5,339.1,299.1
959.0,536,19.8,19.2,96,14.73,45,1.7,296.5,339.1,299.1
958.4,541,19.8,19.2,96,14.75,46,1.8,296.5,339.2,299.1
957.9,546,19.7,19.2,97,14.77,47,1.8,296.5,339.3,299.1
957.3,551,19.7,19.2,97,14.78,48,1.8,296.5,339.3,299.1
956.7,556,19.6,19.2,97,14.75,49,1.9,296.5,339.2,299.1
956.2,561,19.6,19.1,97,14.69,50,1.9,296.5,339.0,299.1
955.6,566,19.5,19.0,97,14.65,51,1.9,296.5,338.9,299.1
955.0,572,19.5,19.0,97,14.65,51,1.9,296.5,338.9,299.1
954.5,577,19.5,19.0,97,14.65,52,2.0,296.5,338.9,299.1
953.9,581,19.4,18.9,97,14.58,52,2.0,296.5,338.8,299.1
953.4,586,19.4,18.8,96,14.45,52,2.0,296.6,338.4,299.1
952.9,591,19.4,18.6,95,14.32,52,1.9,296.6,338.1,299.2
952.3,596,19.4,18.5,95,14.25,52,1.9,296.7,338.0,299.2
951.8,601,19.4,18.5,95,14.26,52,1.9,296.7,338.1,299.3
951.3,606,19.4,18.6,95,14.29,52,1.8,296.8,338.2,299.3
950.7,611,19.4,18.6,95,14.33,52,1.8,296.8,338.3,299.3
950.1,616,19.3,18.6,96,14.34,52,1.7,296.8,338.3,299.3
949.5,621,19.3,18.6,96,14.37,52,1.7,296.8,338.5,299.3
948.9,627,19.2,18.6,96,14.39,52,1.6,296.8,338.5,299.4
948.4,632,19.2,18.6,97,14.40,52,1.5,296.8,338.5,299.4
947.8,637,19.1,18.6,97,14.39,52,1.4,296.8,338.5,299.4
947.2,643,19.1,18.6,97,14.36,53,1.4,296.8,338.5,299.4
946.6,648,19.1,18.5,97,14.34,54,1.3,296.8,338.4,299.4
946.1,653,19.0,18.5,97,14.33,56,1.2,296.8,338.4,299.4
945.6,657,19.0,18.5,97,14.33,58,1.1,296.8,338.4,299.4
945.1,662,18.9,18.5,98,14.35,62,1.0,296.8,338.4,299.4
944.6,666,18.9,18.6,98,14.40,66,0.9,296.8,338.6,299.4
944.1,671,18.8,18.6,98,14.42,71,0.9,296.8,338.6,299.4
943.6,676,18.8,18.6,99,14.41,78,0.8,296.8,338.6,299.4
943.1,680,18.8,18.5,99,14.40,86,0.8,296.8,338.6,299.4
942.5,685,18.7,18.5,99,14.39,94,0.8,296.9,338.6,299.4
942.0,690,18.7,18.5,99,14.33,102,0.8,296.8,338.4,299.4
941.4,696,18.6,18.3,98,14.22,110,0.9,296.9,338.1,299.4
940.9,700,18.6,18.2,97,14.12,116,0.9,296.9,337.9,299.4
940.3,705,18.6,18.1,97,14.03,121,1.0,297.0,337.7,299.5
939.8,710,18.7,18.0,96,13.97,124,1.1,297.0,337.6,299.5
939.4,714,18.7,18.0,96,13.93,127,1.3,297.1,337.5,299.6
938.9,719,18.7,17.9,95,13.92,129,1.4,297.1,337.6,299.6
938.4,723,18.7,17.9,95,13.90,130,1.5,297.2,337.5,299.6
937.9,727,18.6,17.9,95,13.86,131,1.6,297.2,337.4,299.6
937.4,732,18.6,17.8,95,13.79,132,1.8,297.2,337.3,299.7
936.9,737,18.7,17.6,94,13.65,132,1.9,297.3,337.0,299.7
936.4,741,18.7,17.4,92,13.48,132,2.0,297.4,336.6,299.8
935.9,746,18.8,17.2,90,13.29,132,2.1,297.5,336.2,299.9
935.3,751,18.8,17.0,89,13.13,132,2.3,297.6,335.9,299.9
934.8,756,18.8,16.9,88,13.03,132,2.4,297.7,335.6,300.0
934.3,761,18.8,16.8,88,13.01,131,2.5,297.7,335.6,300.0
933.7,766,18.8,16.9,88,13.04,131,2.6,297.7,335.8,300.1
933.2,771,18.8,16.9,89,13.07,131,2.8,297.8,335.9,300.1
932.7,775,18.8,16.9,89,13.08,131,2.9,297.8,335.9,300.1
932.2,780,18.7,16.9,89,13.08,130,3.0,297.8,335.9,300.1
931.7,785,18.7,16.9,89,13.08,130,3.1,297.8,335.9,300.1
931.2,789,18.6,16.9,89,13.09,130,3.2,297.8,336.0,300.1
930.7,794,18.6,16.9,90,13.10,130,3.3,297.8,336.0,300.1
930.2,799,18.6,16.9,90,13.10,130,3.4,297.8,336.0,300.2
929.7,803,18.5,16.9,90,13.10,130,3.5,297.8,336.0,300.2
929.2,808,18.5,16.8,90,13.08,130,3.6,297.8,336.0,300.2
928.7,813,18.5,16.8,90,13.08,131,3.7,297.8,336.0,300.2
928.2,817,18.4,16.8,90,13.07,131,3.8,297.8,335.9,300.2
927.6,822,18.4,16.8,90,13.06,131,3.9,297.8,335.9,300.2
927.1,827,18.4,16.7,90,13.05,132,4.0,297.9,335.9,300.2
926.6,832,18.3,16.7,90,13.02,132,4.1,297.9,335.9,300.2
926.0,837,18.3,16.6,90,12.98,133,4.2,297.9,335.8,300.2
925.5,842,18.3,16.6,90,12.95,133,4.3,297.9,335.7,300.3
925.0,847,18.3,16.6,90,12.93,133,4.3,298.0,335.7,300.3
924.9,847,18.3,16.6,90,12.93,134,4.4,298.0,335.7,300.3
924.4,853,18.2,16.5,90,12.87,134,4.5,298.0,335.5,300.3
923.8,858,18.2,16.3,89,12.74,135,4.6,298.0,335.2,300.3
923.3,863,18.2,16.1,88,12.60,136,4.6,298.1,334.9,300.3
922.7,868,18.2,16.0,87,12.46,136,4.7,298.1,334.6,300.4
922.1,873,18.2,15.8,86,12.37,137,4.8,298.2,334.4,300.4
921.6,879,18.2,15.8,86,12.35,137,4.9,298.3,334.4,300.5
921.0,884,18.2,15.8,86,12.35,138,5.0,298.3,334.4,300.5
920.4,890,18.2,15.8,86,12.37,139,5.0,298.4,334.5,300.6
919.8,895,18.2,15.8,86,12.39,139,5.1,298.4,334.6,300.6
919.3,900,18.2,15.8,86,12.40,140,5.2,298.4,334.7,300.6
918.8,905,18.1,15.8,86,12.40,140,5.2,298.4,334.7,300.6
918.2,910,18.1,15.8,86,12.41,140,5.3,298.4,334.8,300.7
917.7,915,18.1,15.8,87,12.43,141,5.3,298.5,334.9,300.7
917.2,920,18.1,15.9,87,12.46,141,5.4,298.5,335.0,300.7
916.7,925,18.0,15.9,87,12.48,141,5.4,298.5,335.0,300.7
916.1,930,18.0,15.9,87,12.50,142,5.5,298.5,335.1,300.8
915.6,935,18.0,15.9,88,12.49,142,5.5,298.5,335.1,300.8
915.0,940,17.9,15.8,88,12.46,142,5.5,298.5,335.0,300.8
914.5,945,17.9,15.8,87,12.40,142,5.6,298.5,334.9,300.8
914.0,950,17.8,15.7,87,12.34,143,5.6,298.6,334.7,300.8
913.5,955,17.8,15.6,87,12.26,143,5.6,298.6,334.5,300.8
912.9,959,17.8,15.5,86,12.21,143,5.6,298.6,334.4,300.8
912.4,964,17.8,15.4,86,12.14,143,5.7,298.6,334.2,300.8
911.9,969,17.8,15.3,86,12.09,143,5.7,298.7,334.1,300.9
911.4,974,17.8,15.3,86,12.09,143,5.7,298.7,334.2,300.9
911.0,978,17.7,15.4,86,12.15,143,5.7,298.7,334.3,300.9
910.5,983,17.7,15.4,86,12.19,143,5.7,298.8,334.5,300.9
910.0,987,17.7,15.5,87,12.24,143,5.7,298.8,334.6,301.0
909.5,992,17.6,15.5,87,12.25,143,5.7,298.8,334.7,301.0
909.0,996,17.6,15.5,87,12.25,143,5.7,298.8,334.7,301.0
908.5,1001,17.6,15.4,87,12.24,143,5.7,298.8,334.6,301.0
908.1,1006,17.5,15.4,88,12.24,143,5.6,298.8,334.7,301.0
907.6,1010,17.5,15.4,88,12.24,143,5.6,298.8,334.7,301.0
907.1,1015,17.5,15.4,87,12.18,143,5.6,298.8,334.5,301.0
906.5,1020,17.4,15.2,87,12.07,143,5.6,298.8,334.2,301.0
906.0,1024,17.4,15.1,86,11.96,143,5.5,298.9,334.0,301.0
905.6,1029,17.4,15.0,86,11.90,143,5.5,298.9,333.8,301.0
905.1,1034,17.4,15.0,86,11.90,143,5.5,298.9,333.8,301.1
904.6,1038,17.3,15.0,86,11.91,143,5.4,298.9,333.9,301.1
904.1,1043,17.3,15.0,86,11.92,143,5.4,298.9,333.9,301.1
903.7,1047,17.3,14.9,86,11.89,143,5.3,298.9,333.8,301.1
903.2,1051,17.2,14.8,86,11.83,143,5.3,299.0,333.7,301.1
902.7,1056,17.2,14.7,85,11.73,142,5.2,299.0,333.4,301.1
902.3,1060,17.2,14.5,84,11.60,142,5.2,299.0,333.1,301.1
901.8,1064,17.2,14.4,83,11.49,142,5.1,299.1,332.8,301.1
901.4,1068,17.2,14.2,83,11.38,142,5.1,299.1,332.5,301.1
901.0,1072,17.2,14.1,82,11.31,142,5.0,299.1,332.4,301.2
900.6,1076,17.2,14.0,82,11.25,141,4.9,299.2,332.2,301.2
900.3,1079,17.2,14.0,81,11.21,141,4.9,299.2,332.1,301.2
899.9,1083,17.2,14.0,81,11.21,141,4.8,299.2,332.2,301.2
899.5,1086,17.2,14.0,82,11.22,140,4.8,299.2,332.2,301.2
899.2,1089,17.1,14.0,82,11.23,140,4.7,299.2,332.2,301.2
898.8,1093,17.1,14.0,82,11.22,139,4.7,299.2,332.2,301.3
898.5,1096,17.1,13.9,82,11.21,139,4.6,299.2,332.2,301.3
898.1,1100,17.1,13.9,82,11.20,138,4.6,299.3,332.2,301.3
897.7,1104,17.0,13.9,82,11.22,138,4.6,299.3,332.3,301.3
897.2,1108,17.0,14.0,82,11.24,137,4.5,299.3,332.4,301.3
896.8,1112,17.0,13.9,82,11.22,137,4.5,299.3,332.3,301.3
896.3,1117,17.0,13.8,82,11.17,136,4.5,299.3,332.2,301.3
895.8,1122,16.9,13.8,82,11.12,136,4.5,299.3,332.1,301.3
895.3,1126,16.9,13.8,82,11.12,135,4.5,299.4,332.1,301.4
894.9,1131,16.9,13.8,82,11.17,134,4.5,299.3,332.2,301.4
894.4,1135,16.8,13.9,83,11.24,134,4.5,299.3,332.4,301.4
893.9,1140,16.8,14.0,84,11.30,133,4.5,299.4,332.6,301.4
893.5,1144,16.7,14.1,84,11.36,133,4.5,299.3,332.8,301.4
893.0,1149,16.7,14.1,84,11.37,132,4.5,299.4,332.8,301.4
892.5,1154,16.7,14.0,84,11.36,132,4.6,299.4,332.8,301.4
891.9,1159,16.6,14.0,84,11.34,131,4.6,299.4,332.8,301.5
891.4,1164,16.6,14.0,84,11.33,131,4.6,299.4,332.8,301.5
890.8,1169,16.6,14.0,85,11.33,131,4.7,299.5,332.8,301.5
890.3,1174,16.5,13.9,85,11.31,130,4.7,299.5,332.8,301.5
889.7,1180,16.5,13.8,84,11.22,130,4.8,299.5,332.5,301.5
889.2,1185,16.5,13.6,83,11.10,130,4.8,299.6,332.3,301.6
888.7,1190,16.5,13.5,82,11.00,130,4.8,299.6,332.0,301.6
888.1,1195,16.5,13.4,82,10.93,130,4.9,299.6,331.9,301.6
887.6,1200,16.5,13.3,81,10.87,129,4.9,299.7,331.7,301.6
887.1,1205,16.5,13.2,81,10.84,129,5.0,299.7,331.7,301.6
886.6,1210,16.4,13.2,81,10.84,129,5.0,299.7,331.7,301.7
886.1,1215,16.4,13.2,82,10.86,129,5.1,299.7,331.8,301.7
885.6,1219,16.4,13.3,82,10.89,129,5.1,299.7,331.9,301.7
885.1,1224,16.4,13.3,82,10.91,129,5.2,299.8,332.0,301.7
884.7,1229,16.4,13.3,82,10.89,129,5.2,299.8,331.9,301.8
884.2,1233,16.3,13.2,82,10.84,129,5.2,299.9,331.9,301.8
883.7,1238,16.3,13.1,81,10.78,129,5.3,299.9,331.7,301.8
883.2,1242,16.3,13.0,81,10.70,129,5.3,299.9,331.5,301.8
882.8,1247,16.3,12.9,80,10.63,129,5.3,299.9,331.3,301.9
882.3,1251,16.3,12.8,80,10.58,129,5.4,300.0,331.2,301.9
881.9,1256,16.3,12.7,80,10.55,129,5.4,300.0,331.2,301.9
881.4,1260,16.2,12.7,80,10.54,129,5.4,300.0,331.2,301.9
881.0,1264,16.2,12.7,80,10.51,129,5.4,300.0,331.1,301.9
880.6,1268,16.2,12.7,80,10.51,129,5.4,300.0,331.1,301.9
880.2,1272,16.2,12.6,80,10.50,130,5.4,300.0,331.1,301.9
879.8,1275,16.1,12.6,80,10.49,130,5.4,300.1,331.1,301.9
879.4,1279,16.1,12.6,80,10.46,130,5.4,300.1,331.0,301.9
879.0,1283,16.1,12.5,80,10.45,130,5.4,300.1,331.0,302.0
878.6,1287,16.1,12.5,80,10.45,130,5.4,300.1,331.0,302.0
878.2,1291,16.0,12.6,80,10.48,131,5.4,300.1,331.1,302.0
877.8,1295,16.0,12.6,80,10.50,131,5.4,300.1,331.2,302.0
877.4,1299,15.9,12.6,81,10.51,131,5.4,300.1,331.2,302.0
876.9,1303,15.9,12.6,81,10.49,132,5.4,300.1,331.1,302.0
876.5,1308,15.9,12.5,81,10.46,132,5.4,300.1,331.0,302.0
876.1,1312,15.8,12.5,80,10.42,133,5.4,300.1,330.9,302.0
875.6,1316,15.8,12.3,80,10.33,133,5.3,300.1,330.7,302.0
875.2,1320,15.8,12.1,79,10.18,134,5.3,300.2,330.3,302.0
874.7,1325,15.8,11.8,77,10.02,134,5.3,300.2,329.9,302.0
874.2,1330,15.8,11.7,77,9.94,134,5.3,300.3,329.7,302.1
873.7,1334,15.8,11.8,77,10.00,135,5.2,300.3,329.9,302.1
873.2,1339,15.7,12.0,79,10.15,135,5.2,300.3,330.3,302.1
872.8,1344,15.7,12.1,79,10.24,136,5.2,300.3,330.6,302.1
872.3,1349,15.6,12.2,80,10.28,136,5.1,300.3,330.7,302.1
871.8,1353,15.6,12.2,80,10.30,136,5.1,300.3,330.8,302.1
871.4,1357,15.6,12.2,81,10.33,137,5.0,300.3,330.9,302.2
871.0,1362,15.5,12.3,81,10.37,137,5.0,300.3,331.0,302.2
870.6,1365,15.5,12.3,81,10.41,137,4.9,300.3,331.1,302.2
870.2,1369,15.5,12.4,82,10.46,138,4.9,300.3,331.3,302.2
869.8,1373,15.5,12.6,83,10.57,138,4.8,300.4,331.7,302.3
869.4,1377,15.5,12.9,84,10.79,138,4.8,300.4,332.4,302.4
869.0,1381,15.5,13.1,86,10.99,138,4.7,300.5,333.0,302.5
868.6,1385,15.5,13.2,86,11.05,138,4.6,300.5,333.2,302.5
868.1,1389,15.5,13.1,86,10.96,138,4.6,300.5,333.0,302.5
867.7,1394,15.5,12.8,84,10.79,138,4.5,300.6,332.5,302.5
867.2,1399,15.5,12.6,83,10.61,138,4.5,300.6,332.1,302.6
866.7,1404,15.5,12.3,82,10.46,138,4.4,300.7,331.7,302.6
866.1,1409,15.5,12.1,80,10.30,138,4.4,300.7,331.3,302.6
865.6,1414,15.5,11.9,79,10.16,138,4.3,300.8,331.0,302.6
865.1,1419,15.5,11.8,79,10.09,138,4.3,300.8,330.8,302.7
864.6,1424,15.5,11.8,79,10.09,138,4.2,300.8,330.8,302.7
864.1,1429,15.4,11.8,79,10.13,138,4.2,300.9,330.9,302.7
863.6,1433,15.4,11.9,80,10.20,138,4.1,300.9,331.1,302.7
863.2,1438,15.3,12.0,80,10.26,138,4.1,300.9,331.3,302.7
862.8,1442,15.3,12.0,81,10.30,138,4.0,300.9,331.4,302.7
862.3,1446,15.2,12.1,81,10.32,138,4.0,300.9,331.5,302.7
861.9,1451,15.2,12.0,81,10.30,138,4.0,300.8,331.4,302.7
861.4,1455,15.1,12.0,81,10.28,138,3.9,300.8,331.3,302.7
861.0,1460,15.1,12.0,82,10.28,138,3.9,300.8,331.4,302.7
860.5,1464,15.1,12.1,82,10.35,138,3.8,300.9,331.5,302.7
860.0,1469,15.0,12.2,83,10.45,138,3.8,300.9,331.9,302.8
859.5,1474,15.0,12.3,84,10.53,138,3.8,300.9,332.1,302.8
859.0,1479,15.0,12.3,84,10.52,138,3.7,300.9,332.1,302.8
858.5,1484,15.0,12.2,84,10.47,138,3.7,301.0,332.0,302.9
858.0,1489,14.9,12.2,83,10.45,138,3.7,301.0,332.0,302.9
857.5,1494,14.9,12.2,84,10.46,138,3.6,301.0,332.0,302.9
857.0,1499,14.9,12.2,84,10.49,138,3.6,301.0,332.1,302.9
856.5,1504,14.9,12.2,84,10.49,138,3.6,301.0,332.2,302.9
856.0,1509,14.8,12.2,84,10.48,137,3.5,301.0,332.1,302.9
855.5,1514,14.8,12.2,84,10.48,137,3.5,301.0,332.2,302.9
855.0,1519,14.7,12.1,84,10.46,137,3.5,301.1,332.1,303.0
854.5,1523,14.7,12.0,84,10.40,137,3.5,301.1,331.9,302.9
854.0,1528,14.7,12.0,84,10.37,136,3.4,301.1,331.9,303.0
853.6,1533,14.6,12.0,84,10.40,136,3.4,301.1,332.0,303.0
853.1,1537,14.6,12.1,85,10.44,136,3.4,301.1,332.1,303.0
852.6,1542,14.6,12.1,85,10.45,135,3.4,301.2,332.2,303.0
852.1,1547,14.6,12.0,85,10.42,135,3.4,301.2,332.1,303.1
851.7,1552,14.5,12.0,85,10.39,135,3.4,301.2,332.1,303.1
851.2,1557,14.5,12.0,85,10.43,134,3.4,301.2,332.2,303.1
850.7,1562,14.5,12.2,86,10.52,134,3.4,301.2,332.5,303.1
850.2,1566,14.5,12.2,86,10.57,134,3.5,301.3,332.6,303.2
850.0,1568,14.5,12.2,86,10.57,134,3.5,301.3,332.7,303.2
849.7,1571,14.5,12.2,86,10.58,134,3.5,301.3,332.7,303.2
849.3,1576,14.5,12.2,86,10.57,134,3.5,301.3,332.7,303.3
848.8,1580,14.5,12.1,86,10.53,134,3.6,301.4,332.7,303.3
848.3,1585,14.5,12.0,85,10.46,134,3.6,301.5,332.6,303.4
847.8,1590,14.5,11.9,84,10.36,134,3.6,301.6,332.4,303.4
847.3,1595,14.5,11.8,83,10.29,135,3.7,301.6,332.3,303.5
846.8,1600,14.5,11.7,83,10.27,135,3.7,301.7,332.2,303.5
846.3,1605,14.5,11.7,83,10.27,135,3.8,301.7,332.3,303.6
845.8,1610,14.5,11.7,84,10.30,136,3.8,301.7,332.4,303.6
845.3,1615,14.4,11.8,84,10.33,136,3.8,301.7,332.5,303.6
844.9,1620,14.4,11.8,84,10.34,137,3.9,301.7,332.5,303.6
844.4,1624,14.3,11.7,84,10.30,137,3.9,301.7,332.4,303.6
844.0,1628,14.3,11.6,84,10.23,138,3.9,301.7,332.2,303.6
843.6,1633,14.3,11.5,83,10.16,138,3.9,301.8,332.0,303.6
843.2,1637,14.3,11.4,83,10.10,138,3.9,301.8,331.9,303.6
842.8,1641,14.3,11.3,82,10.06,139,3.9,301.8,331.8,303.7
842.3,1645,14.3,11.3,82,10.03,139,3.9,301.9,331.8,303.7
841.9,1649,14.3,11.2,82,10.00,139,3.8,301.9,331.7,303.7
841.5,1654,14.3,11.1,81,9.94,139,3.8,302.0,331.6,303.8
841.0,1659,14.3,11.0,81,9.85,139,3.8,302.0,331.4,303.8
840.5,1664,14.3,10.8,80,9.73,139,3.7,302.0,331.1,303.8
840.0,1669,14.3,10.7,79,9.64,138,3.6,302.1,330.9,303.9
839.5,1674,14.3,10.6,78,9.59,138,3.6,302.2,330.8,303.9
839.0,1678,14.3,10.5,78,9.56,138,3.5,302.2,330.8,304.0
838.6,1683,14.3,10.5,78,9.52,137,3.4,302.3,330.7,304.0
838.1,1688,14.3,10.3,77,9.40,136,3.4,302.3,330.5,304.0
837.6,1693,14.3,10.0,75,9.22,135,3.3,302.4,330.0,304.1
837.1,1698,14.3,9.7,74,9.06,135,3.2,302.5,329.6,304.1
836.6,1703,14.4,9.5,73,8.97,134,3.2,302.5,329.4,304.2
836.0,1709,14.3,9.4,72,8.88,133,3.1,302.6,329.2,304.2
835.5,1714,14.3,9.2,71,8.78,132,3.1,302.6,329.0,304.2
835.0,1720,14.3,9.0,70,8.68,131,3.0,302.7,328.8,304.3
834.4,1725,14.3,8.9,70,8.62,130,3.0,302.7,328.6,304.3
833.9,1730,14.3,8.9,70,8.59,130,2.9,302.8,328.6,304.3
833.4,1736,14.3,8.9,70,8.63,129,2.9,302.8,328.8,304.4
