PRES,HGHT,TEMP,DWPT,RELH,MIXR,DRCT,SPED,THTA,THTE,THTV
1016.5,31,24.7,20.2,76,14.82,51,5.0,296.5,339.4,299.1
1015.8,36,24.9,20.3,76,14.93,56,4.1,296.7,339.9,299.3
1015.2,42,24.9,20.3,75,14.92,58,4.0,296.8,340.1,299.4
1014.6,47,24.9,20.2,75,14.88,58,4.2,296.8,340.0,299.5
1014.1,52,24.9,20.1,75,14.79,58,4.5,296.9,339.8,299.5
1013.5,57,24.9,20.1,75,14.74,59,4.8,296.9,339.7,299.5
1013.0,61,24.8,20.1,75,14.73,59,5.1,296.9,339.6,299.5
1012.4,66,24.8,20.1,75,14.74,59,5.4,296.9,339.7,299.5
1011.8,71,24.8,20.0,75,14.69,59,5.7,296.9,339.5,299.5
1011.2,76,24.7,19.9,74,14.57,59,5.9,296.9,339.2,299.5
1010.7,81,24.7,19.8,74,14.49,59,6.2,296.9,338.9,299.5
1010.1,86,24.6,19.8,74,14.50,59,6.4,296.9,339.0,299.5
1009.5,91,24.6,19.8,75,14.57,59,6.6,296.9,339.2,299.5
1008.9,97,24.5,19.9,75,14.62,60,6.8,296.9,339.3,299.5
1008.3,102,24.5,19.9,75,14.64,60,7.0,296.9,339.4,299.5
1007.6,108,24.4,19.9,76,14.64,60,7.2,296.9,339.4,299.5
1007.0,113,24.4,19.8,76,14.62,60,7.3,296.9,339.4,299.5
1006.4,119,24.3,19.8,76,14.58,60,7.4,296.9,339.2,299.5
1005.7,124,24.2,19.8,76,14.56,60,7.6,296.9,339.2,299.5
1005.1,129,24.2,19.8,76,14.57,60,7.7,296.9,339.2,299.5
1004.5,135,24.2,19.8,77,14.61,60,7.7,296.9,339.3,299.5
1004.0,140,24.1,19.8,77,14.62,60,7.8,296.9,339.4,299.5
1003.4,144,24.1,19.8,77,14.62,60,7.9,296.9,339.4,299.5
1002.9,149,24.0,19.8,77,14.62,60,7.9,296.9,339.4,299.5
1002.3,154,24.0,19.8,77,14.62,60,8.0,296.9,339.4,299.5
1001.7,159,23.9,19.8,78,14.63,60,8.0,296.9,339.4,299.5
1001.1,164,23.9,19.8,78,14.64,60,8.1,296.9,339.4,299.5
1000.5,170,23.8,19.7,78,14.63,60,8.1,296.9,339.4,299.5
1000.0,174,23.8,19.7,78,14.63,60,8.1,296.9,339.4,299.5
999.9,175,23.8,19.7,78,14.63,60,8.1,296.9,339.4,299.5
999.3,181,23.7,19.7,78,14.65,60,8.1,296.9,339.4,299.5
998.6,186,23.7,19.7,79,14.64,61,8.2,296.9,339.4,299.5
998.0,192,23.6,19.7,79,14.65,61,8.2,296.9,339.4,299.5
997.3,198,23.5,19.8,79,14.69,61,8.2,296.9,339.5,299.5
996.7,204,23.5,19.8,80,14.70,61,8.2,296.9,339.6,299.5
996.0,209,23.4,19.7,80,14.66,61,8.2,296.9,339.5,299.5
995.3,215,23.4,19.6,80,14.62,62,8.3,296.9,339.3,299.5
994.7,221,23.3,19.6,80,14.61,62,8.3,296.9,339.3,299.5
994.0,227,23.3,19.6,80,14.62,62,8.3,296.9,339.3,299.5
993.3,233,23.2,19.6,80,14.61,62,8.3,296.9,339.3,299.5
992.6,240,23.2,19.6,80,14.62,63,8.3,296.9,339.4,299.5
991.8,246,23.1,19.6,81,14.65,63,8.3,296.9,339.5,299.5
991.1,253,23.0,19.7,81,14.69,63,8.3,296.9,339.6,299.6
990.3,260,23.0,19.6,82,14.67,63,8.3,296.9,339.5,299.5
989.5,266,22.9,19.6,82,14.69,63,8.3,296.9,339.6,299.5
988.8,273,22.8,19.6,82,14.70,64,8.3,296.9,339.6,299.5
988.1,279,22.8,19.6,82,14.71,64,8.3,296.9,339.6,299.5
987.4,285,22.7,19.6,83,14.71,64,8.2,296.9,339.6,299.5
986.8,291,22.7,19.6,83,14.70,64,8.2,296.9,339.6,299.5
986.1,297,22.6,19.6,83,14.71,64,8.2,296.9,339.6,299.6
985.5,302,22.6,19.6,84,14.75,64,8.1,296.9,339.7,299.6
984.8,308,22.5,19.6,84,14.77,64,8.1,296.9,339.8,299.6
984.2,314,22.4,19.6,84,14.76,64,8.0,296.9,339.7,299.6
983.6,319,22.4,19.6,84,14.77,64,7.9,296.9,339.8,299.6
982.9,325,22.3,19.7,85,14.82,63,7.9,296.9,340.0,299.6
982.3,331,22.3,19.7,85,14.84,63,7.8,297.0,340.0,299.6
981.6,337,22.2,19.7,85,14.83,63,7.7,297.0,340.0,299.6
980.9,343,22.2,19.6,85,14.81,63,7.6,297.0,339.9,299.6
980.2,349,22.1,19.6,85,14.76,62,7.6,296.9,339.8,299.6
979.6,355,22.0,19.5,86,14.73,62,7.5,296.9,339.7,299.6
978.9,361,22.0,19.5,86,14.73,62,7.4,296.9,339.7,299.6
978.2,367,21.9,19.5,86,14.71,62,7.4,296.9,339.6,299.5
977.5,373,21.8,19.4,86,14.68,61,7.3,296.9,339.5,299.5
976.9,379,21.8,19.4,87,14.71,61,7.3,296.9,339.6,299.5
976.2,385,21.7,19.5,87,14.74,61,7.3,296.9,339.7,299.5
975.6,390,21.7,19.4,87,14.72,61,7.2,296.9,339.6,299.5
974.9,396,21.6,19.4,87,14.68,61,7.2,296.9,339.5,299.5
974.3,402,21.6,19.3,87,14.66,60,7.2,296.9,339.4,299.5
973.6,408,21.5,19.3,87,14.67,60,7.2,296.9,339.5,299.5
972.9,414,21.5,19.3,88,14.64,60,7.2,296.9,339.4,299.5
972.3,420,21.4,19.2,87,14.57,60,7.2,296.9,339.2,299.5
971.6,426,21.3,19.1,87,14.47,60,7.2,296.9,338.9,299.5
970.9,432,21.3,19.1,87,14.46,60,7.2,296.9,338.8,299.5
970.3,438,21.2,19.1,88,14.50,60,7.3,296.9,339.0,299.5
969.6,443,21.1,19.1,88,14.52,60,7.3,296.9,339.0,299.5
969.0,449,21.1,19.1,88,14.51,60,7.3,296.9,339.0,299.5
968.4,455,21.0,19.1,89,14.50,60,7.4,296.9,338.9,299.5
967.7,461,21.0,19.1,89,14.49,60,7.4,296.9,338.9,299.5
967.1,466,20.9,19.0,89,14.49,60,7.5,296.9,338.9,299.5
966.5,472,20.9,19.0,89,14.50,60,7.5,296.9,339.0,299.5
965.9,477,20.8,19.1,90,14.52,59,7.6,296.9,339.0,299.5
965.2,483,20.8,19.1,90,14.54,59,7.6,296.9,339.1,299.5
964.6,488,20.7,19.0,90,14.52,59,7.7,296.9,339.0,299.5
964.0,494,20.7,19.0,90,14.47,59,7.7,296.9,338.9,299.5
963.4,500,20.6,19.0,90,14.46,58,7.8,296.9,338.8,299.5
962.8,505,20.6,19.0,91,14.52,58,7.8,296.9,339.0,299.5
962.2,511,20.5,19.0,91,14.56,57,7.8,296.9,339.2,299.5
961.5,516,20.5,19.0,92,14.57,57,7.9,296.9,339.2,299.5
960.9,522,20.4,19.0,92,14.56,56,7.9,296.9,339.1,299.5
960.3,528,20.3,19.0,92,14.58,56,8.0,296.9,339.2,299.5
959.7,533,20.3,19.1,93,14.62,55,8.0,296.9,339.3,299.5
959.1,539,20.2,19.1,93,14.65,54,8.0,296.9,339.4,299.5
958.5,544,20.2,19.1,93,14.65,54,8.1,296.9,339.4,299.5
957.9,549,20.1,19.0,93,14.62,53,8.1,296.9,339.3,299.5
957.3,555,20.1,19.0,93,14.59,53,8.1,296.9,339.2,299.5
956.7,560,20.0,19.0,94,14.59,52,8.1,296.9,339.3,299.5
956.1,566,20.0,19.0,94,14.62,52,8.1,296.9,339.3,299.5
955.4,571,19.9,19.0,94,14.63,52,8.1,296.9,339.4,299.5
954.8,577,19.9,19.0,95,14.60,51,8.1,296.9,339.3,299.5
954.2,583,19.8,18.9,95,14.58,51,8.1,296.9,339.2,299.5
953.6,588,19.8,18.9,95,14.59,51,8.1,296.9,339.2,299.5
952.9,594,19.7,18.9,95,14.61,51,8.1,296.9,339.3,299.5
952.3,600,19.7,18.9,95,14.60,51,8.1,296.9,339.3,299.5
951.7,605,19.6,18.9,95,14.56,51,8.0,296.9,339.2,299.5
951.1,611,19.5,18.8,96,14.55,51,8.0,296.9,339.1,299.5
950.5,617,19.5,18.8,96,14.55,51,8.0,296.9,339.1,299.5
949.8,622,19.4,18.8,96,14.54,51,8.0,296.9,339.1,299.5
949.2,628,19.4,18.8,97,14.54,51,7.9,296.9,339.1,299.5
948.6,633,19.3,18.8,97,14.57,52,7.9,296.9,339.2,299.5
948.0,639,19.3,18.8,97,14.60,52,7.9,296.9,339.3,299.5
947.4,645,19.2,18.9,98,14.63,52,7.8,296.9,339.3,299.5
946.7,650,19.2,18.9,98,14.65,53,7.8,296.9,339.4,299.5
946.1,656,19.1,18.9,98,14.65,53,7.8,296.9,339.4,299.5
945.5,661,19.1,18.8,99,14.64,54,7.8,296.9,339.4,299.5
944.9,667,19.0,18.8,99,14.62,54,7.7,296.9,339.3,299.5
944.4,672,19.0,18.8,99,14.58,55,7.7,296.9,339.2,299.5
943.8,677,18.9,18.7,99,14.53,55,7.7,296.9,339.1,299.5
943.2,683,18.9,18.6,98,14.48,56,7.7,297.0,339.0,299.5
942.7,688,18.9,18.6,98,14.45,56,7.7,297.0,338.9,299.5
942.1,693,18.8,18.6,99,14.47,57,7.7,297.0,339.0,299.6
941.5,698,18.8,18.6,99,14.48,57,7.7,297.0,339.0,299.6
941.0,703,18.7,18.6,99,14.48,58,7.7,297.0,339.0,299.6
940.4,708,18.7,18.6,99,14.48,59,7.7,297.0,339.0,299.6
939.8,713,18.7,18.6,99,14.46,59,7.7,297.0,339.0,299.6
939.3,719,18.6,18.5,99,14.40,60,7.7,297.0,338.8,299.6
938.7,724,18.6,18.4,99,14.35,60,7.7,297.1,338.7,299.6
938.2,729,18.5,18.3,99,14.26,61,7.7,297.0,338.4,299.6
937.6,734,18.5,18.2,99,14.21,61,7.8,297.0,338.3,299.5
937.1,738,18.4,18.2,99,14.18,61,7.8,297.0,338.2,299.5
936.6,743,18.4,18.1,98,14.10,62,7.8,297.0,338.0,299.5
936.1,748,18.3,18.0,98,13.99,62,7.8,297.0,337.6,299.5
935.6,752,18.3,17.9,98,13.92,63,7.8,297.0,337.5,299.5
935.2,757,18.3,17.8,97,13.86,63,7.9,297.0,337.3,299.5
934.7,761,18.2,17.7,97,13.77,63,7.9,297.0,337.0,299.5
934.2,765,18.2,17.6,96,13.67,64,7.9,297.1,336.8,299.5
933.7,770,18.2,17.5,96,13.57,64,7.9,297.1,336.5,299.5
933.3,774,18.2,17.4,95,13.52,64,8.0,297.1,336.4,299.5
932.8,778,18.2,17.4,95,13.50,64,8.0,297.2,336.4,299.6
932.3,783,18.2,17.3,95,13.43,64,8.0,297.2,336.2,299.6
931.8,787,18.1,17.2,94,13.38,65,8.1,297.2,336.1,299.6
931.3,792,18.1,17.1,94,13.32,65,8.1,297.2,336.0,299.6
930.8,796,18.1,17.0,94,13.24,65,8.2,297.3,335.8,299.6
930.3,801,18.1,16.9,93,13.14,65,8.3,297.3,335.5,299.6
929.8,806,18.1,16.8,92,13.05,64,8.3,297.3,335.3,299.6
929.2,811,18.1,16.7,92,12.98,64,8.4,297.4,335.2,299.7
928.7,816,18.0,16.7,92,12.96,64,8.5,297.4,335.1,299.7
928.1,821,18.0,16.7,92,12.97,64,8.6,297.4,335.2,299.7
927.6,827,18.0,16.7,92,12.99,64,8.7,297.4,335.3,299.8
927.0,832,18.0,16.7,93,13.03,63,8.8,297.5,335.4,299.8
926.5,836,17.9,16.8,93,13.07,63,8.9,297.5,335.6,299.8
926.0,841,17.9,16.8,93,13.08,63,9.0,297.5,335.6,299.9
925.6,845,17.9,16.7,93,13.05,62,9.1,297.5,335.5,299.9
925.1,849,17.9,16.7,93,13.02,62,9.2,297.5,335.4,299.9
925.0,850,17.8,16.6,93,12.99,62,9.3,297.5,335.4,299.9
924.7,853,17.8,16.6,92,12.94,62,9.3,297.6,335.2,299.9
924.3,857,17.9,16.4,91,12.82,62,9.5,297.6,335.0,299.9
923.9,860,17.9,16.2,90,12.65,61,9.6,297.7,334.6,300.0
923.5,864,18.0,16.0,88,12.48,61,9.7,297.8,334.2,300.0
923.2,867,18.0,15.8,87,12.28,61,9.8,297.9,333.7,300.1
922.8,871,18.0,15.4,85,12.00,61,9.9,297.9,333.0,300.1
922.4,874,18.1,15.1,83,11.76,61,10.0,298.0,332.4,300.1
922.1,877,18.1,14.9,82,11.63,61,10.1,298.1,332.1,300.2
921.7,881,18.1,14.8,81,11.56,60,10.2,298.1,331.9,300.2
921.4,884,18.1,14.7,81,11.52,60,10.3,298.1,331.8,300.2
921.0,887,18.0,14.7,81,11.53,61,10.4,298.1,331.8,300.2
920.6,891,18.0,14.8,81,11.55,61,10.4,298.1,331.9,300.2
920.2,895,18.0,14.8,82,11.55,61,10.5,298.1,331.9,300.2
919.8,899,17.9,14.8,82,11.55,61,10.5,298.1,331.9,300.2
919.4,903,17.9,14.8,82,11.57,61,10.5,298.1,332.0,300.2
918.9,907,17.9,14.8,82,11.57,61,10.5,298.1,332.0,300.2
918.4,912,17.8,14.8,82,11.58,62,10.5,298.2,332.0,300.2
917.9,916,17.8,14.8,82,11.59,62,10.5,298.1,332.1,300.2
917.4,921,17.8,14.7,82,11.54,62,10.5,298.2,331.9,300.2
916.9,926,17.7,14.6,82,11.45,62,10.5,298.2,331.7,300.2
916.4,930,17.7,14.5,81,11.37,63,10.4,298.2,331.5,300.3
915.9,935,17.7,14.4,81,11.36,63,10.4,298.3,331.5,300.3
915.4,940,17.7,14.5,81,11.39,63,10.3,298.3,331.7,300.4
914.9,944,17.7,14.5,82,11.43,63,10.3,298.3,331.8,300.4
914.4,949,17.7,14.6,82,11.47,64,10.2,298.3,331.9,300.4
914.0,953,17.6,14.6,82,11.49,64,10.1,298.4,332.0,300.4
913.5,958,17.6,14.6,82,11.50,64,10.1,298.4,332.1,300.4
912.9,963,17.6,14.6,83,11.51,64,10.0,298.4,332.1,300.5
912.4,968,17.5,14.5,83,11.48,64,9.9,298.4,332.0,300.5
911.9,973,17.5,14.5,83,11.45,64,9.8,298.4,331.9,300.5
911.3,978,17.5,14.5,83,11.44,64,9.7,298.4,331.9,300.5
910.8,983,17.4,14.5,83,11.44,64,9.6,298.4,331.9,300.5
910.2,989,17.4,14.4,83,11.44,64,9.5,298.4,331.9,300.5
909.6,995,17.3,14.4,83,11.42,63,9.4,298.4,331.9,300.5
909.0,1000,17.3,14.3,83,11.36,63,9.3,298.5,331.7,300.5
908.3,1006,17.3,14.1,82,11.24,63,9.3,298.5,331.4,300.5
907.7,1012,17.2,14.0,81,11.13,63,9.2,298.5,331.2,300.5
907.1,1018,17.2,13.9,81,11.09,62,9.1,298.6,331.1,300.6
906.5,1024,17.2,13.9,81,11.08,62,9.0,298.6,331.1,300.6
905.9,1029,17.2,13.9,81,11.10,61,8.9,298.6,331.2,300.6
905.3,1035,17.1,14.0,82,11.14,61,8.8,298.6,331.3,300.6
904.7,1041,17.1,14.1,82,11.23,60,8.8,298.7,331.6,300.7
904.1,1046,17.1,14.1,83,11.28,60,8.7,298.7,331.8,300.7
903.4,1052,17.0,14.2,83,11.31,59,8.6,298.7,331.9,300.7
902.8,1059,17.0,14.2,84,11.36,59,8.6,298.7,332.0,300.7
902.1,1065,16.9,14.3,85,11.41,58,8.5,298.7,332.2,300.7
901.5,1071,16.8,14.3,85,11.46,58,8.5,298.7,332.3,300.7
900.9,1077,16.8,14.4,86,11.50,57,8.4,298.7,332.4,300.7
900.2,1083,16.7,14.5,87,11.58,57,8.4,298.7,332.7,300.8
899.6,1088,16.6,14.6,88,11.73,57,8.4,298.7,333.1,300.8
899.1,1094,16.6,14.8,89,11.88,56,8.3,298.7,333.5,300.8
898.5,1099,16.6,14.9,90,11.96,56,8.3,298.7,333.8,300.9
898.0,1104,16.6,14.8,89,11.88,56,8.3,298.7,333.6,300.9
897.5,1109,16.6,14.6,88,11.73,55,8.2,298.8,333.2,300.9
896.9,1114,16.6,14.4,87,11.60,55,8.2,298.9,332.9,301.0
896.4,1119,16.6,14.3,86,11.53,55,8.2,298.9,332.8,301.0
895.9,1124,16.6,14.3,86,11.51,55,8.2,299.0,332.8,301.1
895.4,1128,16.6,14.3,87,11.55,55,8.1,299.0,333.0,301.1
894.9,1133,16.5,14.4,87,11.60,54,8.1,299.0,333.1,301.1
894.4,1138,16.5,14.4,88,11.61,54,8.1,299.0,333.1,301.1
893.9,1143,16.5,14.3,87,11.57,54,8.1,299.0,333.0,301.1
893.4,1148,16.5,14.2,87,11.49,54,8.0,299.1,332.8,301.1
892.9,1152,16.5,14.1,86,11.39,54,8.0,299.1,332.6,301.2
892.4,1157,16.5,13.9,85,11.28,54,8.0,299.2,332.4,301.2
891.9,1162,16.5,13.8,84,11.21,54,7.9,299.2,332.2,301.2
891.4,1167,16.4,13.8,84,11.19,54,7.9,299.2,332.2,301.3
891.0,1171,16.4,13.8,85,11.21,53,7.9,299.3,332.2,301.3
890.5,1176,16.3,13.9,85,11.25,53,7.8,299.2,332.3,301.3
890.0,1180,16.3,13.9,86,11.27,53,7.8,299.2,332.4,301.2
889.5,1185,16.2,13.9,86,11.28,53,7.7,299.2,332.4,301.2
889.1,1189,16.2,13.9,86,11.29,52,7.7,299.2,332.4,301.3
888.6,1194,16.1,13.8,86,11.27,52,7.7,299.2,332.3,301.2
888.1,1199,16.1,13.8,86,11.20,52,7.6,299.2,332.2,301.2
887.6,1204,16.1,13.6,85,11.12,51,7.6,299.3,332.0,301.3
887.1,1208,16.1,13.6,85,11.11,51,7.6,299.3,332.0,301.3
886.6,1213,16.0,13.6,86,11.14,51,7.5,299.3,332.1,301.3
886.1,1218,16.0,13.7,86,11.17,50,7.5,299.3,332.1,301.3
885.6,1222,15.9,13.7,86,11.16,50,7.5,299.3,332.1,301.3
885.1,1227,15.9,13.6,86,11.15,50,7.5,299.3,332.1,301.3
884.7,1232,15.9,13.6,87,11.17,49,7.5,299.3,332.1,301.3
884.2,1236,15.8,13.7,87,11.18,49,7.5,299.3,332.2,301.3
883.7,1241,15.8,13.6,87,11.17,48,7.5,299.3,332.2,301.3
883.2,1246,15.7,13.6,87,11.15,48,7.5,299.3,332.1,301.3
882.7,1250,15.7,13.5,87,11.10,48,7.5,299.3,332.0,301.3
882.3,1255,15.7,13.4,87,11.03,48,7.5,299.3,331.8,301.3
881.8,1259,15.6,13.3,86,10.94,47,7.6,299.4,331.6,301.3
881.3,1264,15.6,13.1,85,10.85,47,7.6,299.4,331.4,301.4
880.9,1268,15.7,13.1,85,10.81,47,7.6,299.5,331.3,301.4
880.4,1273,15.6,13.1,85,10.83,47,7.6,299.5,331.4,301.4
879.9,1278,15.6,13.1,85,10.83,47,7.7,299.5,331.4,301.4
879.4,1282,15.5,13.1,85,10.82,47,7.7,299.5,331.4,301.4
878.9,1287,15.5,13.1,85,10.81,47,7.7,299.5,331.3,301.4
878.4,1292,15.4,13.0,86,10.81,47,7.7,299.5,331.3,301.4
877.9,1297,15.4,13.0,86,10.81,47,7.7,299.5,331.3,301.4
877.5,1301,15.3,13.0,86,10.81,47,7.8,299.5,331.3,301.4
877.0,1306,15.3,13.1,86,10.83,48,7.8,299.5,331.4,301.4
876.5,1310,15.3,13.1,87,10.86,48,7.8,299.5,331.5,301.4
876.1,1314,15.2,13.1,87,10.87,48,7.8,299.5,331.5,301.4
875.7,1319,15.2,13.1,87,10.87,48,7.8,299.5,331.5,301.4
875.2,1323,15.1,13.1,87,10.87,49,7.8,299.5,331.5,301.4
874.8,1327,15.1,13.0,87,10.85,49,7.8,299.5,331.4,301.4
874.3,1332,15.1,13.0,87,10.81,49,7.8,299.5,331.3,301.4
873.9,1336,15.0,12.9,87,10.79,49,7.7,299.5,331.3,301.4
873.4,1340,15.0,13.0,88,10.81,49,7.7,299.5,331.3,301.4
873.0,1345,14.9,13.0,88,10.82,49,7.7,299.5,331.4,301.4
872.5,1349,14.9,13.0,88,10.83,49,7.7,299.5,331.4,301.4
872.1,1353,14.9,13.0,88,10.83,49,7.7,299.5,331.4,301.4
871.6,1358,14.8,13.0,89,10.83,49,7.6,299.5,331.4,301.4
871.2,1362,14.8,12.9,89,10.81,49,7.6,299.5,331.3,301.4
870.8,1366,14.7,12.9,89,10.80,49,7.6,299.5,331.3,301.4
870.3,1370,14.7,12.9,89,10.78,49,7.6,299.5,331.3,301.4
869.9,1375,14.7,12.8,89,10.77,49,7.5,299.5,331.2,301.4
869.5,1379,14.6,12.8,89,10.76,49,7.5,299.5,331.2,301.4
869.1,1383,14.6,12.8,89,10.75,49,7.5,299.5,331.2,301.4
868.7,1387,14.5,12.8,89,10.76,48,7.5,299.5,331.2,301.4
868.3,1391,14.5,12.8,90,10.76,48,7.5,299.5,331.2,301.4
867.9,1395,14.4,12.8,90,10.75,48,7.4,299.4,331.1,301.4
867.4,1399,14.4,12.8,90,10.75,47,7.4,299.5,331.1,301.4
867.0,1403,14.4,12.8,90,10.75,47,7.4,299.5,331.1,301.4
866.6,1407,14.3,12.8,90,10.77,46,7.4,299.5,331.2,301.4
866.2,1410,14.3,12.8,91,10.78,46,7.4,299.5,331.2,301.4
865.8,1414,14.2,12.8,91,10.77,46,7.4,299.5,331.2,301.4
865.4,1418,14.2,12.7,91,10.75,45,7.3,299.5,331.1,301.4
865.0,1422,14.2,12.7,91,10.73,45,7.3,299.5,331.1,301.4
864.6,1426,14.1,12.7,91,10.76,44,7.3,299.5,331.2,301.4
864.2,1431,14.1,12.8,92,10.80,44,7.3,299.5,331.3,301.4
863.7,1435,14.0,12.8,92,10.82,43,7.3,299.4,331.3,301.4
863.2,1440,14.0,12.8,93,10.82,43,7.3,299.4,331.3,301.4
862.7,1445,13.9,12.8,93,10.81,43,7.3,299.5,331.3,301.4
862.2,1450,13.9,12.7,93,10.80,42,7.3,299.5,331.3,301.4
861.7,1455,13.8,12.7,93,10.77,42,7.3,299.4,331.1,301.4
861.1,1460,13.8,12.6,93,10.73,42,7.3,299.4,331.0,301.4
860.6,1466,13.7,12.6,93,10.71,42,7.3,299.4,331.0,301.4
860.0,1471,13.7,12.6,93,10.69,41,7.3,299.4,330.9,301.4
859.5,1477,13.6,12.5,93,10.65,41,7.3,299.4,330.8,301.4
858.9,1482,13.6,12.4,93,10.63,41,7.3,299.5,330.8,301.4
858.4,1488,13.5,12.4,93,10.60,41,7.3,299.4,330.7,301.4
857.8,1493,13.5,12.3,93,10.57,41,7.4,299.4,330.6,301.3
857.2,1499,13.4,12.3,93,10.55,41,7.4,299.5,330.6,301.4
856.7,1504,13.4,12.4,94,10.60,41,7.4,299.5,330.7,301.4
856.2,1509,13.3,12.4,94,10.66,42,7.5,299.5,330.9,301.4
855.7,1514,13.3,12.5,95,10.71,42,7.5,299.5,331.0,301.4
855.2,1518,13.2,12.5,96,10.74,42,7.6,299.5,331.1,301.4
854.8,1523,13.2,12.6,96,10.76,42,7.6,299.5,331.2,301.4
854.3,1527,13.1,12.6,96,10.78,43,7.7,299.5,331.2,301.4
853.9,1532,13.1,12.6,97,10.77,43,7.7,299.5,331.2,301.4
853.5,1536,13.1,12.5,97,10.76,43,7.8,299.5,331.1,301.4
853.0,1541,13.0,12.5,97,10.74,44,7.8,299.5,331.1,301.4
852.5,1545,13.0,12.5,97,10.73,44,7.9,299.5,331.1,301.4
852.1,1550,12.9,12.5,97,10.73,45,8.0,299.5,331.1,301.4
851.6,1555,12.9,12.5,97,10.75,45,8.0,299.5,331.2,301.4
851.0,1560,12.8,12.5,98,10.78,46,8.1,299.5,331.2,301.4
850.5,1565,12.8,12.5,98,10.79,47,8.1,299.5,331.3,301.4
850.0,1570,12.7,12.5,99,10.80,48,8.2,299.5,331.3,301.4
849.5,1575,12.7,12.5,99,10.79,48,8.2,299.5,331.3,301.4
849.1,1580,12.7,12.4,99,10.74,49,8.2,299.5,331.1,301.4
848.6,1584,12.6,12.4,98,10.71,49,8.3,299.5,331.0,301.4
848.2,1588,12.6,12.4,98,10.70,50,8.3,299.5,331.1,301.4
847.8,1593,12.6,12.4,99,10.74,51,8.4,299.5,331.2,301.5
847.3,1597,12.5,12.5,99,10.78,51,8.4,299.5,331.3,301.5
846.9,1601,12.5,12.5,100,10.79,52,8.4,299.6,331.3,301.5
846.5,1605,12.5,12.4,100,10.77,53,8.4,299.6,331.3,301.5
846.1,1609,12.5,12.4,99,10.75,54,8.5,299.6,331.3,301.5
845.7,1613,12.4,12.3,99,10.72,55,8.5,299.6,331.2,301.5
845.3,1617,12.4,12.3,99,10.73,56,8.5,299.6,331.2,301.6
844.9,1621,12.4,12.3,100,10.73,57,8.5,299.6,331.3,301.5
844.5,1625,12.3,12.3,100,10.72,57,8.6,299.6,331.2,301.5
844.1,1629,12.3,12.3,100,10.71,58,8.6,299.6,331.2,301.6
843.6,1634,12.3,12.2,99,10.65,59,8.6,299.6,331.0,301.6
843.2,1638,12.2,12.1,99,10.56,60,8.6,299.6,330.8,301.5
842.8,1642,12.2,11.9,98,10.43,61,8.6,299.6,330.4,301.5
842.4,1646,12.1,11.6,97,10.24,62,8.6,299.6,329.8,301.4
842.0,1650,12.1,11.1,93,9.88,63,8.7,299.6,328.8,301.4
841.6,1654,12.3,10.3,88,9.36,63,8.7,299.8,327.5,301.5
841.2,1658,12.6,9.4,81,8.83,64,8.7,300.2,326.4,301.8
840.8,1662,13.1,8.7,75,8.45,65,8.7,300.7,326.0,302.3
840.4,1666,13.5,8.4,71,8.26,65,8.7,301.3,326.0,302.8
840.0,1670,13.8,8.1,68,8.09,66,8.7,301.6,325.9,303.1
839.5,1674,14.1,7.6,65,7.85,66,8.7,301.9,325.5,303.4
839.1,1679,14.3,7.0,61,7.53,66,8.7,302.3,324.9,303.6
838.7,1683,14.6,6.4,58,7.20,67,8.7,302.6,324.4,303.9
838.2,1688,14.9,5.8,54,6.92,67,8.7,303.0,323.9,304.2
837.7,1693,15.2,5.3,52,6.69,67,8.7,303.3,323.6,304.5
837.1,1699,15.3,5.0,50,6.53,68,8.6,303.5,323.4,304.7
836.6,1704,15.4,4.7,49,6.41,68,8.6,303.6,323.2,304.8
836.1,1709,15.4,4.5,48,6.31,68,8.6,303.7,323.0,304.9
835.6,1715,15.5,4.2,47,6.18,68,8.5,303.8,322.7,304.9
835.1,1720,15.5,3.8,46,6.04,68,8.5,303.9,322.4,305.0
834.6,1724,15.6,3.6,45,5.94,68,8.4,304.0,322.2,305.1
834.1,1729,15.6,3.4,44,5.88,68,8.4,304.1,322.1,305.2
833.7,1734,15.6,3.3,44,5.83,68,8.3,304.1,322.0,305.2
833.2,1739,15.6,3.1,43,5.73,68,8.3,304.2,321.8,305.3
832.7,1744,15.7,2.6,41,5.56,68,8.2,304.3,321.4,305.3
832.2,1749,15.8,2.0,40,5.33,68,8.2,304.5,320.9,305.5
831.7,1754,16.0,1.4,37,5.11,68,8.1,304.7,320.5,305.7
831.2,1759,16.1,1.0,36,4.95,68,8.1,304.9,320.2,305.8
830.7,1764,16.1,0.8,35,4.87,68,8.0,305.0,320.1,305.9
830.2,1769,16.1,0.6,35,4.83,68,8.0,305.1,320.1,306.0
829.7,1774,16.2,0.5,35,4.80,68,7.9,305.2,320.1,306.0
829.2,1780,16.2,0.5,35,4.79,68,7.9,305.2,320.1,306.1
828.7,1785,16.1,0.5,35,4.80,68,7.9,305.2,320.2,306.1
828.2,1790,16.1,0.5,35,4.80,68,7.8,305.3,320.2,306.1
827.7,1795,16.1,0.5,35,4.79,68,7.8,305.3,320.2,306.2
827.2,1800,16.0,0.4,35,4.77,68,7.7,305.3,320.1,306.2
826.7,1805,16.0,0.3,34,4.75,67,7.7,305.3,320.1,306.2
826.2,1810,16.0,0.2,34,4.70,67,7.7,305.4,320.0,306.3
825.7,1815,16.0,0.0,34,4.64,67,7.6,305.4,319.9,306.3
825.3,1820,16.0,-0.1,33,4.59,66,7.6,305.5,319.8,306.3
824.8,1825,16.0,-0.3,33,4.55,66,7.5,305.5,319.7,306.4
824.3,1830,16.0,-0.4,33,4.50,65,7.5,305.6,319.6,306.4
823.8,1835,16.0,-0.6,32,4.46,65,7.4,305.6,319.5,306.4
823.3,1840,16.0,-0.7,32,4.43,64,7.4,305.6,319.5,306.5
