PRES,HGHT,TEMP,DWPT,RELH,MIXR,DRCT,SPED,THTA,THTE,THTV
1013.9,31,22.8,19.6,82,14.29,80,2.9,294.8,335.9,297.3
1013.4,35,23.1,19.2,79,13.96,88,3.2,295.1,335.4,297.6
1012.8,40,23.3,19.1,78,13.91,90,3.5,295.3,335.4,297.8
1012.0,47,23.3,19.0,77,13.82,90,3.7,295.5,335.4,297.9
1011.2,54,23.4,19.0,76,13.77,90,4.0,295.6,335.4,298.1
1010.6,59,23.4,18.9,76,13.74,90,4.2,295.7,335.4,298.1
1010.1,63,23.4,18.8,75,13.66,89,4.4,295.7,335.2,298.1
1009.5,69,23.3,18.7,75,13.59,89,4.7,295.7,335.0,298.1
1008.8,74,23.3,18.7,75,13.56,89,4.9,295.7,334.9,298.1
1008.2,80,23.2,18.6,75,13.53,88,5.1,295.7,334.8,298.1
1007.6,85,23.2,18.6,75,13.49,88,5.3,295.7,334.7,298.1
1006.9,91,23.1,18.5,75,13.47,87,5.5,295.7,334.6,298.1
1006.2,97,23.1,18.5,76,13.47,87,5.7,295.7,334.6,298.1
1005.5,103,23.0,18.5,76,13.46,87,5.8,295.7,334.6,298.1
1004.8,109,22.9,18.5,76,13.44,86,6.0,295.7,334.5,298.1
1004.1,115,22.9,18.5,77,13.49,86,6.1,295.7,334.7,298.1
1003.4,122,22.8,18.6,77,13.57,85,6.2,295.7,334.9,298.1
1002.7,128,22.8,18.6,77,13.59,85,6.3,295.7,334.9,298.1
1002.0,133,22.7,18.6,78,13.56,85,6.4,295.7,334.8,298.1
1001.4,139,22.7,18.6,78,13.55,84,6.4,295.7,334.8,298.1
1000.8,144,22.6,18.6,78,13.56,84,6.5,295.7,334.9,298.1
1000.2,149,22.6,18.6,78,13.57,83,6.5,295.7,334.9,298.1
1000.0,151,22.6,18.5,78,13.56,83,6.6,295.7,334.9,298.1
999.6,155,22.5,18.5,78,13.55,83,6.6,295.7,334.8,298.1
999.0,160,22.5,18.5,78,13.50,83,6.6,295.7,334.7,298.1
998.3,166,22.4,18.4,78,13.44,82,6.6,295.7,334.5,298.1
997.7,171,22.3,18.4,78,13.44,82,6.6,295.7,334.5,298.1
997.0,177,22.3,18.4,79,13.45,82,6.6,295.7,334.5,298.1
996.3,183,22.2,18.4,79,13.46,81,6.5,295.7,334.5,298.1
995.6,189,22.2,18.3,79,13.44,81,6.5,295.7,334.5,298.1
994.9,196,22.1,18.3,79,13.41,81,6.4,295.7,334.4,298.1
994.2,202,22.1,18.2,79,13.32,81,6.4,295.7,334.2,298.1
993.5,208,22.0,18.0,78,13.21,80,6.3,295.7,333.9,298.0
992.9,214,21.9,17.9,78,13.13,80,6.3,295.7,333.6,298.0
992.2,220,21.9,17.9,78,13.11,80,6.2,295.7,333.6,298.0
991.5,225,21.8,17.9,79,13.15,80,6.1,295.7,333.7,298.0
990.9,231,21.8,17.9,79,13.17,80,6.1,295.7,333.7,298.0
990.2,237,21.7,17.9,79,13.14,80,6.0,295.7,333.7,298.0
989.6,242,21.7,17.9,79,13.15,80,5.9,295.7,333.7,298.1
989.0,248,21.6,17.9,79,13.19,81,5.8,295.7,333.8,298.1
988.3,254,21.6,17.9,80,13.21,81,5.8,295.7,333.9,298.0
987.7,259,21.5,17.9,80,13.17,81,5.7,295.7,333.7,298.0
987.0,265,21.4,17.9,80,13.16,81,5.6,295.7,333.7,298.0
986.3,271,21.4,17.9,80,13.17,81,5.6,295.7,333.7,298.0
985.7,277,21.3,17.9,81,13.19,82,5.5,295.7,333.8,298.0
985.1,282,21.3,17.9,81,13.22,82,5.5,295.7,333.9,298.0
984.5,288,21.2,17.9,81,13.22,82,5.4,295.7,333.9,298.0
983.9,293,21.1,17.9,82,13.22,83,5.4,295.7,333.8,298.0
983.3,298,21.1,17.9,82,13.23,83,5.4,295.7,333.9,298.0
982.7,303,21.1,17.9,82,13.28,84,5.3,295.7,334.1,298.0
982.1,309,21.0,18.0,83,13.34,84,5.3,295.7,334.2,298.0
981.5,314,21.0,18.0,83,13.37,84,5.3,295.7,334.3,298.1
980.8,320,20.9,18.0,84,13.37,85,5.3,295.7,334.3,298.1
980.2,325,20.9,18.0,84,13.35,85,5.3,295.7,334.3,298.1
979.6,331,20.8,17.9,84,13.31,86,5.3,295.7,334.1,298.0
978.9,336,20.7,17.8,84,13.25,86,5.3,295.7,334.0,298.0
978.3,342,20.7,17.8,83,13.19,86,5.4,295.7,333.8,298.0
977.7,347,20.7,17.7,83,13.15,87,5.4,295.7,333.7,298.0
977.1,353,20.6,17.7,83,13.16,87,5.4,295.7,333.8,298.1
976.5,358,20.6,17.8,84,13.21,87,5.4,295.7,333.9,298.1
976.0,363,20.5,17.8,85,13.26,87,5.5,295.7,334.0,298.0
975.4,368,20.4,17.8,85,13.23,88,5.5,295.7,333.9,298.0
974.9,372,20.4,17.7,84,13.15,88,5.5,295.7,333.7,298.0
974.4,377,20.4,17.6,84,13.10,88,5.6,295.7,333.5,298.0
973.8,382,20.3,17.6,84,13.11,88,5.6,295.7,333.6,298.1
973.3,386,20.3,17.6,84,13.11,88,5.6,295.7,333.6,298.0
972.8,391,20.3,17.5,84,13.05,88,5.7,295.7,333.4,298.0
972.3,395,20.2,17.4,84,12.94,88,5.7,295.7,333.1,298.0
971.8,400,20.2,17.3,83,12.86,88,5.7,295.8,333.0,298.1
971.3,405,20.2,17.2,83,12.85,88,5.7,295.8,332.9,298.1
970.7,409,20.2,17.2,83,12.86,88,5.8,295.8,333.0,298.1
970.2,414,20.1,17.2,84,12.86,87,5.8,295.8,333.0,298.1
969.6,419,20.1,17.2,84,12.87,87,5.8,295.8,333.0,298.1
969.0,424,20.0,17.3,84,12.90,87,5.8,295.8,333.1,298.1
968.5,429,20.0,17.3,85,12.93,87,5.8,295.8,333.2,298.1
967.9,435,19.9,17.3,85,12.94,87,5.8,295.8,333.2,298.1
967.3,440,19.9,17.2,85,12.90,87,5.8,295.8,333.1,298.1
966.7,445,19.8,17.2,85,12.87,87,5.8,295.8,333.0,298.1
966.1,450,19.8,17.2,85,12.86,86,5.8,295.8,333.0,298.1
965.5,456,19.7,17.1,85,12.84,86,5.8,295.8,332.9,298.1
965.0,461,19.7,17.1,85,12.78,86,5.8,295.8,332.8,298.1
964.4,466,19.6,17.0,85,12.74,86,5.8,295.8,332.7,298.1
963.8,471,19.6,17.0,85,12.74,86,5.8,295.9,332.7,298.1
963.3,476,19.6,17.0,85,12.77,86,5.8,295.8,332.8,298.1
962.7,481,19.5,17.0,86,12.79,86,5.8,295.9,332.9,298.1
962.2,486,19.5,17.0,86,12.79,87,5.8,295.9,332.9,298.1
961.6,491,19.4,17.0,86,12.78,87,5.8,295.9,332.8,298.1
961.0,496,19.4,17.0,86,12.76,87,5.8,295.9,332.8,298.1
960.5,501,19.3,16.9,86,12.73,87,5.9,295.9,332.7,298.1
959.9,506,19.3,16.9,86,12.71,87,5.9,295.9,332.7,298.1
959.3,512,19.2,16.9,86,12.70,88,5.9,295.9,332.6,298.1
958.7,517,19.2,16.8,86,12.69,88,5.9,295.9,332.6,298.1
958.1,522,19.2,16.8,86,12.69,88,5.9,295.9,332.6,298.2
957.6,527,19.1,16.9,87,12.71,89,5.9,295.9,332.7,298.2
957.0,533,19.1,16.9,87,12.75,89,5.9,295.9,332.8,298.2
956.4,538,19.0,16.9,88,12.77,89,5.9,295.9,332.8,298.2
955.8,543,19.0,16.8,87,12.70,90,6.0,295.9,332.7,298.2
955.2,549,18.9,16.6,86,12.56,90,6.0,295.9,332.3,298.2
954.6,554,19.0,16.5,85,12.43,90,6.0,296.0,332.0,298.2
954.0,560,19.0,16.4,85,12.38,90,6.0,296.1,331.9,298.3
953.4,565,18.9,16.4,85,12.38,91,6.0,296.1,331.9,298.3
952.8,571,18.9,16.4,85,12.39,91,6.1,296.1,332.0,298.3
952.1,576,18.8,16.4,86,12.38,91,6.1,296.1,331.9,298.3
951.5,582,18.8,16.3,85,12.34,92,6.1,296.1,331.8,298.3
950.9,587,18.7,16.2,85,12.27,92,6.2,296.1,331.7,298.3
950.3,593,18.7,16.1,85,12.19,92,6.2,296.1,331.4,298.3
949.7,598,18.7,16.0,84,12.10,92,6.2,296.2,331.2,298.3
949.1,604,18.6,15.9,84,12.04,92,6.3,296.2,331.1,298.3
948.4,610,18.6,15.8,84,12.01,93,6.3,296.2,331.0,298.3
947.8,615,18.5,15.8,84,12.03,93,6.3,296.2,331.1,298.3
947.2,621,18.5,15.9,85,12.06,93,6.4,296.2,331.2,298.3
946.5,627,18.4,15.9,85,12.06,93,6.4,296.2,331.2,298.4
945.9,633,18.4,15.8,85,12.05,93,6.4,296.2,331.1,298.4
945.3,638,18.4,15.8,85,12.04,93,6.5,296.2,331.1,298.4
944.6,644,18.3,15.8,85,12.06,94,6.5,296.2,331.2,298.4
944.0,650,18.3,15.8,86,12.06,94,6.6,296.3,331.2,298.4
943.4,656,18.2,15.8,86,12.06,94,6.6,296.3,331.2,298.4
942.7,661,18.2,15.7,86,12.01,94,6.7,296.3,331.1,298.4
942.1,667,18.1,15.7,86,11.96,94,6.7,296.3,331.0,298.4
941.5,673,18.1,15.6,85,11.92,95,6.7,296.3,330.8,298.4
940.9,678,18.1,15.5,85,11.88,95,6.8,296.3,330.8,298.4
940.3,684,18.0,15.5,85,11.87,95,6.8,296.3,330.8,298.4
939.6,690,18.0,15.5,86,11.88,95,6.9,296.3,330.8,298.5
939.0,696,17.9,15.5,86,11.89,96,6.9,296.3,330.8,298.4
938.3,702,17.8,15.5,86,11.89,96,6.9,296.3,330.8,298.5
937.7,708,17.8,15.5,86,11.87,96,7.0,296.3,330.8,298.4
937.0,713,17.8,15.4,86,11.83,96,7.0,296.4,330.7,298.5
936.4,719,17.7,15.3,86,11.78,97,7.0,296.4,330.6,298.5
935.8,725,17.7,15.3,86,11.73,97,7.0,296.4,330.4,298.5
935.2,730,17.6,15.2,86,11.72,97,7.0,296.4,330.4,298.5
934.7,735,17.6,15.2,86,11.72,98,7.1,296.4,330.4,298.5
934.1,740,17.6,15.3,86,11.76,98,7.1,296.4,330.5,298.5
933.5,746,17.5,15.3,87,11.79,98,7.1,296.4,330.6,298.5
933.0,751,17.5,15.3,87,11.79,98,7.1,296.4,330.6,298.5
932.4,756,17.4,15.3,87,11.78,99,7.1,296.4,330.6,298.5
931.8,762,17.4,15.2,87,11.75,99,7.1,296.4,330.6,298.5
931.2,767,17.3,15.2,87,11.75,99,7.1,296.4,330.6,298.5
930.6,773,17.3,15.2,88,11.75,99,7.1,296.4,330.6,298.5
929.9,779,17.2,15.2,88,11.76,99,7.1,296.4,330.6,298.5
929.3,784,17.1,15.1,88,11.72,99,7.1,296.4,330.5,298.5
928.7,790,17.1,15.1,88,11.68,99,7.1,296.4,330.4,298.5
928.1,795,17.1,15.0,87,11.62,100,7.1,296.5,330.2,298.6
927.6,801,17.1,14.9,87,11.59,100,7.1,296.5,330.2,298.6
927.0,806,17.0,14.9,88,11.59,100,7.1,296.5,330.2,298.6
926.4,811,17.0,14.9,88,11.59,100,7.1,296.5,330.2,298.6
925.9,816,16.9,14.9,88,11.61,100,7.1,296.5,330.2,298.6
925.4,821,16.9,14.9,89,11.62,100,7.1,296.5,330.3,298.6
925.0,824,16.8,14.9,89,11.63,100,7.1,296.5,330.3,298.6
924.8,826,16.8,14.9,89,11.63,100,7.1,296.5,330.3,298.6
924.3,831,16.8,14.9,89,11.64,100,7.1,296.5,330.3,298.6
923.8,836,16.8,14.9,89,11.64,100,7.1,296.6,330.4,298.6
923.2,841,16.7,14.9,89,11.64,100,7.1,296.6,330.4,298.6
922.6,846,16.7,14.9,89,11.63,100,7.1,296.6,330.4,298.6
922.1,851,16.6,14.9,89,11.60,100,7.2,296.6,330.3,298.6
921.5,857,16.6,14.8,89,11.53,100,7.2,296.6,330.1,298.6
920.9,862,16.6,14.6,88,11.44,100,7.2,296.6,329.9,298.7
920.4,867,16.6,14.5,88,11.36,101,7.2,296.6,329.7,298.7
919.8,872,16.5,14.4,87,11.31,101,7.3,296.7,329.6,298.7
919.2,878,16.5,14.4,87,11.29,101,7.3,296.7,329.6,298.7
918.6,883,16.5,14.3,87,11.25,101,7.3,296.8,329.5,298.8
918.0,889,16.5,14.2,87,11.19,101,7.4,296.8,329.3,298.8
917.4,894,16.4,14.2,86,11.14,102,7.4,296.8,329.2,298.8
916.9,900,16.4,14.1,86,11.09,102,7.4,296.8,329.1,298.8
916.3,905,16.4,14.0,86,11.03,102,7.4,296.8,329.0,298.8
915.7,910,16.3,13.9,86,10.98,103,7.5,296.9,328.9,298.8
915.2,916,16.3,13.9,86,10.96,103,7.5,296.9,328.8,298.8
914.6,921,16.3,13.9,86,10.96,103,7.5,296.9,328.8,298.9
914.1,926,16.2,13.9,86,10.96,103,7.5,296.9,328.8,298.9
913.6,930,16.2,13.8,86,10.94,104,7.5,296.9,328.8,298.9
913.1,935,16.2,13.8,85,10.90,104,7.5,297.0,328.7,298.9
912.6,940,16.2,13.7,85,10.83,104,7.5,297.0,328.6,298.9
912.1,944,16.2,13.6,84,10.76,104,7.5,297.0,328.4,299.0
911.6,949,16.2,13.5,84,10.70,105,7.5,297.1,328.3,299.0
911.1,954,16.2,13.4,83,10.65,105,7.5,297.2,328.3,299.1
910.6,958,16.2,13.3,83,10.63,105,7.5,297.2,328.2,299.1
910.1,963,16.2,13.3,83,10.63,105,7.5,297.2,328.2,299.1
909.5,968,16.1,13.3,83,10.64,105,7.5,297.2,328.3,299.1
909.0,973,16.1,13.3,84,10.65,105,7.5,297.2,328.3,299.1
908.4,979,16.1,13.3,84,10.64,105,7.4,297.2,328.3,299.1
907.8,984,16.0,13.2,84,10.59,105,7.4,297.2,328.2,299.1
907.2,990,16.0,13.1,83,10.52,105,7.4,297.3,328.0,299.1
906.6,995,15.9,13.1,83,10.48,105,7.4,297.3,327.9,299.2
906.1,1001,15.9,13.0,83,10.47,105,7.4,297.3,327.9,299.2
905.5,1006,15.8,13.0,83,10.47,105,7.4,297.3,327.9,299.2
904.9,1011,15.8,13.0,83,10.46,104,7.4,297.3,327.9,299.2
904.4,1017,15.8,13.0,84,10.47,104,7.4,297.3,327.9,299.2
903.8,1022,15.7,13.0,84,10.48,104,7.4,297.4,328.0,299.2
903.2,1027,15.7,13.0,84,10.49,104,7.4,297.4,328.0,299.2
902.7,1033,15.6,13.0,84,10.46,104,7.4,297.4,327.9,299.2
902.1,1038,15.6,12.9,84,10.40,103,7.5,297.4,327.7,299.2
901.6,1043,15.6,12.7,83,10.32,103,7.5,297.4,327.6,299.2
901.0,1048,15.6,12.7,83,10.28,103,7.5,297.4,327.5,299.3
900.5,1053,15.6,12.7,83,10.29,103,7.5,297.5,327.6,299.3
899.9,1058,15.5,12.7,84,10.33,103,7.6,297.5,327.7,299.3
899.4,1064,15.5,12.8,84,10.36,102,7.6,297.5,327.8,299.4
898.8,1069,15.4,12.8,84,10.36,102,7.6,297.5,327.8,299.4
898.2,1075,15.4,12.7,84,10.34,102,7.6,297.5,327.8,299.4
897.6,1081,15.4,12.7,84,10.32,102,7.6,297.6,327.8,299.4
897.0,1086,15.3,12.6,84,10.28,102,7.7,297.6,327.6,299.4
896.4,1092,15.3,12.5,84,10.24,102,7.7,297.6,327.5,299.4
895.8,1098,15.2,12.5,84,10.19,102,7.7,297.6,327.4,299.4
895.2,1103,15.2,12.4,84,10.17,102,7.7,297.6,327.4,299.4
894.6,1109,15.1,12.4,84,10.17,102,7.7,297.6,327.4,299.4
894.1,1114,15.1,12.4,84,10.17,102,7.7,297.6,327.4,299.4
893.6,1118,15.1,12.3,84,10.14,102,7.7,297.6,327.3,299.4
893.1,1123,15.0,12.3,84,10.12,102,7.7,297.6,327.3,299.4
892.6,1128,15.0,12.3,84,10.12,102,7.7,297.6,327.3,299.5
892.1,1133,14.9,12.3,84,10.14,103,7.6,297.6,327.3,299.5
891.5,1138,14.9,12.4,85,10.18,103,7.6,297.7,327.5,299.5
891.0,1143,14.9,12.4,85,10.20,103,7.6,297.7,327.5,299.5
890.5,1148,14.8,12.4,85,10.21,103,7.6,297.7,327.5,299.5
889.9,1153,14.8,12.4,86,10.21,103,7.5,297.7,327.5,299.5
889.4,1158,14.7,12.4,86,10.21,103,7.5,297.7,327.5,299.5
888.9,1163,14.7,12.3,86,10.19,104,7.5,297.7,327.5,299.5
888.4,1168,14.7,12.3,86,10.20,104,7.5,297.7,327.6,299.5
888.0,1172,14.6,12.4,86,10.21,104,7.4,297.7,327.6,299.5
887.5,1177,14.6,12.3,86,10.21,104,7.4,297.7,327.6,299.5
887.0,1181,14.6,12.3,86,10.19,104,7.4,297.7,327.6,299.6
886.5,1186,14.6,12.2,86,10.13,105,7.4,297.8,327.5,299.6
886.0,1190,14.6,12.1,85,10.06,105,7.4,297.8,327.3,299.6
885.6,1195,14.5,12.0,85,10.01,105,7.4,297.8,327.2,299.6
885.1,1200,14.5,12.0,85,9.99,105,7.4,297.9,327.1,299.7
884.6,1205,14.5,11.9,85,9.97,105,7.4,297.9,327.1,299.7
884.0,1210,14.4,11.9,85,9.97,105,7.4,297.9,327.1,299.7
883.5,1214,14.4,11.9,85,9.97,105,7.4,297.9,327.1,299.7
883.0,1219,14.3,11.9,85,9.95,105,7.5,297.9,327.1,299.7
882.5,1224,14.3,11.8,85,9.90,105,7.5,297.9,326.9,299.7
882.0,1229,14.3,11.7,84,9.83,105,7.5,297.9,326.7,299.7
881.5,1234,14.2,11.5,84,9.74,105,7.5,297.9,326.5,299.7
881.0,1239,14.2,11.4,83,9.67,105,7.6,298.0,326.3,299.7
880.4,1244,14.2,11.4,83,9.64,105,7.6,298.0,326.3,299.7
879.9,1249,14.2,11.4,83,9.65,105,7.6,298.0,326.3,299.7
879.4,1254,14.1,11.3,83,9.64,105,7.7,298.0,326.3,299.7
878.9,1259,14.1,11.3,83,9.61,104,7.7,298.0,326.3,299.8
878.3,1265,14.1,11.2,83,9.58,104,7.7,298.1,326.2,299.8
877.8,1270,14.0,11.2,83,9.56,104,7.7,298.1,326.2,299.8
877.2,1275,14.0,11.2,83,9.56,103,7.8,298.1,326.2,299.8
876.7,1280,13.9,11.2,84,9.58,103,7.8,298.1,326.2,299.8
876.2,1285,13.9,11.3,84,9.61,103,7.8,298.1,326.3,299.8
875.7,1290,13.9,11.3,84,9.63,102,7.9,298.1,326.4,299.8
875.2,1295,13.8,11.2,84,9.62,102,7.9,298.1,326.4,299.8
874.7,1300,13.8,11.2,84,9.57,101,7.9,298.1,326.3,299.9
874.1,1305,13.8,11.1,83,9.51,101,7.9,298.2,326.2,299.9
873.6,1310,13.8,11.0,83,9.45,101,8.0,298.2,326.0,299.9
873.0,1316,13.8,10.9,83,9.41,100,8.0,298.3,326.0,300.0
872.5,1321,13.8,10.8,83,9.39,100,8.0,298.3,325.9,300.0
871.9,1327,13.7,10.8,82,9.36,100,8.0,298.3,325.9,300.0
871.3,1332,13.7,10.7,82,9.30,99,8.1,298.4,325.7,300.0
870.7,1338,13.7,10.6,81,9.23,99,8.1,298.4,325.6,300.0
870.1,1344,13.6,10.4,81,9.14,99,8.1,298.4,325.4,300.1
869.6,1349,13.6,10.3,80,9.06,99,8.1,298.4,325.2,300.1
869.0,1354,13.6,10.2,80,9.01,99,8.2,298.5,325.0,300.1
868.5,1360,13.5,10.1,80,9.00,98,8.2,298.5,325.0,300.1
868.0,1365,13.5,10.2,80,9.02,98,8.2,298.5,325.1,300.1
867.5,1370,13.5,10.2,81,9.06,98,8.2,298.5,325.2,300.1
866.9,1375,13.4,10.3,81,9.10,98,8.3,298.5,325.3,300.1
866.4,1380,13.4,10.3,81,9.10,98,8.3,298.5,325.3,300.1
865.9,1385,13.3,10.2,81,9.08,98,8.3,298.5,325.3,300.1
865.3,1390,13.3,10.1,81,9.03,98,8.3,298.5,325.1,300.1
864.8,1396,13.2,10.1,81,8.99,99,8.3,298.5,325.0,300.1
864.3,1401,13.2,10.0,81,8.98,99,8.3,298.5,325.0,300.1
863.7,1406,13.2,10.0,81,8.98,99,8.3,298.5,325.0,300.2
863.2,1411,13.1,10.0,82,8.99,99,8.4,298.5,325.1,300.2
862.7,1416,13.1,10.0,82,8.98,99,8.4,298.6,325.0,300.2
862.1,1421,13.0,10.0,82,8.96,99,8.4,298.6,325.0,300.2
861.6,1427,13.0,9.9,82,8.94,99,8.4,298.6,324.9,300.2
861.1,1432,13.0,9.9,82,8.92,99,8.4,298.6,324.9,300.2
860.5,1437,12.9,9.8,82,8.90,100,8.4,298.6,324.9,300.2
860.0,1443,12.9,9.8,81,8.85,100,8.4,298.6,324.7,300.2
859.4,1448,12.8,9.7,81,8.80,100,8.4,298.6,324.6,300.2
858.8,1454,12.8,9.6,81,8.79,100,8.4,298.6,324.6,300.2
858.3,1459,12.8,9.7,82,8.85,100,8.4,298.7,324.8,300.3
857.7,1465,12.7,9.9,83,8.99,100,8.4,298.7,325.2,300.3
857.1,1471,12.7,10.2,85,9.13,100,8.4,298.7,325.6,300.3
856.5,1476,12.6,10.3,86,9.21,100,8.4,298.7,325.8,300.3
856.0,1482,12.5,10.4,87,9.28,100,8.4,298.7,326.0,300.3
855.4,1488,12.5,10.5,87,9.34,99,8.4,298.7,326.2,300.3
854.8,1493,12.4,10.5,88,9.37,99,8.4,298.7,326.3,300.3
854.2,1499,12.4,10.5,88,9.37,99,8.4,298.7,326.3,300.4
853.7,1505,12.4,10.4,88,9.33,99,8.4,298.7,326.2,300.4
853.1,1510,12.3,10.3,87,9.26,98,8.4,298.7,326.0,300.4
852.5,1516,12.3,10.2,87,9.18,98,8.4,298.8,325.8,300.4
852.0,1521,12.3,10.1,87,9.14,98,8.4,298.8,325.7,300.4
851.4,1527,12.2,10.1,87,9.14,97,8.4,298.8,325.7,300.4
850.9,1532,12.2,10.1,87,9.13,97,8.4,298.8,325.7,300.4
850.4,1537,12.1,10.0,87,9.12,97,8.4,298.8,325.7,300.4
850.0,1541,12.1,10.0,87,9.09,97,8.4,298.8,325.6,300.4
849.9,1542,12.1,10.0,87,9.09,96,8.4,298.8,325.6,300.4
849.3,1547,12.1,9.9,87,9.06,96,8.4,298.8,325.6,300.5
848.8,1552,12.0,9.9,87,9.04,96,8.5,298.8,325.5,300.5
848.3,1558,12.0,9.9,87,9.04,95,8.5,298.9,325.5,300.5
847.7,1563,12.0,9.9,87,9.05,95,8.5,298.9,325.6,300.5
847.2,1569,11.9,9.9,87,9.05,95,8.5,298.9,325.6,300.5
846.6,1574,11.9,9.9,87,9.06,95,8.5,298.9,325.7,300.6
846.0,1580,11.8,9.8,87,9.03,94,8.4,298.9,325.6,300.6
845.4,1587,11.8,9.6,87,8.93,94,8.4,298.9,325.3,300.6
844.7,1593,11.8,9.4,85,8.78,94,8.4,299.0,325.0,300.6
844.1,1600,11.7,9.1,84,8.60,94,8.4,299.0,324.5,300.6
843.4,1606,11.7,8.8,82,8.44,94,8.3,299.1,324.1,300.6
842.8,1612,11.7,8.6,81,8.35,94,8.3,299.1,323.8,300.6
842.2,1618,11.7,8.5,81,8.31,94,8.2,299.1,323.8,300.6
841.6,1624,11.6,8.5,81,8.32,94,8.2,299.2,323.8,300.7
841.1,1629,11.6,8.5,81,8.32,94,8.1,299.2,323.8,300.7
840.6,1634,11.5,8.5,82,8.32,94,8.0,299.2,323.8,300.7
840.1,1639,11.5,8.5,82,8.32,95,8.0,299.2,323.8,300.7
839.6,1644,11.5,8.6,82,8.36,95,7.9,299.2,323.9,300.7
839.1,1649,11.4,8.6,83,8.38,95,7.8,299.2,324.0,300.7
838.6,1653,11.4,8.6,83,8.40,96,7.7,299.2,324.1,300.7
838.2,1658,11.3,8.6,83,8.40,96,7.7,299.2,324.1,300.7
837.7,1663,11.3,8.6,83,8.40,96,7.6,299.2,324.1,300.7
837.2,1668,11.3,8.7,84,8.44,97,7.5,299.2,324.2,300.8
836.7,1673,11.3,8.7,85,8.50,97,7.4,299.3,324.4,300.8
836.2,1678,11.2,8.8,85,8.54,97,7.4,299.3,324.6,300.8
835.7,1683,11.2,8.8,85,8.56,98,7.3,299.3,324.7,300.9
835.1,1688,11.2,8.9,86,8.61,98,7.3,299.3,324.9,300.9
834.6,1694,11.1,9.0,87,8.68,98,7.2,299.4,325.1,300.9
834.0,1700,11.1,9.1,88,8.74,98,7.2,299.4,325.3,301.0
833.4,1706,11.1,9.1,88,8.74,99,7.1,299.4,325.3,301.0
832.8,1712,11.0,9.0,88,8.71,99,7.1,299.4,325.2,301.0
832.1,1719,11.0,9.0,87,8.67,99,7.1,299.4,325.1,301.0
831.5,1725,10.9,8.9,87,8.61,99,7.1,299.4,325.0,301.0
830.9,1731,10.9,8.7,86,8.54,99,7.1,299.5,324.8,301.0
830.3,1738,10.9,8.6,86,8.47,99,7.1,299.5,324.6,301.0
829.7,1744,10.9,8.5,85,8.42,99,7.1,299.6,324.5,301.1
829.1,1750,10.8,8.5,86,8.42,99,7.2,299.6,324.6,301.1
828.5,1755,10.8,8.5,86,8.46,99,7.2,299.6,324.7,301.1
827.9,1761,10.7,8.6,87,8.48,99,7.2,299.6,324.7,301.1
827.4,1767,10.7,8.5,87,8.46,99,7.3,299.6,324.7,301.1
826.8,1772,10.6,8.4,86,8.41,99,7.4,299.6,324.6,301.1
826.3,1778,10.6,8.3,85,8.34,99,7.4,299.7,324.4,301.2
825.7,1784,10.6,8.1,85,8.24,99,7.5,299.7,324.2,301.2
825.1,1789,10.6,7.9,83,8.12,99,7.5,299.8,323.9,301.2
824.5,1795,10.6,7.6,82,7.97,99,7.6,299.8,323.6,301.3
823.9,1801,10.7,7.3,80,7.81,99,7.7,299.9,323.2,301.4
823.3,1807,10.7,7.0,78,7.68,99,7.8,300.1,323.0,301.5
822.7,1813,10.7,6.9,77,7.60,99,7.8,300.2,322.9,301.5
822.2,1819,10.7,6.8,77,7.57,99,7.9,300.2,322.8,301.6
821.6,1825,10.7,6.8,77,7.55,100,8.0,300.2,322.7,301.6
821.0,1831,10.6,6.7,76,7.50,100,8.0,300.2,322.6,301.6
820.5,1837,10.6,6.5,76,7.41,100,8.1,300.3,322.4,301.6
819.9,1842,10.6,6.3,75,7.31,100,8.1,300.3,322.2,301.7
819.4,1848,10.6,6.1,73,7.20,100,8.2,300.4,322.0,301.7
818.8,1853,10.7,5.8,72,7.06,100,8.3,300.5,321.7,301.8
818.2,1859,10.7,5.5,70,6.92,100,8.3,300.6,321.4,301.9
817.7,1865,10.7,5.2,69,6.80,100,8.4,300.7,321.1,301.9
817.1,1871,10.8,5.0,67,6.70,100,8.4,300.8,320.9,302.0
816.5,1877,10.8,4.8,67,6.63,100,8.4,300.9,320.8,302.1
815.9,1883,10.8,4.7,66,6.57,100,8.5,300.9,320.7,302.1
815.4,1888,10.7,4.5,66,6.51,100,8.5,300.9,320.5,302.1
814.9,1894,10.7,4.4,65,6.46,100,8.5,300.9,320.4,302.1
814.3,1899,10.6,4.4,65,6.43,100,8.5,300.9,320.3,302.1
813.8,1905,10.6,4.3,65,6.40,100,8.6,301.0,320.3,302.1
813.3,1910,10.7,4.2,64,6.39,100,8.6,301.1,320.3,302.2
812.8,1915,10.7,4.3,65,6.40,100,8.6,301.1,320.4,302.3
812.3,1920,10.6,4.3,65,6.41,99,8.6,301.2,320.5,302.3
811.8,1925,10.6,4.3,65,6.41,99,8.6,301.2,320.5,302.3
811.3,1931,10.6,4.2,65,6.41,99,8.6,301.2,320.5,302.4
810.8,1936,10.5,4.2,65,6.41,99,8.5,301.2,320.6,302.4
810.2,1941,10.5,4.2,65,6.40,98,8.5,301.3,320.6,302.4
809.7,1947,10.5,4.1,65,6.36,98,8.5,301.3,320.5,302.5
809.2,1952,10.5,4.0,64,6.32,97,8.5,301.4,320.4,302.5
808.7,1957,10.5,3.9,64,6.29,97,8.5,301.4,320.4,302.5
808.2,1962,10.5,3.9,64,6.27,97,8.4,301.4,320.4,302.6
807.7,1968,10.4,3.9,64,6.26,96,8.4,301.4,320.4,302.6
807.2,1973,10.4,3.8,64,6.25,96,8.4,301.4,320.3,302.6
806.7,1978,10.4,3.8,64,6.24,96,8.3,301.5,320.4,302.6
806.2,1983,10.4,3.8,64,6.23,95,8.3,301.5,320.4,302.7
