PRES,HGHT,TEMP,DWPT,RELH,MIXR,DRCT,SPED,THTA,THTE,THTV
1014.9,31,22.9,18.0,74,12.94,37,4.3,294.8,332.0,297.1
1014.0,39,23.0,18.2,74,13.06,25,3.7,295.0,332.6,297.3
1013.5,43,22.9,18.2,75,13.10,20,3.7,294.9,332.6,297.2
1012.8,49,22.9,18.2,75,13.11,18,3.8,294.9,332.7,297.2
1012.3,53,22.8,18.2,75,13.10,18,4.1,294.9,332.6,297.2
1011.8,57,22.8,18.2,75,13.08,19,4.4,294.9,332.6,297.2
1011.2,62,22.7,18.1,75,13.06,20,4.7,294.9,332.5,297.2
1010.4,69,22.7,18.1,75,13.02,20,4.9,294.9,332.4,297.2
1009.8,75,22.6,18.0,75,12.99,20,5.2,294.9,332.3,297.2
1009.1,81,22.6,18.0,75,12.99,20,5.4,295.0,332.4,297.3
1008.4,87,22.5,18.0,76,13.00,21,5.6,295.0,332.4,297.3
1007.6,93,22.5,18.0,76,12.98,21,5.8,295.0,332.4,297.3
1006.9,100,22.4,18.0,76,12.98,21,6.0,295.0,332.4,297.3
1006.1,106,22.4,17.9,76,12.93,21,6.2,295.0,332.3,297.3
1005.4,113,22.3,17.8,76,12.82,22,6.3,295.0,331.9,297.2
1004.6,120,22.2,17.8,76,12.85,22,6.5,295.0,332.0,297.2
1003.8,127,22.1,17.8,77,12.89,22,6.6,295.0,332.1,297.2
1003.0,133,22.1,17.8,77,12.90,23,6.7,294.9,332.1,297.2
1002.2,140,22.0,17.8,77,12.87,23,6.8,295.0,332.0,297.2
1001.4,147,21.9,17.6,76,12.71,23,6.9,294.9,331.6,297.2
1000.6,154,21.8,17.2,75,12.45,24,7.0,294.9,330.8,297.1
1000.0,159,21.7,17.2,75,12.44,24,7.0,294.9,330.7,297.1
999.8,161,21.7,17.2,76,12.44,24,7.0,294.9,330.7,297.1
999.0,168,21.6,17.3,76,12.53,24,7.1,294.9,331.0,297.1
998.3,174,21.6,17.4,77,12.61,25,7.2,294.9,331.2,297.1
997.6,181,21.5,17.4,77,12.61,25,7.2,294.9,331.2,297.1
996.9,186,21.5,17.4,78,12.63,25,7.3,294.9,331.3,297.1
996.3,192,21.4,17.5,78,12.69,26,7.4,294.9,331.5,297.1
995.7,197,21.4,17.3,78,12.59,26,7.4,294.9,331.2,297.1
995.1,202,21.3,17.1,77,12.45,26,7.5,294.9,330.8,297.1
994.5,207,21.2,16.9,76,12.26,27,7.5,294.9,330.2,297.0
994.0,212,21.2,16.8,76,12.18,27,7.6,294.8,329.9,297.0
993.4,217,21.1,16.9,77,12.27,27,7.7,294.8,330.2,297.0
992.7,223,21.1,17.0,78,12.37,27,7.8,294.8,330.4,297.0
992.1,228,21.0,17.0,78,12.38,27,7.8,294.8,330.5,297.0
991.5,234,21.0,17.0,78,12.36,27,7.9,294.8,330.4,297.0
990.8,240,20.9,17.0,78,12.37,27,8.0,294.8,330.5,297.0
990.2,245,20.8,17.0,79,12.38,27,8.1,294.8,330.5,297.0
989.5,251,20.8,17.0,79,12.41,27,8.2,294.8,330.6,297.0
988.9,256,20.7,17.0,79,12.45,27,8.3,294.8,330.7,297.0
988.3,262,20.7,17.0,80,12.45,27,8.4,294.8,330.7,297.0
987.6,268,20.6,17.0,80,12.42,27,8.5,294.8,330.6,297.0
987.0,273,20.6,16.9,80,12.39,27,8.6,294.8,330.5,297.0
986.4,279,20.5,17.0,80,12.41,27,8.7,294.8,330.6,297.0
985.7,284,20.5,17.0,81,12.49,27,8.7,294.9,330.8,297.1
985.1,290,20.5,17.2,81,12.59,27,8.8,294.9,331.1,297.1
984.4,295,20.4,17.2,82,12.61,27,8.9,294.9,331.2,297.1
983.8,301,20.4,17.1,81,12.54,27,9.0,294.9,331.0,297.1
983.1,307,20.3,16.9,81,12.44,27,9.0,294.9,330.7,297.1
982.5,313,20.2,16.9,81,12.42,27,9.1,294.9,330.7,297.1
981.9,318,20.2,16.8,81,12.37,27,9.1,294.9,330.5,297.1
981.2,324,20.1,16.7,81,12.25,27,9.2,294.8,330.1,297.0
980.6,329,20.0,16.6,81,12.20,27,9.2,294.8,330.0,297.0
980.0,335,20.0,16.7,81,12.26,27,9.2,294.8,330.1,297.0
979.4,340,19.9,16.7,82,12.31,28,9.2,294.8,330.3,297.0
978.8,345,19.9,16.7,82,12.32,28,9.2,294.8,330.3,297.0
978.2,351,19.8,16.7,82,12.28,28,9.2,294.8,330.2,297.0
977.6,356,19.8,16.6,82,12.28,29,9.2,294.8,330.2,297.0
977.0,361,19.7,16.7,83,12.30,29,9.2,294.8,330.3,297.0
976.3,367,19.7,16.7,83,12.34,29,9.2,294.8,330.4,297.0
975.7,373,19.6,16.7,83,12.34,30,9.2,294.8,330.4,297.0
975.1,378,19.6,16.7,83,12.33,30,9.1,294.8,330.3,297.0
974.4,384,19.5,16.6,83,12.30,31,9.1,294.8,330.3,297.0
973.8,389,19.5,16.6,83,12.28,31,9.1,294.8,330.2,297.0
973.2,395,19.4,16.6,84,12.28,32,9.0,294.8,330.2,297.0
972.6,400,19.4,16.6,84,12.28,32,9.0,294.8,330.2,297.0
972.0,405,19.3,16.5,84,12.27,33,8.9,294.8,330.2,297.0
971.4,411,19.3,16.5,84,12.25,33,8.9,294.8,330.1,297.0
970.8,416,19.2,16.5,84,12.26,34,8.9,294.8,330.2,297.0
970.3,421,19.2,16.5,85,12.26,34,8.8,294.8,330.2,297.0
969.7,426,19.1,16.5,85,12.25,35,8.8,294.8,330.1,297.0
969.1,431,19.1,16.4,85,12.23,35,8.7,294.8,330.1,297.0
968.6,436,19.0,16.4,85,12.20,35,8.7,294.8,330.0,297.0
968.0,441,19.0,16.4,85,12.20,36,8.7,294.8,330.0,297.0
967.4,446,18.9,16.4,86,12.23,36,8.6,294.8,330.0,297.0
966.9,451,18.9,16.4,86,12.22,36,8.6,294.8,330.0,297.0
966.4,455,18.8,16.4,86,12.21,36,8.6,294.8,330.0,297.0
965.9,460,18.8,16.4,86,12.21,36,8.6,294.8,330.0,297.0
965.4,464,18.7,16.4,86,12.21,36,8.6,294.8,330.0,297.0
964.9,469,18.7,16.4,86,12.21,36,8.6,294.8,330.0,297.0
964.3,474,18.6,16.3,86,12.20,36,8.5,294.8,330.0,297.0
963.8,478,18.6,16.3,87,12.22,36,8.5,294.8,330.0,297.0
963.3,483,18.6,16.4,87,12.25,36,8.5,294.8,330.1,297.0
962.7,488,18.5,16.4,88,12.28,36,8.6,294.8,330.2,297.0
962.1,493,18.5,16.5,88,12.33,35,8.6,294.8,330.4,297.0
961.5,499,18.4,16.5,88,12.34,35,8.6,294.8,330.4,297.0
960.9,504,18.4,16.5,89,12.34,35,8.6,294.8,330.4,297.0
960.3,510,18.3,16.4,89,12.33,35,8.6,294.8,330.4,297.0
959.7,515,18.2,16.4,89,12.33,35,8.6,294.8,330.3,297.0
959.1,521,18.2,16.4,90,12.35,35,8.7,294.8,330.4,297.0
958.5,526,18.1,16.5,90,12.37,34,8.7,294.8,330.5,297.0
957.9,531,18.1,16.4,90,12.37,34,8.7,294.8,330.5,297.0
957.3,537,18.0,16.4,90,12.33,34,8.8,294.8,330.4,297.0
956.7,542,18.0,16.4,90,12.34,34,8.8,294.8,330.4,297.0
956.1,547,17.9,16.4,91,12.36,34,8.9,294.8,330.4,297.0
955.5,553,17.9,16.4,91,12.34,34,8.9,294.8,330.4,297.0
954.9,558,17.8,16.3,91,12.32,34,8.9,294.8,330.3,297.0
954.3,563,17.8,16.3,91,12.30,35,9.0,294.8,330.3,297.0
953.7,568,17.7,16.3,91,12.29,35,9.0,294.8,330.3,297.0
953.1,574,17.7,16.3,92,12.32,35,9.1,294.8,330.3,297.0
952.5,579,17.6,16.3,92,12.33,35,9.1,294.8,330.3,297.0
951.9,585,17.6,16.2,92,12.27,35,9.2,294.8,330.2,297.0
951.3,591,17.5,16.2,92,12.23,36,9.2,294.8,330.1,297.0
950.6,597,17.4,16.1,92,12.23,36,9.3,294.8,330.1,297.0
949.9,603,17.4,16.2,92,12.26,36,9.3,294.8,330.1,297.0
949.2,609,17.3,16.2,93,12.28,36,9.4,294.8,330.2,297.0
948.5,616,17.3,16.2,94,12.32,37,9.4,294.8,330.3,297.0
947.8,622,17.2,16.2,94,12.32,37,9.4,294.8,330.3,297.0
947.1,629,17.1,16.1,94,12.27,37,9.5,294.8,330.2,297.0
946.4,635,17.1,16.0,94,12.18,37,9.5,294.8,329.9,297.0
945.7,641,17.0,15.9,93,12.12,38,9.6,294.8,329.7,297.0
945.1,646,17.0,15.9,94,12.14,38,9.6,294.8,329.8,297.0
944.5,652,16.9,16.0,94,12.19,38,9.7,294.8,329.9,297.0
943.9,658,16.9,16.0,95,12.21,38,9.7,294.8,330.0,297.0
943.3,663,16.8,16.0,95,12.22,38,9.7,294.8,330.0,297.0
942.6,669,16.8,16.0,95,12.22,38,9.8,294.8,330.1,297.0
942.0,674,16.7,16.0,95,12.20,38,9.8,294.8,330.0,297.0
941.4,680,16.7,15.9,95,12.18,38,9.8,294.8,329.9,297.0
940.7,686,16.6,15.9,96,12.15,38,9.9,294.9,329.9,297.0
940.1,692,16.6,15.9,96,12.15,38,9.9,294.9,329.9,297.0
939.4,698,16.5,15.9,96,12.20,38,9.9,294.9,330.0,297.0
938.7,705,16.4,16.0,97,12.24,37,10.0,294.9,330.1,297.0
938.0,711,16.4,15.9,97,12.24,37,10.0,294.9,330.1,297.0
937.3,717,16.3,15.9,97,12.19,37,10.0,294.9,330.0,297.0
936.6,724,16.3,15.8,97,12.14,37,10.0,294.9,329.9,297.1
935.9,730,16.3,15.8,97,12.13,37,10.0,294.9,329.9,297.1
935.2,736,16.2,15.8,97,12.12,37,10.0,295.0,329.9,297.1
934.5,743,16.1,15.7,97,12.11,37,10.0,294.9,329.8,297.1
933.8,749,16.1,15.7,98,12.11,37,10.0,294.9,329.8,297.1
933.1,755,16.0,15.7,98,12.12,37,10.0,294.9,329.9,297.1
932.4,762,16.0,15.7,99,12.14,37,10.0,294.9,329.9,297.1
931.7,768,15.9,15.7,99,12.15,38,10.0,295.0,330.0,297.1
931.0,775,15.9,15.7,99,12.16,38,10.0,295.0,330.0,297.1
930.3,781,15.8,15.7,99,12.14,38,10.0,295.0,330.0,297.1
929.5,788,15.7,15.7,100,12.13,39,10.0,295.0,329.9,297.1
928.8,795,15.7,15.7,100,12.13,39,10.0,295.0,330.0,297.1
928.0,802,15.6,15.6,100,12.12,40,10.0,295.0,329.9,297.1
927.2,810,15.6,15.6,100,12.10,41,9.9,295.0,329.9,297.2
926.4,817,15.5,15.5,100,12.07,42,9.9,295.1,329.9,297.2
925.5,825,15.5,15.5,100,12.05,43,9.9,295.1,329.8,297.2
925.0,830,15.5,15.5,100,12.04,43,9.9,295.1,329.8,297.3
924.7,832,15.5,15.5,100,12.03,44,9.8,295.1,329.9,297.3
924.0,839,15.4,15.4,100,12.01,45,9.8,295.2,329.8,297.3
923.2,846,15.4,15.4,100,11.98,46,9.8,295.2,329.8,297.3
922.5,853,15.4,15.3,100,11.95,47,9.8,295.2,329.7,297.4
921.8,860,15.3,15.3,100,11.96,48,9.8,295.3,329.8,297.4
921.1,866,15.3,15.3,100,11.96,50,9.7,295.3,329.8,297.4
920.3,873,15.3,15.3,100,11.94,51,9.7,295.3,329.8,297.5
919.6,879,15.2,15.2,100,11.92,53,9.7,295.4,329.8,297.5
918.9,886,15.2,15.2,100,11.91,54,9.7,295.4,329.8,297.5
918.3,892,15.2,15.2,100,11.89,55,9.7,295.4,329.8,297.5
917.6,898,15.2,15.1,100,11.87,57,9.7,295.5,329.8,297.6
916.9,905,15.1,15.1,100,11.87,58,9.8,295.5,329.8,297.6
916.2,911,15.1,15.1,100,11.86,60,9.8,295.5,329.8,297.6
915.6,917,15.1,15.1,100,11.85,61,9.8,295.6,329.8,297.7
914.9,923,15.1,15.1,100,11.84,62,9.8,295.6,329.9,297.7
914.3,929,15.0,15.0,100,11.83,64,9.9,295.6,329.8,297.7
913.7,934,15.0,15.0,100,11.82,65,9.9,295.7,329.9,297.8
913.1,940,15.0,15.0,100,11.80,66,10.0,295.7,329.9,297.8
912.5,945,15.0,15.0,100,11.80,67,10.0,295.7,329.9,297.8
911.9,951,15.0,15.0,100,11.84,68,10.1,295.8,330.1,297.9
911.4,956,15.1,15.1,100,11.90,69,10.1,296.0,330.4,298.1
910.8,961,15.1,15.1,100,11.96,70,10.2,296.1,330.7,298.2
910.2,967,15.2,15.2,100,11.99,71,10.2,296.2,330.9,298.3
909.7,972,15.2,15.2,100,12.01,71,10.3,296.2,331.0,298.4
909.1,977,15.2,15.2,100,12.03,72,10.3,296.3,331.2,298.4
908.6,982,15.2,15.2,100,12.04,72,10.4,296.4,331.3,298.5
908.0,987,15.2,15.2,100,12.04,73,10.4,296.4,331.3,298.5
907.5,992,15.2,15.2,100,12.03,73,10.5,296.4,331.3,298.6
907.0,997,15.2,15.2,100,12.03,73,10.5,296.5,331.4,298.6
906.5,1002,15.2,15.2,100,12.04,73,10.5,296.5,331.5,298.7
906.0,1007,15.2,15.2,100,12.06,74,10.6,296.6,331.6,298.7
905.4,1012,15.2,15.2,100,12.09,74,10.6,296.7,331.8,298.8
904.9,1017,15.2,15.2,100,12.12,74,10.6,296.7,331.9,298.9
904.4,1022,15.3,15.2,100,12.13,73,10.7,296.8,332.1,299.0
903.8,1027,15.3,15.2,99,12.10,73,10.7,296.9,332.1,299.1
903.3,1032,15.4,15.1,99,12.07,73,10.7,297.0,332.1,299.2
902.7,1037,15.4,15.1,98,12.06,73,10.7,297.1,332.2,299.3
902.2,1042,15.4,15.1,98,12.06,73,10.7,297.2,332.3,299.3
901.6,1048,15.4,15.1,98,12.07,73,10.8,297.2,332.4,299.4
901.0,1053,15.4,15.1,98,12.08,72,10.8,297.3,332.5,299.4
900.5,1059,15.4,15.1,98,12.09,72,10.8,297.3,332.5,299.5
899.9,1064,15.4,15.1,99,12.10,72,10.7,297.3,332.6,299.5
899.3,1069,15.3,15.1,99,12.10,71,10.7,297.3,332.6,299.5
898.8,1075,15.3,15.1,99,12.09,71,10.7,297.4,332.6,299.5
898.2,1080,15.3,15.1,99,12.08,71,10.7,297.4,332.6,299.6
897.7,1085,15.2,15.1,99,12.07,70,10.7,297.4,332.6,299.6
897.2,1090,15.2,15.0,99,12.05,70,10.6,297.4,332.5,299.6
896.6,1095,15.2,14.9,99,11.99,70,10.6,297.4,332.4,299.6
896.1,1100,15.1,14.8,98,11.90,70,10.6,297.5,332.1,299.6
895.6,1105,15.1,14.6,97,11.77,69,10.5,297.5,331.8,299.6
895.1,1109,15.1,14.5,96,11.66,69,10.5,297.5,331.5,299.6
894.6,1114,15.0,14.4,96,11.57,69,10.5,297.5,331.2,299.6
894.0,1119,15.0,14.2,95,11.50,69,10.4,297.5,331.1,299.6
893.5,1124,15.0,14.2,95,11.45,68,10.4,297.5,330.9,299.6
893.0,1129,14.9,14.1,95,11.43,68,10.3,297.5,330.9,299.6
892.5,1134,14.9,14.1,95,11.39,68,10.3,297.5,330.8,299.6
892.0,1139,14.9,14.0,95,11.37,68,10.3,297.6,330.7,299.6
891.5,1144,14.8,14.0,95,11.34,67,10.2,297.6,330.7,299.6
890.9,1149,14.8,13.9,94,11.24,67,10.2,297.6,330.4,299.6
890.4,1154,14.7,13.7,94,11.16,67,10.1,297.6,330.2,299.6
889.9,1159,14.7,13.7,94,11.14,67,10.1,297.6,330.2,299.6
889.3,1165,14.7,13.7,94,11.16,67,10.1,297.6,330.2,299.6
888.7,1170,14.7,13.7,94,11.17,66,10.1,297.7,330.3,299.7
888.1,1176,14.7,13.7,94,11.13,66,10.1,297.7,330.3,299.7
887.4,1182,14.7,13.6,93,11.08,66,10.0,297.8,330.2,299.8
886.8,1188,14.6,13.5,93,11.03,65,10.0,297.8,330.1,299.8
886.2,1194,14.6,13.4,93,11.00,65,10.0,297.8,330.0,299.8
885.5,1201,14.6,13.4,93,11.00,65,10.0,297.9,330.1,299.9
884.9,1207,14.6,13.4,93,11.02,65,10.0,297.9,330.2,299.9
884.3,1213,14.6,13.5,93,11.03,64,10.0,298.0,330.3,300.0
883.7,1218,14.6,13.4,93,11.03,64,10.0,298.1,330.3,300.0
883.1,1224,14.5,13.4,93,11.01,64,10.1,298.1,330.3,300.1
882.5,1230,14.5,13.4,93,11.00,63,10.1,298.1,330.3,300.1
881.9,1235,14.5,13.3,93,10.98,63,10.1,298.2,330.3,300.1
881.3,1241,14.5,13.3,93,10.98,62,10.1,298.2,330.3,300.2
880.8,1246,14.4,13.3,93,10.98,62,10.1,298.2,330.4,300.2
880.2,1251,14.4,13.3,93,11.00,62,10.1,298.3,330.5,300.2
879.7,1256,14.4,13.3,93,11.01,61,10.2,298.3,330.6,300.3
879.2,1262,14.4,13.4,93,11.02,61,10.2,298.3,330.6,300.3
878.6,1267,14.4,13.3,93,11.01,61,10.2,298.4,330.6,300.3
878.1,1272,14.4,13.3,93,10.99,60,10.2,298.4,330.6,300.4
877.6,1277,14.4,13.3,93,10.98,60,10.2,298.4,330.6,300.4
877.1,1281,14.3,13.3,94,11.01,59,10.3,298.5,330.7,300.4
876.6,1286,14.3,13.4,94,11.06,59,10.3,298.5,330.9,300.5
876.2,1291,14.3,13.4,94,11.10,59,10.3,298.5,331.0,300.5
875.7,1295,14.3,13.4,95,11.12,58,10.3,298.5,331.1,300.5
875.2,1300,14.2,13.5,95,11.17,58,10.3,298.5,331.3,300.6
874.7,1305,14.2,13.5,95,11.19,58,10.3,298.6,331.4,300.6
874.1,1310,14.2,13.5,95,11.17,58,10.3,298.6,331.3,300.6
873.6,1315,14.1,13.5,96,11.17,58,10.3,298.6,331.3,300.6
873.1,1321,14.1,13.5,96,11.22,58,10.3,298.6,331.5,300.6
872.5,1326,14.1,13.6,97,11.27,58,10.3,298.6,331.6,300.6
871.9,1332,14.0,13.6,97,11.30,58,10.3,298.6,331.7,300.6
871.3,1337,14.0,13.6,98,11.30,58,10.3,298.6,331.8,300.7
870.7,1343,13.9,13.5,98,11.28,58,10.3,298.6,331.7,300.7
870.1,1349,13.9,13.5,98,11.24,58,10.4,298.7,331.6,300.7
869.4,1356,13.8,13.5,98,11.22,58,10.4,298.7,331.6,300.7
868.8,1362,13.8,13.4,98,11.22,58,10.4,298.7,331.6,300.7
868.2,1368,13.7,13.4,98,11.19,58,10.4,298.7,331.5,300.7
867.6,1374,13.7,13.3,98,11.14,59,10.4,298.7,331.4,300.7
867.0,1380,13.6,13.3,98,11.13,59,10.4,298.7,331.4,300.7
866.4,1386,13.6,13.3,98,11.12,59,10.4,298.7,331.4,300.7
865.8,1391,13.5,13.2,98,11.09,59,10.4,298.7,331.3,300.7
865.3,1396,13.5,13.1,98,11.04,60,10.4,298.7,331.1,300.7
864.7,1401,13.4,13.1,98,11.01,60,10.4,298.7,331.0,300.7
864.2,1406,13.4,13.0,98,10.96,60,10.4,298.7,330.9,300.7
863.8,1411,13.3,13.0,98,10.97,60,10.5,298.7,330.9,300.7
863.3,1416,13.3,13.1,98,11.02,61,10.5,298.7,331.1,300.7
862.8,1420,13.3,13.1,99,11.02,61,10.5,298.8,331.1,300.8
862.4,1424,13.3,13.0,98,10.99,61,10.6,298.8,331.0,300.7
861.9,1429,13.2,13.0,98,10.95,61,10.6,298.8,330.9,300.7
861.5,1433,13.2,12.9,98,10.93,61,10.6,298.8,330.9,300.7
861.0,1438,13.1,12.9,99,10.94,61,10.7,298.8,330.9,300.8
860.5,1443,13.1,13.0,99,10.97,61,10.7,298.8,331.0,300.8
860.0,1448,13.1,13.0,99,10.99,61,10.8,298.8,331.1,300.8
859.5,1453,13.1,13.0,100,11.02,62,10.8,298.9,331.2,300.8
858.9,1458,13.1,13.0,100,11.06,62,10.8,298.9,331.4,300.9
858.4,1464,13.1,13.1,100,11.09,62,10.9,299.0,331.6,301.0
857.8,1469,13.1,13.1,100,11.08,62,10.9,299.1,331.6,301.0
857.3,1475,13.0,13.0,100,11.04,62,10.9,299.1,331.5,301.0
856.8,1480,13.0,12.9,99,10.97,62,10.9,299.0,331.3,301.0
856.3,1485,12.9,12.8,99,10.95,62,11.0,299.0,331.2,301.0
855.8,1490,12.9,12.9,100,10.97,62,11.0,299.1,331.3,301.0
855.3,1495,12.9,12.9,100,10.97,63,11.0,299.1,331.3,301.1
854.7,1500,12.8,12.8,100,10.96,63,10.9,299.1,331.3,301.1
854.2,1505,12.8,12.8,100,10.96,63,10.9,299.1,331.4,301.1
853.7,1510,12.8,12.8,100,10.95,63,10.9,299.2,331.4,301.1
853.1,1515,12.8,12.8,100,10.92,64,10.9,299.2,331.3,301.2
852.6,1521,12.8,12.7,100,10.89,64,10.8,299.2,331.3,301.2
852.0,1527,12.7,12.7,99,10.86,65,10.7,299.3,331.2,301.2
851.4,1532,12.7,12.6,99,10.85,65,10.7,299.3,331.2,301.3
850.8,1538,12.7,12.6,100,10.86,66,10.6,299.3,331.3,301.3
850.2,1544,12.7,12.6,100,10.88,66,10.5,299.4,331.4,301.3
850.0,1546,12.7,12.6,100,10.88,67,10.5,299.4,331.4,301.4
849.6,1550,12.7,12.7,100,10.90,67,10.5,299.4,331.5,301.4
849.0,1556,12.7,12.6,100,10.89,67,10.4,299.5,331.6,301.4
848.4,1563,12.6,12.6,100,10.88,68,10.3,299.5,331.6,301.5
847.8,1569,12.6,12.6,100,10.90,68,10.2,299.6,331.7,301.5
847.2,1575,12.7,12.7,100,10.93,69,10.1,299.7,331.9,301.6
846.6,1580,12.7,12.7,100,10.96,70,10.1,299.8,332.1,301.7
846.0,1586,12.7,12.7,100,10.97,70,10.0,299.8,332.2,301.8
845.5,1591,12.7,12.7,100,10.97,71,9.9,299.9,332.2,301.8
845.0,1596,12.7,12.7,100,10.97,71,9.8,299.9,332.3,301.9
844.5,1601,12.7,12.7,100,10.96,72,9.8,299.9,332.3,301.9
844.0,1606,12.7,12.7,100,10.97,72,9.7,300.0,332.4,302.0
843.5,1611,12.7,12.7,100,10.98,72,9.7,300.0,332.4,302.0
843.1,1616,12.6,12.6,100,10.97,73,9.6,300.1,332.4,302.0
842.6,1620,12.6,12.6,100,10.94,73,9.6,300.1,332.4,302.1
842.1,1625,12.6,12.5,100,10.91,74,9.6,300.1,332.3,302.1
841.6,1630,12.6,12.5,99,10.88,74,9.5,300.2,332.3,302.1
841.1,1635,12.6,12.4,99,10.85,75,9.5,300.2,332.2,302.1
840.7,1640,12.5,12.4,99,10.83,75,9.5,300.2,332.2,302.1
840.2,1644,12.5,12.4,99,10.84,75,9.5,300.2,332.2,302.2
839.8,1648,12.5,12.4,100,10.86,76,9.5,300.2,332.3,302.2
839.4,1652,12.5,12.4,100,10.86,76,9.6,300.3,332.4,302.2
839.0,1656,12.5,12.4,100,10.85,77,9.6,300.3,332.4,302.2
838.6,1660,12.4,12.4,100,10.84,78,9.6,300.3,332.3,302.3
838.2,1664,12.4,12.4,100,10.83,78,9.6,300.3,332.3,302.3
837.8,1668,12.4,12.3,99,10.81,79,9.6,300.4,332.3,302.3
837.4,1672,12.4,12.3,100,10.80,79,9.6,300.4,332.3,302.3
837.0,1677,12.4,12.3,100,10.80,80,9.7,300.4,332.3,302.3
836.5,1681,12.3,12.3,100,10.81,81,9.7,300.4,332.4,302.4
836.0,1686,12.3,12.3,100,10.80,82,9.7,300.4,332.4,302.4
835.6,1691,12.3,12.3,100,10.79,82,9.7,300.4,332.3,302.4
835.1,1696,12.2,12.2,100,10.76,83,9.7,300.5,332.3,302.4
834.6,1701,12.2,12.2,100,10.74,84,9.7,300.5,332.3,302.4
834.1,1705,12.2,12.1,99,10.72,84,9.7,300.5,332.2,302.5
833.6,1710,12.2,12.1,99,10.69,85,9.7,300.6,332.2,302.5
833.1,1715,12.2,12.1,99,10.68,86,9.7,300.6,332.2,302.5
832.6,1721,12.1,12.0,99,10.67,87,9.6,300.6,332.2,302.5
832.1,1726,12.1,12.0,99,10.67,87,9.6,300.6,332.2,302.6
831.6,1731,12.1,12.0,100,10.67,88,9.6,300.7,332.2,302.6
831.1,1736,12.0,12.0,100,10.67,89,9.5,300.7,332.3,302.6
830.5,1741,12.0,12.0,100,10.68,89,9.5,300.7,332.3,302.6
830.1,1746,12.0,12.0,100,10.67,90,9.4,300.7,332.3,302.7
829.6,1751,12.0,11.9,100,10.65,90,9.3,300.8,332.3,302.7
829.1,1756,12.0,11.9,100,10.62,91,9.3,300.8,332.3,302.7
828.7,1760,12.0,11.9,100,10.61,92,9.2,300.8,332.3,302.7
828.2,1765,11.9,11.9,100,10.61,92,9.1,300.9,332.3,302.8
827.8,1769,11.9,11.9,100,10.60,92,9.0,300.9,332.3,302.8
827.4,1773,11.9,11.9,100,10.62,93,9.0,300.9,332.4,302.8
826.9,1778,11.9,11.9,100,10.62,93,8.9,300.9,332.4,302.8
826.5,1782,11.8,11.8,100,10.61,94,8.8,300.9,332.4,302.9
826.1,1787,11.8,11.8,100,10.61,94,8.7,301.0,332.4,302.9
825.6,1791,11.8,11.8,100,10.60,94,8.7,301.0,332.4,302.9
825.2,1796,11.8,11.8,100,10.59,94,8.6,301.0,332.4,302.9
824.7,1800,11.8,11.8,100,10.58,95,8.5,301.0,332.4,303.0
824.3,1805,11.7,11.7,100,10.56,95,8.5,301.0,332.4,303.0
823.9,1809,11.7,11.7,100,10.53,95,8.4,301.1,332.3,303.0
823.4,1814,11.7,11.6,100,10.48,95,8.4,301.1,332.1,303.0
823.0,1818,11.6,11.5,99,10.40,95,8.4,301.0,331.9,302.9
822.5,1823,11.5,11.4,99,10.35,96,8.4,301.0,331.7,302.9
822.1,1827,11.5,11.3,99,10.32,96,8.3,301.0,331.7,302.9
821.6,1832,11.5,11.3,98,10.26,96,8.3,301.1,331.6,302.9
821.1,1837,11.5,11.1,98,10.17,96,8.3,301.1,331.3,303.0
820.6,1842,11.5,11.0,97,10.09,96,8.4,301.2,331.1,303.0
820.1,1847,11.4,10.9,96,10.02,96,8.4,301.2,331.0,303.0
819.6,1852,11.4,10.8,96,9.97,96,8.4,301.2,330.8,303.0
819.2,1857,11.4,10.7,96,9.95,96,8.5,301.2,330.8,303.0
818.7,1862,11.4,10.7,96,9.95,96,8.5,301.2,330.8,303.0
818.3,1866,11.3,10.7,96,9.95,96,8.6,301.3,330.8,303.1
817.9,1870,11.3,10.7,96,9.95,96,8.6,301.3,330.9,303.1
817.5,1875,11.3,10.7,96,9.95,96,8.7,301.3,330.9,303.1
817.1,1879,11.3,10.7,96,9.92,96,8.8,301.3,330.8,303.1
816.6,1883,11.2,10.6,96,9.89,96,8.8,301.3,330.8,303.1
816.2,1887,11.2,10.6,96,9.88,96,8.9,301.3,330.8,303.1
815.8,1891,11.2,10.6,96,9.91,96,9.0,301.4,330.8,303.2
815.4,1896,11.2,10.6,96,9.90,95,9.1,301.4,330.8,303.2
814.9,1900,11.1,10.5,96,9.84,95,9.2,301.4,330.7,303.2
814.5,1905,11.1,10.4,96,9.78,95,9.3,301.4,330.5,303.2
814.0,1910,11.0,10.4,96,9.75,95,9.3,301.4,330.4,303.2
813.5,1915,11.0,10.3,95,9.70,95,9.4,301.4,330.3,303.2
813.0,1920,11.0,10.1,94,9.62,95,9.5,301.5,330.1,303.2
812.5,1925,11.0,10.0,94,9.54,95,9.6,301.5,329.9,303.2
812.0,1930,10.9,10.0,94,9.51,95,9.7,301.5,329.9,303.2
811.6,1935,10.9,10.0,94,9.54,95,9.8,301.5,329.9,303.2
811.1,1940,10.9,10.1,95,9.61,95,9.8,301.5,330.2,303.3
810.7,1944,10.9,10.1,95,9.63,95,9.9,301.5,330.2,303.3
810.2,1949,10.8,10.1,95,9.63,95,10.0,301.6,330.3,303.3
809.8,1953,10.8,10.1,95,9.64,94,10.0,301.6,330.3,303.4
