PRES,HGHT,TEMP,DWPT,RELH,MIXR,DRCT,SPED,THTA,THTE,THTV
1013.9,31,25.4,21.1,77,15.72,43,8.8,297.4,343.1,300.2
1013.2,37,25.7,21.2,77,15.88,50,6.2,297.7,343.9,300.5
1012.6,41,25.7,21.2,76,15.84,54,5.7,297.8,343.9,300.6
1012.2,45,25.7,21.1,76,15.79,54,5.9,297.8,343.8,300.6
1011.6,51,25.6,21.0,76,15.71,54,6.4,297.8,343.5,300.6
1011.0,56,25.6,20.9,75,15.60,54,6.9,297.8,343.2,300.6
1010.5,60,25.5,20.8,75,15.51,53,7.4,297.8,343.0,300.6
1010.0,65,25.5,20.7,75,15.44,53,7.8,297.8,342.8,300.6
1009.5,69,25.5,20.7,75,15.42,53,8.2,297.8,342.7,300.6
1008.9,74,25.4,20.7,75,15.44,53,8.6,297.8,342.8,300.6
1008.3,79,25.4,20.7,75,15.44,53,9.0,297.8,342.8,300.6
1007.7,84,25.4,20.7,75,15.42,52,9.3,297.8,342.8,300.6
1007.1,89,25.3,20.7,76,15.43,52,9.6,297.8,342.8,300.6
1006.5,95,25.2,20.7,76,15.43,52,9.9,297.8,342.8,300.6
1005.9,100,25.2,20.6,76,15.41,52,10.2,297.8,342.7,300.6
1005.3,106,25.1,20.6,76,15.37,52,10.4,297.8,342.6,300.6
1004.7,111,25.1,20.6,76,15.35,52,10.6,297.8,342.5,300.6
1004.0,117,25.0,20.5,76,15.33,52,10.7,297.8,342.5,300.6
1003.4,122,25.0,20.5,76,15.27,52,10.9,297.8,342.3,300.5
1002.8,127,24.9,20.4,76,15.19,52,11.0,297.8,342.1,300.5
1002.2,133,24.9,20.4,76,15.20,52,11.1,297.8,342.1,300.5
1001.6,138,24.8,20.4,77,15.25,52,11.2,297.8,342.2,300.5
1001.0,143,24.8,20.4,77,15.28,52,11.2,297.8,342.3,300.5
1000.4,148,24.7,20.4,77,15.29,52,11.3,297.8,342.3,300.5
1000.0,152,24.7,20.4,77,15.28,52,11.3,297.8,342.3,300.5
999.8,154,24.7,20.4,77,15.29,52,11.3,297.8,342.3,300.5
999.2,159,24.6,20.4,77,15.27,52,11.3,297.8,342.3,300.5
998.6,164,24.5,20.3,77,15.22,52,11.3,297.8,342.1,300.5
998.0,169,24.5,20.3,77,15.18,52,11.3,297.8,342.0,300.5
997.4,175,24.5,20.3,77,15.16,52,11.4,297.8,342.0,300.5
996.8,180,24.4,20.3,78,15.17,53,11.4,297.9,342.0,300.6
996.2,185,24.4,20.3,78,15.20,53,11.4,297.9,342.1,300.6
995.6,191,24.3,20.3,78,15.22,53,11.4,297.8,342.2,300.6
995.0,196,24.3,20.2,78,15.19,53,11.4,297.8,342.1,300.5
994.5,201,24.2,20.2,78,15.16,53,11.4,297.8,342.0,300.5
993.9,206,24.2,20.2,78,15.16,54,11.4,297.8,342.0,300.5
993.3,211,24.1,20.2,79,15.17,54,11.5,297.9,342.0,300.6
992.7,216,24.1,20.2,79,15.16,54,11.5,297.9,342.0,300.6
992.1,222,24.0,20.2,79,15.16,54,11.6,297.9,342.0,300.6
991.5,227,24.0,20.2,79,15.18,54,11.6,297.8,342.1,300.6
990.9,232,23.9,20.2,80,15.20,54,11.7,297.8,342.1,300.6
990.3,238,23.9,20.2,80,15.23,54,11.7,297.8,342.2,300.6
989.7,243,23.8,20.2,80,15.23,55,11.8,297.8,342.2,300.6
989.1,248,23.8,20.2,80,15.19,55,11.9,297.9,342.1,300.6
988.5,254,23.7,20.1,80,15.15,55,11.9,297.9,342.0,300.6
987.9,259,23.7,20.1,80,15.12,55,12.0,297.8,341.9,300.5
987.3,264,23.6,20.0,80,15.11,55,12.0,297.8,341.8,300.5
986.8,269,23.6,20.0,81,15.12,55,12.1,297.8,341.9,300.5
986.2,274,23.5,20.1,81,15.17,54,12.2,297.8,342.0,300.5
985.7,279,23.5,20.1,81,15.21,54,12.2,297.8,342.1,300.5
985.2,284,23.4,20.1,82,15.21,54,12.3,297.8,342.1,300.5
984.6,288,23.4,20.1,82,15.20,54,12.3,297.8,342.1,300.5
984.1,293,23.3,20.1,82,15.19,54,12.3,297.8,342.1,300.5
983.6,298,23.3,20.0,82,15.17,54,12.4,297.8,342.0,300.5
983.0,303,23.3,20.0,82,15.11,54,12.4,297.9,341.9,300.6
982.5,307,23.2,19.9,81,15.03,54,12.4,297.9,341.7,300.6
981.9,312,23.2,19.8,81,14.97,54,12.4,297.9,341.5,300.6
981.4,317,23.2,19.8,81,14.94,54,12.4,297.9,341.4,300.6
980.9,322,23.1,19.8,81,14.95,54,12.4,297.9,341.5,300.6
980.3,326,23.1,19.8,82,14.99,53,12.4,297.9,341.6,300.6
979.8,331,23.0,19.8,82,15.02,53,12.4,297.9,341.7,300.6
979.3,336,23.0,19.8,82,15.03,53,12.4,297.9,341.7,300.6
978.8,340,22.9,19.8,83,15.02,53,12.4,297.9,341.7,300.6
978.3,345,22.9,19.8,83,15.03,53,12.4,297.9,341.7,300.6
977.8,349,22.8,19.8,83,15.06,53,12.4,297.9,341.7,300.6
977.3,354,22.8,19.8,83,15.04,53,12.3,297.9,341.7,300.6
976.8,358,22.8,19.8,83,15.00,53,12.3,297.9,341.6,300.6
976.3,363,22.7,19.7,83,14.99,53,12.3,297.9,341.6,300.6
975.7,368,22.7,19.8,84,15.02,53,12.3,297.9,341.7,300.6
975.1,373,22.6,19.8,84,15.12,53,12.2,297.9,342.0,300.6
974.6,378,22.6,19.9,85,15.20,53,12.2,297.9,342.2,300.6
974.0,383,22.5,19.9,85,15.20,53,12.2,297.9,342.1,300.6
973.3,389,22.4,19.9,85,15.17,54,12.1,297.9,342.1,300.6
972.7,395,22.4,19.8,86,15.15,54,12.1,297.9,342.0,300.6
972.1,400,22.3,19.8,86,15.15,54,12.1,297.9,342.0,300.6
971.4,406,22.3,19.8,86,15.10,54,12.1,297.9,341.9,300.6
970.8,412,22.2,19.6,85,14.99,54,12.0,297.9,341.6,300.5
970.2,417,22.2,19.5,85,14.88,54,12.0,297.9,341.2,300.5
969.6,423,22.1,19.5,85,14.84,55,12.0,297.9,341.2,300.6
969.0,428,22.1,19.5,85,14.89,55,12.0,297.9,341.3,300.6
968.4,434,22.1,19.5,85,14.91,55,12.0,297.9,341.4,300.6
967.7,439,22.0,19.5,86,14.91,55,12.0,298.0,341.4,300.6
967.1,445,22.0,19.5,86,14.92,56,12.0,297.9,341.4,300.6
966.5,451,21.9,19.5,86,14.94,56,12.0,297.9,341.5,300.6
965.9,456,21.8,19.5,87,14.94,56,12.0,297.9,341.4,300.6
965.3,462,21.8,19.5,87,14.91,56,12.1,297.9,341.4,300.6
964.7,467,21.7,19.4,87,14.86,56,12.1,297.9,341.2,300.6
964.2,472,21.7,19.4,87,14.83,57,12.1,297.9,341.1,300.6
963.7,476,21.7,19.4,87,14.84,57,12.2,298.0,341.2,300.6
963.2,480,21.6,19.4,87,14.87,57,12.2,298.0,341.3,300.6
962.7,485,21.6,19.4,87,14.89,57,12.2,298.0,341.4,300.6
962.3,489,21.6,19.4,88,14.94,57,12.3,298.0,341.5,300.6
961.8,493,21.5,19.5,88,14.97,57,12.3,297.9,341.6,300.6
961.3,497,21.5,19.5,88,14.97,57,12.3,297.9,341.6,300.6
960.8,502,21.4,19.4,88,14.94,57,12.4,297.9,341.5,300.6
960.4,506,21.4,19.4,89,14.92,57,12.4,297.9,341.4,300.6
959.9,510,21.3,19.4,89,14.90,57,12.4,297.9,341.3,300.6
959.4,515,21.3,19.3,89,14.88,57,12.4,297.9,341.3,300.6
958.9,519,21.3,19.3,89,14.88,57,12.5,298.0,341.3,300.6
958.5,523,21.2,19.3,89,14.88,57,12.5,297.9,341.3,300.6
958.0,527,21.2,19.3,89,14.86,56,12.5,298.0,341.3,300.6
957.6,531,21.1,19.3,89,14.86,56,12.5,298.0,341.3,300.6
957.1,536,21.1,19.3,89,14.86,56,12.5,298.0,341.3,300.6
956.6,540,21.1,19.3,90,14.88,56,12.5,298.0,341.3,300.6
956.1,544,21.0,19.3,90,14.91,56,12.5,298.0,341.4,300.6
955.6,549,21.0,19.3,90,14.94,56,12.4,298.0,341.5,300.6
955.1,554,20.9,19.3,91,14.94,57,12.4,297.9,341.5,300.6
954.6,558,20.9,19.3,91,14.90,57,12.4,297.9,341.4,300.6
954.1,563,20.8,19.2,91,14.86,57,12.4,298.0,341.3,300.6
953.6,567,20.8,19.2,91,14.86,57,12.3,298.0,341.3,300.6
953.2,571,20.8,19.2,91,14.87,57,12.3,298.0,341.3,300.6
952.7,576,20.7,19.2,91,14.89,57,12.3,297.9,341.3,300.6
952.2,580,20.7,19.2,92,14.89,58,12.2,297.9,341.3,300.6
951.8,584,20.6,19.2,92,14.87,58,12.2,297.9,341.3,300.6
951.3,588,20.6,19.2,92,14.86,58,12.2,297.9,341.2,300.6
950.9,592,20.6,19.2,92,14.84,59,12.2,298.0,341.2,300.6
950.4,596,20.5,19.1,92,14.83,59,12.1,298.0,341.2,300.6
950.0,600,20.5,19.1,92,14.82,59,12.1,298.0,341.2,300.6
949.5,604,20.5,19.1,92,14.81,60,12.1,298.0,341.1,300.6
949.1,609,20.4,19.0,92,14.76,60,12.1,298.0,341.0,300.6
948.6,613,20.4,19.0,92,14.72,60,12.1,298.0,340.9,300.6
948.2,617,20.4,18.9,92,14.69,60,12.1,298.0,340.8,300.6
947.7,621,20.3,18.9,92,14.67,61,12.1,298.0,340.8,300.6
947.3,625,20.3,18.9,92,14.64,61,12.1,298.0,340.7,300.6
946.8,629,20.3,18.9,92,14.64,61,12.1,298.0,340.7,300.6
946.4,634,20.2,18.9,92,14.65,61,12.2,298.0,340.7,300.7
945.9,638,20.2,18.8,92,14.63,61,12.2,298.0,340.7,300.6
945.4,642,20.2,18.8,92,14.57,61,12.2,298.0,340.5,300.6
944.9,647,20.1,18.7,92,14.54,61,12.2,298.1,340.4,300.7
944.4,651,20.1,18.7,92,14.54,61,12.2,298.1,340.5,300.7
944.0,656,20.0,18.7,92,14.56,61,12.3,298.1,340.5,300.7
943.5,660,20.0,18.7,92,14.56,60,12.3,298.1,340.5,300.7
943.0,664,19.9,18.7,93,14.57,60,12.3,298.0,340.5,300.6
942.5,669,19.9,18.7,93,14.56,60,12.3,298.0,340.5,300.6
942.0,673,19.9,18.7,93,14.55,60,12.4,298.0,340.5,300.6
941.6,677,19.8,18.7,93,14.55,59,12.4,298.0,340.5,300.6
941.1,682,19.8,18.7,93,14.55,59,12.4,298.0,340.5,300.6
940.6,686,19.7,18.7,93,14.54,59,12.4,298.0,340.4,300.6
940.2,690,19.7,18.6,94,14.53,58,12.5,298.1,340.4,300.6
939.7,695,19.7,18.6,94,14.52,58,12.5,298.1,340.4,300.7
939.2,699,19.6,18.6,94,14.51,58,12.5,298.1,340.4,300.7
938.8,703,19.6,18.6,94,14.52,58,12.5,298.1,340.4,300.7
938.3,707,19.5,18.6,94,14.54,57,12.5,298.1,340.4,300.7
937.9,711,19.5,18.6,95,14.55,57,12.5,298.1,340.5,300.7
937.4,716,19.5,18.6,95,14.56,57,12.5,298.1,340.5,300.7
936.9,720,19.4,18.6,95,14.57,57,12.5,298.1,340.5,300.7
936.5,725,19.4,18.6,95,14.57,56,12.5,298.1,340.5,300.7
936.0,729,19.3,18.6,95,14.54,56,12.5,298.1,340.4,300.7
935.5,734,19.3,18.6,95,14.53,56,12.5,298.1,340.4,300.7
935.0,738,19.3,18.6,96,14.53,56,12.5,298.1,340.5,300.7
934.5,743,19.2,18.5,96,14.53,56,12.6,298.1,340.5,300.7
933.9,748,19.2,18.5,96,14.53,56,12.6,298.1,340.5,300.7
933.4,753,19.1,18.5,96,14.53,56,12.6,298.1,340.5,300.7
932.8,758,19.1,18.5,96,14.53,56,12.6,298.1,340.5,300.7
932.2,764,19.0,18.5,97,14.54,56,12.6,298.1,340.5,300.7
931.6,769,19.0,18.5,97,14.55,56,12.6,298.1,340.5,300.7
931.0,775,18.9,18.5,97,14.56,56,12.6,298.1,340.5,300.7
930.4,780,18.9,18.5,98,14.53,56,12.6,298.1,340.5,300.7
929.8,786,18.8,18.4,97,14.46,56,12.6,298.1,340.3,300.7
929.3,791,18.8,18.3,97,14.39,56,12.7,298.1,340.1,300.7
928.7,796,18.7,18.3,97,14.37,56,12.7,298.1,340.0,300.7
928.1,802,18.7,18.3,98,14.39,56,12.7,298.1,340.1,300.7
927.6,807,18.6,18.3,98,14.39,56,12.8,298.1,340.1,300.7
927.0,812,18.6,18.2,98,14.37,56,12.8,298.1,340.0,300.7
926.4,818,18.6,18.2,98,14.36,56,12.9,298.1,340.0,300.7
925.8,823,18.5,18.2,98,14.37,56,12.9,298.1,340.1,300.7
925.2,829,18.5,18.2,99,14.38,57,13.0,298.2,340.1,300.7
925.0,831,18.4,18.2,99,14.39,57,13.1,298.2,340.1,300.7
924.6,834,18.4,18.2,99,14.39,57,13.1,298.2,340.2,300.7
924.0,840,18.4,18.2,99,14.41,57,13.1,298.2,340.2,300.8
923.3,846,18.3,18.2,99,14.42,57,13.2,298.2,340.2,300.8
922.7,852,18.3,18.2,100,14.39,57,13.3,298.2,340.1,300.7
922.1,858,18.2,18.1,99,14.31,58,13.3,298.2,339.9,300.7
921.5,864,18.2,18.0,99,14.22,58,13.4,298.2,339.7,300.7
920.9,869,18.1,17.9,99,14.14,58,13.5,298.2,339.4,300.7
920.3,875,18.1,17.8,99,14.10,58,13.5,298.2,339.4,300.7
919.7,880,18.0,17.9,99,14.13,58,13.6,298.2,339.5,300.8
919.1,886,18.0,17.9,99,14.20,59,13.7,298.2,339.7,300.8
918.5,891,18.0,17.9,100,14.22,59,13.7,298.3,339.8,300.8
917.9,897,17.9,17.9,100,14.22,59,13.8,298.3,339.8,300.8
917.3,903,17.9,17.9,100,14.21,59,13.8,298.3,339.8,300.8
916.6,909,17.8,17.8,100,14.15,59,13.8,298.3,339.6,300.9
916.0,915,17.8,17.7,100,14.08,60,13.9,298.3,339.4,300.9
915.3,921,17.8,17.7,99,14.02,60,13.9,298.3,339.3,300.9
914.7,927,17.7,17.6,99,13.99,60,13.9,298.4,339.2,300.9
914.1,933,17.7,17.6,100,14.00,60,13.9,298.4,339.3,300.9
913.4,939,17.7,17.6,100,14.02,60,13.9,298.4,339.4,300.9
912.8,945,17.7,17.6,100,14.05,61,13.9,298.5,339.5,301.0
912.2,951,17.6,17.6,100,14.03,61,13.9,298.5,339.5,301.0
911.5,957,17.6,17.6,100,13.99,61,13.8,298.6,339.4,301.1
910.9,962,17.6,17.5,100,13.98,61,13.8,298.6,339.5,301.1
910.3,968,17.6,17.5,100,14.00,62,13.7,298.7,339.6,301.2
909.7,974,17.6,17.6,100,14.03,62,13.7,298.7,339.7,301.2
909.1,980,17.6,17.6,100,14.04,62,13.7,298.7,339.8,301.3
908.5,985,17.5,17.5,100,14.02,62,13.6,298.8,339.8,301.3
907.9,991,17.5,17.5,100,13.98,63,13.6,298.8,339.7,301.3
907.3,997,17.5,17.5,100,13.97,63,13.5,298.8,339.7,301.3
906.7,1002,17.5,17.5,100,13.98,63,13.4,298.9,339.8,301.4
906.2,1007,17.4,17.4,100,13.97,63,13.4,298.9,339.8,301.4
905.6,1013,17.4,17.4,100,13.95,64,13.3,298.9,339.7,301.4
905.1,1018,17.4,17.4,100,13.94,64,13.3,298.9,339.7,301.4
904.5,1023,17.4,17.4,100,13.93,64,13.2,299.0,339.7,301.5
904.0,1028,17.3,17.3,100,13.92,64,13.2,299.0,339.7,301.5
903.5,1033,17.3,17.3,100,13.90,65,13.1,299.0,339.7,301.5
902.9,1038,17.3,17.3,100,13.89,65,13.1,299.0,339.7,301.5
902.3,1044,17.3,17.3,100,13.88,65,13.0,299.1,339.7,301.6
901.7,1050,17.2,17.2,100,13.86,65,13.0,299.1,339.7,301.6
901.1,1056,17.2,17.2,100,13.84,65,12.9,299.1,339.7,301.6
900.4,1062,17.2,17.2,100,13.82,65,12.9,299.2,339.6,301.6
899.8,1068,17.1,17.1,100,13.79,65,12.9,299.2,339.6,301.7
899.1,1074,17.1,17.1,100,13.73,65,12.8,299.2,339.4,301.7
898.4,1081,17.0,17.0,100,13.71,65,12.8,299.2,339.4,301.7
897.8,1087,17.0,17.0,100,13.71,65,12.8,299.2,339.4,301.7
897.2,1093,17.0,17.0,100,13.73,65,12.8,299.3,339.5,301.8
896.6,1099,17.0,17.0,100,13.69,65,12.8,299.3,339.5,301.8
896.0,1104,16.9,16.8,99,13.53,65,12.7,299.3,339.0,301.7
895.4,1110,16.8,16.5,98,13.32,65,12.7,299.2,338.2,301.6
894.8,1115,16.7,16.4,99,13.25,64,12.7,299.2,338.0,301.5
894.3,1121,16.7,16.5,99,13.35,64,12.7,299.3,338.4,301.7
893.7,1126,16.6,16.3,98,13.14,64,12.7,299.2,337.8,301.6
893.2,1131,16.4,15.7,96,12.67,64,12.7,299.0,336.2,301.3
892.6,1136,16.2,15.5,96,12.53,64,12.7,298.9,335.6,301.2
892.1,1141,16.2,15.8,97,12.75,64,12.7,298.9,336.3,301.2
891.5,1147,16.2,16.0,98,12.90,64,12.7,299.0,336.8,301.3
891.0,1152,16.2,15.9,98,12.85,64,12.8,299.0,336.7,301.3
890.4,1158,16.1,15.9,98,12.85,63,12.8,299.0,336.7,301.3
889.8,1163,16.1,16.0,99,12.98,63,12.8,299.1,337.1,301.4
889.3,1168,16.1,16.1,100,13.08,63,12.8,299.2,337.5,301.5
888.7,1174,16.2,16.2,100,13.13,63,12.8,299.3,337.8,301.6
888.2,1179,16.3,16.3,100,13.25,63,12.8,299.4,338.3,301.8
887.6,1184,16.4,16.4,100,13.33,63,12.8,299.6,338.7,302.0
887.0,1190,16.4,16.4,100,13.35,63,12.8,299.7,338.9,302.1
886.5,1195,16.4,16.3,100,13.30,63,12.8,299.7,338.7,302.1
885.9,1201,16.3,16.2,99,13.19,63,12.8,299.7,338.4,302.0
885.4,1206,16.2,15.9,98,12.97,62,12.8,299.6,337.7,301.9
884.8,1211,15.9,15.6,98,12.70,62,12.8,299.4,336.6,301.7
884.3,1217,15.8,15.4,97,12.51,62,12.8,299.2,336.0,301.5
883.7,1222,15.7,15.3,97,12.46,62,12.8,299.2,335.8,301.5
883.1,1228,15.7,15.3,98,12.46,62,12.8,299.2,335.8,301.5
882.6,1233,15.6,15.4,98,12.54,61,12.7,299.3,336.1,301.5
882.0,1238,15.6,15.5,99,12.62,61,12.7,299.3,336.3,301.6
881.5,1244,15.6,15.5,99,12.63,61,12.7,299.3,336.4,301.6
880.9,1249,15.6,15.3,99,12.54,61,12.6,299.4,336.2,301.6
880.4,1254,15.5,15.2,98,12.42,60,12.6,299.3,335.8,301.6
879.9,1259,15.5,15.0,97,12.31,60,12.5,299.4,335.5,301.6
879.4,1264,15.4,14.8,96,12.15,59,12.5,299.4,335.1,301.5
878.9,1268,15.4,14.7,96,12.07,59,12.4,299.3,334.8,301.5
878.4,1273,15.3,14.8,97,12.12,59,12.3,299.4,335.0,301.5
878.0,1278,15.3,14.8,97,12.15,58,12.3,299.4,335.1,301.6
877.5,1282,15.3,14.7,96,12.08,58,12.2,299.4,334.9,301.6
877.0,1287,15.2,14.6,96,11.97,58,12.2,299.4,334.6,301.5
876.5,1292,15.2,14.6,96,12.00,57,12.1,299.4,334.7,301.6
876.0,1297,15.2,14.7,97,12.09,57,12.0,299.4,335.0,301.6
875.5,1301,15.1,14.7,97,12.12,56,12.0,299.5,335.1,301.6
875.0,1306,15.1,14.7,97,12.07,56,11.9,299.5,335.0,301.7
874.5,1311,15.1,14.5,97,11.98,56,11.9,299.5,334.7,301.6
874.0,1316,15.0,14.4,96,11.89,55,11.8,299.5,334.5,301.6
873.5,1321,15.0,14.3,96,11.80,55,11.7,299.5,334.2,301.6
873.1,1325,15.0,14.2,95,11.73,55,11.7,299.5,334.0,301.6
872.6,1330,14.9,14.1,95,11.64,54,11.6,299.5,333.8,301.6
872.1,1334,14.9,13.9,94,11.52,54,11.6,299.5,333.4,301.6
871.7,1339,14.9,13.7,93,11.40,54,11.6,299.5,333.1,301.6
871.2,1343,14.8,13.5,92,11.26,54,11.5,299.6,332.7,301.6
870.7,1348,14.8,13.3,91,11.09,54,11.5,299.6,332.2,301.6
870.2,1353,14.8,13.0,89,10.89,54,11.5,299.6,331.7,301.5
869.7,1358,14.7,12.8,88,10.72,54,11.4,299.6,331.2,301.5
869.2,1363,14.6,12.7,88,10.68,54,11.4,299.6,331.0,301.5
868.6,1368,14.6,12.8,89,10.74,54,11.4,299.6,331.3,301.5
868.1,1374,14.6,12.9,89,10.85,54,11.4,299.7,331.7,301.6
867.5,1379,14.7,13.0,90,10.89,54,11.4,299.7,331.8,301.7
866.9,1385,14.6,12.7,88,10.69,54,11.4,299.8,331.3,301.7
866.3,1391,14.6,12.2,86,10.38,55,11.4,299.8,330.4,301.6
865.7,1397,14.6,12.0,85,10.25,55,11.4,299.8,330.1,301.7
865.1,1403,14.6,12.1,85,10.29,55,11.4,299.9,330.3,301.7
864.5,1409,14.6,12.1,85,10.33,56,11.4,300.0,330.5,301.8
863.9,1415,14.6,12.2,85,10.38,56,11.4,300.0,330.7,301.9
863.2,1421,14.7,12.2,85,10.42,57,11.4,300.2,331.0,302.0
862.6,1427,14.7,12.1,85,10.36,57,11.4,300.2,330.9,302.1
862.1,1433,14.7,12.1,85,10.35,58,11.4,300.3,330.9,302.1
861.5,1438,14.8,12.3,85,10.51,58,11.4,300.4,331.5,302.3
861.0,1443,14.9,12.5,86,10.66,59,11.4,300.6,332.2,302.5
860.5,1448,14.9,12.5,85,10.66,59,11.4,300.7,332.3,302.7
860.1,1452,15.0,12.5,85,10.64,60,11.4,300.9,332.4,302.8
859.7,1455,15.2,12.5,84,10.68,60,11.4,301.0,332.7,303.0
859.4,1459,15.2,12.6,84,10.74,60,11.4,301.1,333.0,303.1
859.0,1463,15.2,12.7,85,10.82,61,11.4,301.2,333.3,303.1
858.7,1466,15.3,12.9,86,10.95,61,11.4,301.2,333.7,303.2
858.3,1470,15.2,12.9,86,10.98,62,11.4,301.2,333.8,303.2
857.9,1474,15.2,12.7,85,10.85,62,11.4,301.3,333.5,303.2
857.5,1478,15.3,12.5,83,10.71,62,11.4,301.4,333.3,303.4
857.1,1482,15.4,12.5,83,10.71,63,11.4,301.6,333.4,303.5
856.6,1486,15.3,12.8,85,10.90,63,11.4,301.5,333.9,303.5
856.2,1491,15.1,13.2,88,11.19,63,11.4,301.3,334.5,303.4
855.7,1496,14.9,13.6,92,11.49,63,11.3,301.2,335.2,303.2
855.2,1500,14.7,13.8,94,11.69,63,11.3,301.0,335.7,303.2
854.7,1505,14.6,13.8,95,11.71,63,11.3,300.9,335.6,303.1
854.2,1511,14.5,13.6,95,11.57,63,11.3,300.9,335.2,303.0
853.6,1516,14.5,13.3,92,11.34,63,11.3,301.0,334.6,303.0
853.0,1522,14.6,13.1,91,11.15,63,11.4,301.1,334.2,303.1
852.5,1528,14.6,13.0,90,11.08,63,11.4,301.2,334.1,303.2
851.9,1533,14.6,13.0,90,11.11,62,11.4,301.2,334.2,303.2
851.3,1539,14.5,13.1,91,11.22,62,11.4,301.2,334.5,303.2
850.7,1545,14.4,13.3,93,11.32,62,11.4,301.1,334.7,303.2
850.2,1550,14.3,13.3,94,11.36,61,11.5,301.1,334.8,303.1
850.0,1552,14.3,13.3,94,11.36,61,11.5,301.1,334.7,303.1
849.7,1556,14.2,13.3,94,11.35,61,11.5,301.1,334.7,303.1
849.1,1561,14.2,13.3,94,11.35,61,11.6,301.1,334.7,303.1
848.6,1566,14.1,13.3,95,11.39,60,11.6,301.1,334.8,303.1
848.1,1571,14.1,13.4,96,11.46,60,11.6,301.0,335.0,303.1
847.6,1576,14.0,13.4,96,11.51,59,11.7,301.0,335.1,303.1
847.1,1581,13.9,13.4,97,11.50,59,11.8,301.0,335.1,303.1
846.6,1586,13.9,13.4,97,11.47,58,11.8,301.0,335.0,303.1
846.1,1591,13.9,13.4,97,11.53,57,11.9,301.0,335.2,303.1
845.6,1597,13.8,13.5,98,11.62,57,11.9,301.0,335.4,303.1
845.0,1602,13.7,13.5,98,11.57,56,12.0,301.0,335.3,303.1
844.5,1608,13.7,13.3,97,11.42,56,12.0,301.0,334.9,303.1
843.9,1613,13.7,13.1,96,11.30,55,12.0,301.1,334.6,303.1
843.4,1619,13.7,13.1,96,11.31,54,12.1,301.1,334.6,303.1
842.8,1624,13.6,13.2,97,11.37,54,12.1,301.1,334.8,303.2
842.3,1629,13.6,13.2,97,11.36,53,12.1,301.2,334.9,303.2
841.8,1635,13.6,13.1,96,11.31,53,12.2,301.2,334.8,303.3
841.2,1640,13.7,12.9,95,11.21,52,12.2,301.3,334.6,303.4
840.6,1646,13.7,12.8,95,11.13,51,12.2,301.4,334.4,303.4
840.1,1652,13.6,13.0,96,11.28,51,12.2,301.4,334.8,303.4
839.5,1658,13.5,13.3,99,11.48,50,12.2,301.3,335.3,303.4
838.8,1664,13.4,13.3,99,11.52,50,12.3,301.3,335.4,303.4
838.2,1670,13.3,13.3,100,11.53,49,12.3,301.3,335.5,303.4
837.6,1677,13.4,13.4,100,11.58,49,12.3,301.4,335.7,303.5
836.9,1683,13.3,13.3,100,11.55,49,12.3,301.4,335.7,303.5
836.3,1689,13.2,13.1,99,11.38,48,12.3,301.4,335.1,303.4
835.7,1696,13.1,12.8,98,11.19,48,12.3,301.4,334.6,303.4
835.1,1702,13.1,12.6,97,11.07,48,12.3,301.4,334.2,303.4
834.4,1709,13.1,12.5,96,10.97,47,12.3,301.4,333.9,303.4
833.8,1715,13.0,12.1,94,10.73,47,12.3,301.4,333.3,303.4
833.1,1722,13.2,11.6,90,10.37,47,12.4,301.6,332.5,303.5
832.5,1728,13.3,11.3,87,10.13,47,12.4,301.9,332.1,303.7
831.9,1734,13.4,11.1,86,10.06,47,12.4,302.0,332.0,303.9
831.2,1741,13.4,11.2,87,10.12,48,12.4,302.1,332.2,303.9
830.6,1747,13.3,11.3,88,10.18,48,12.4,302.0,332.4,303.9
830.0,1753,13.2,11.3,88,10.21,48,12.4,302.0,332.5,303.9
829.4,1760,13.2,11.3,88,10.21,48,12.5,302.1,332.5,303.9
828.8,1766,13.2,11.3,88,10.19,49,12.5,302.1,332.5,304.0
828.2,1772,13.2,11.2,88,10.15,49,12.5,302.1,332.4,304.0
827.6,1778,13.1,11.2,88,10.15,49,12.5,302.2,332.4,304.0
827.0,1784,13.1,11.2,89,10.19,50,12.5,302.2,332.6,304.0
826.5,1789,13.0,11.4,90,10.30,50,12.5,302.2,332.9,304.1
825.9,1795,13.0,11.6,92,10.47,51,12.5,302.2,333.4,304.1
825.4,1800,12.8,11.8,93,10.59,51,12.5,302.1,333.6,304.0
825.0,1805,12.7,11.8,94,10.63,52,12.5,302.0,333.7,304.0
824.5,1809,12.6,11.8,94,10.60,53,12.4,302.0,333.6,303.9
824.1,1814,12.6,11.6,94,10.50,53,12.4,302.0,333.3,303.9
823.6,1818,12.6,11.6,93,10.45,54,12.3,302.1,333.2,304.0
823.2,1823,12.7,11.7,94,10.53,54,12.3,302.1,333.5,304.1
822.7,1828,12.7,12.1,96,10.82,55,12.2,302.2,334.5,304.2
822.2,1833,12.6,12.5,99,11.12,56,12.1,302.2,335.3,304.2
821.6,1839,12.5,12.5,100,11.16,56,12.0,302.1,335.4,304.2
821.1,1844,12.3,12.3,100,11.04,57,11.9,302.0,334.9,304.0
820.5,1850,12.2,12.2,100,10.96,58,11.8,302.0,334.6,304.0
