PRES,HGHT,TEMP,DWPT,RELH,MIXR,DRCT,SPED,THTA,THTE,THTV
1014.4,31,21.6,19.9,90,14.57,339,2.7,293.5,335.2,296.1
1013.8,35,21.7,20.4,93,15.05,7,2.8,293.7,336.7,296.3
1013.1,42,21.4,20.3,94,15.01,12,3.1,293.5,336.3,296.1
1012.2,49,21.4,20.3,94,14.99,13,3.3,293.5,336.3,296.1
1011.9,52,21.4,20.1,93,14.83,14,3.6,293.5,335.9,296.1
1011.3,57,21.4,20.0,92,14.71,15,3.9,293.6,335.6,296.2
1010.7,63,21.4,19.9,91,14.62,16,4.2,293.7,335.5,296.2
1010.1,68,21.4,19.8,90,14.54,17,4.4,293.7,335.4,296.3
1009.4,73,21.5,19.8,90,14.52,17,4.7,293.9,335.4,296.4
1008.8,79,21.5,19.7,89,14.45,18,5.0,293.9,335.3,296.5
1008.2,84,21.5,19.6,89,14.42,19,5.3,294.0,335.3,296.5
1007.5,89,21.6,19.7,89,14.44,20,5.6,294.1,335.5,296.6
1006.9,95,21.5,19.6,89,14.43,21,5.8,294.1,335.5,296.7
1006.2,101,21.5,19.6,89,14.39,22,6.1,294.1,335.4,296.7
1005.6,107,21.5,19.6,89,14.42,22,6.4,294.2,335.5,296.7
1004.9,112,21.5,19.6,89,14.45,23,6.6,294.2,335.6,296.8
1004.2,118,21.4,19.6,89,14.48,24,6.9,294.2,335.8,296.8
1003.6,124,21.3,19.6,90,14.45,24,7.1,294.1,335.5,296.7
1002.9,130,21.1,19.6,91,14.42,25,7.4,294.0,335.3,296.5
1002.3,135,21.1,19.6,91,14.49,25,7.6,294.0,335.5,296.6
1001.7,140,21.1,19.5,91,14.43,26,7.8,294.1,335.4,296.6
1001.1,145,21.1,19.3,90,14.24,27,8.0,294.2,335.0,296.7
1000.5,151,21.4,19.3,88,14.23,27,8.2,294.5,335.4,297.1
1000.0,155,21.6,19.3,87,14.22,27,8.2,294.8,335.6,297.3
999.9,156,21.6,19.3,86,14.21,27,8.3,294.8,335.6,297.3
999.3,161,21.6,19.2,86,14.15,28,8.5,294.8,335.5,297.3
998.7,166,21.6,19.3,87,14.21,28,8.6,294.8,335.7,297.3
998.1,171,21.5,19.3,87,14.28,29,8.8,294.8,335.9,297.4
997.5,177,21.5,19.3,87,14.27,29,8.9,294.8,335.9,297.4
996.8,183,21.4,19.2,87,14.22,29,9.0,294.8,335.7,297.3
996.2,188,21.3,19.2,88,14.19,30,9.1,294.8,335.6,297.3
995.5,194,21.3,19.2,88,14.20,30,9.2,294.8,335.7,297.3
994.9,199,21.2,19.2,88,14.21,31,9.2,294.8,335.7,297.3
994.3,204,21.2,19.2,88,14.22,31,9.3,294.8,335.7,297.3
993.7,210,21.1,19.2,89,14.25,31,9.3,294.8,335.8,297.3
993.1,215,21.1,19.2,89,14.28,31,9.4,294.8,335.9,297.3
992.5,220,21.0,19.3,90,14.34,32,9.4,294.8,336.0,297.4
991.9,225,21.0,19.3,90,14.36,32,9.4,294.8,336.1,297.4
991.3,231,20.9,19.3,90,14.37,32,9.4,294.8,336.1,297.4
990.6,237,20.9,19.3,91,14.37,33,9.5,294.8,336.1,297.3
989.9,243,20.8,19.3,91,14.34,33,9.5,294.8,336.0,297.3
989.2,249,20.8,19.2,91,14.27,33,9.5,294.8,335.9,297.3
988.5,256,20.7,19.2,91,14.28,34,9.5,294.8,335.9,297.3
987.7,262,20.6,19.2,92,14.32,34,9.5,294.8,336.0,297.4
987.0,269,20.6,19.2,92,14.33,34,9.5,294.8,336.0,297.3
986.2,275,20.5,19.2,92,14.34,35,9.6,294.8,336.0,297.3
985.5,282,20.4,19.2,93,14.32,35,9.6,294.8,335.9,297.3
984.7,288,20.3,19.1,93,14.27,35,9.6,294.8,335.8,297.3
984.0,295,20.3,19.0,92,14.21,36,9.7,294.8,335.6,297.3
983.3,301,20.3,18.9,92,14.15,36,9.7,294.8,335.5,297.3
982.5,308,20.3,18.9,92,14.13,36,9.8,294.9,335.5,297.4
981.8,314,20.2,18.9,92,14.14,36,9.8,294.9,335.6,297.4
981.1,321,20.2,18.9,92,14.14,36,9.9,294.9,335.6,297.4
980.3,327,20.1,18.8,92,14.09,37,10.0,294.9,335.5,297.4
979.6,334,20.0,18.8,92,14.04,37,10.1,294.9,335.3,297.4
978.9,340,20.0,18.7,93,14.02,37,10.2,294.9,335.2,297.4
978.3,345,19.9,18.7,93,14.01,37,10.2,294.9,335.2,297.4
977.7,351,19.9,18.7,93,14.00,37,10.3,294.9,335.2,297.4
977.1,356,19.8,18.7,93,14.02,37,10.4,294.9,335.2,297.4
976.5,361,19.8,18.8,94,14.08,38,10.5,294.9,335.4,297.4
975.9,366,19.7,18.8,94,14.12,38,10.6,294.9,335.5,297.4
975.4,371,19.7,18.8,95,14.12,38,10.7,294.9,335.5,297.4
974.8,376,19.6,18.8,95,14.13,38,10.8,294.9,335.6,297.4
974.3,381,19.6,18.8,95,14.14,38,10.9,294.9,335.6,297.4
973.8,386,19.5,18.8,95,14.14,38,11.0,294.9,335.6,297.4
973.2,390,19.5,18.7,95,14.12,38,11.1,294.9,335.5,297.4
972.7,395,19.4,18.7,95,14.06,38,11.1,294.9,335.3,297.4
972.2,400,19.4,18.6,95,13.97,38,11.2,294.9,335.1,297.4
971.7,404,19.4,18.5,95,13.94,39,11.2,294.9,335.0,297.4
971.2,408,19.3,18.5,95,13.94,39,11.2,294.9,335.0,297.4
970.7,413,19.3,18.5,95,13.93,39,11.3,294.9,335.0,297.4
970.2,417,19.3,18.4,95,13.87,39,11.3,294.9,334.8,297.4
969.7,421,19.2,18.3,94,13.77,39,11.3,295.0,334.6,297.4
969.2,426,19.2,18.1,93,13.65,39,11.3,295.0,334.3,297.4
968.7,431,19.3,18.1,93,13.62,39,11.3,295.1,334.3,297.5
968.1,436,19.2,18.2,94,13.67,39,11.3,295.1,334.4,297.5
967.6,441,19.1,18.2,94,13.70,39,11.2,295.1,334.5,297.5
967.0,446,19.1,18.1,94,13.66,39,11.2,295.1,334.4,297.5
966.4,451,19.1,18.0,94,13.60,39,11.2,295.1,334.3,297.5
965.8,456,19.1,18.0,94,13.56,39,11.1,295.1,334.2,297.5
965.2,461,19.0,18.0,94,13.55,39,11.1,295.2,334.2,297.6
964.7,466,19.0,18.0,94,13.60,39,11.0,295.2,334.4,297.6
964.1,471,19.0,18.0,94,13.63,38,11.0,295.2,334.5,297.6
963.6,476,18.9,18.0,94,13.62,38,10.9,295.2,334.4,297.6
963.0,481,18.9,18.0,95,13.62,38,10.9,295.2,334.4,297.6
962.4,486,18.8,18.0,95,13.65,38,10.8,295.2,334.5,297.6
961.9,491,18.8,18.0,96,13.66,38,10.8,295.2,334.5,297.6
961.3,496,18.7,18.0,96,13.64,38,10.7,295.2,334.5,297.6
960.8,501,18.7,18.0,96,13.60,38,10.7,295.2,334.4,297.6
960.2,506,18.6,17.9,96,13.57,37,10.7,295.2,334.3,297.6
959.7,511,18.6,17.9,96,13.57,37,10.6,295.2,334.3,297.6
959.1,516,18.5,17.9,96,13.59,37,10.6,295.2,334.3,297.6
958.6,521,18.4,17.9,97,13.60,37,10.6,295.1,334.3,297.5
958.1,525,18.4,17.9,97,13.62,37,10.6,295.1,334.4,297.5
957.6,530,18.4,18.0,98,13.66,37,10.6,295.1,334.5,297.6
957.1,535,18.3,18.0,98,13.69,37,10.6,295.1,334.6,297.6
956.5,539,18.3,18.0,98,13.68,37,10.6,295.1,334.5,297.6
956.0,544,18.2,17.9,98,13.66,37,10.6,295.1,334.5,297.6
955.4,549,18.2,17.9,99,13.67,37,10.6,295.1,334.5,297.6
954.8,554,18.1,17.9,99,13.68,37,10.6,295.2,334.6,297.6
954.3,560,18.1,17.9,99,13.67,37,10.6,295.1,334.5,297.6
953.7,565,18.0,17.9,99,13.67,37,10.6,295.2,334.5,297.6
953.1,570,18.0,17.9,99,13.65,37,10.6,295.2,334.5,297.6
952.5,576,18.0,17.8,99,13.63,38,10.6,295.2,334.4,297.6
951.9,581,17.9,17.8,99,13.62,38,10.6,295.2,334.4,297.6
951.3,587,17.9,17.8,100,13.63,39,10.6,295.2,334.5,297.6
950.7,592,17.8,17.8,100,13.64,39,10.6,295.2,334.5,297.6
950.0,598,17.8,17.8,100,13.60,40,10.6,295.2,334.4,297.6
949.4,604,17.7,17.7,100,13.57,40,10.5,295.2,334.3,297.6
948.7,610,17.7,17.7,100,13.56,41,10.5,295.3,334.3,297.7
948.1,616,17.7,17.7,100,13.53,41,10.5,295.3,334.3,297.7
947.4,622,17.6,17.6,100,13.52,42,10.4,295.3,334.3,297.7
946.8,628,17.6,17.6,100,13.48,43,10.4,295.4,334.2,297.7
946.1,633,17.7,17.7,100,13.55,43,10.4,295.5,334.6,297.9
945.5,639,17.7,17.7,100,13.61,44,10.3,295.5,334.8,298.0
944.9,644,17.7,17.7,100,13.61,45,10.3,295.6,334.8,298.0
944.3,650,17.7,17.7,100,13.60,46,10.3,295.6,334.9,298.0
943.7,655,17.7,17.7,100,13.60,46,10.2,295.7,334.9,298.1
943.2,660,17.6,17.6,100,13.58,47,10.2,295.7,334.9,298.1
942.6,665,17.6,17.6,100,13.58,48,10.1,295.7,334.9,298.1
942.1,670,17.6,17.6,100,13.57,49,10.1,295.7,334.9,298.2
941.5,675,17.6,17.6,100,13.57,49,10.1,295.8,335.0,298.2
941.0,680,17.6,17.6,100,13.56,50,10.0,295.8,335.0,298.2
940.5,685,17.6,17.6,100,13.55,51,10.0,295.8,335.0,298.2
940.0,689,17.5,17.5,100,13.53,52,10.0,295.9,335.0,298.3
939.5,694,17.5,17.5,100,13.52,52,10.0,295.9,334.9,298.3
939.0,698,17.5,17.5,100,13.51,53,10.0,295.9,334.9,298.3
938.5,703,17.5,17.5,100,13.50,54,10.0,295.9,334.9,298.3
938.0,707,17.4,17.4,100,13.48,54,10.0,295.9,334.9,298.3
937.5,712,17.4,17.4,100,13.46,55,10.0,296.0,334.9,298.3
937.0,716,17.4,17.4,100,13.46,55,10.0,296.0,334.9,298.4
936.5,721,17.4,17.4,100,13.45,55,10.0,296.0,334.9,298.4
936.1,725,17.4,17.4,100,13.45,56,10.0,296.0,334.9,298.4
935.6,729,17.3,17.3,100,13.43,56,10.0,296.1,334.9,298.4
935.2,733,17.3,17.3,100,13.42,56,10.0,296.1,334.9,298.5
934.8,737,17.3,17.3,100,13.40,56,10.0,296.1,334.9,298.5
934.4,740,17.3,17.3,100,13.39,56,10.0,296.1,334.8,298.5
934.0,744,17.2,17.2,100,13.37,56,10.1,296.1,334.8,298.5
933.6,748,17.2,17.2,100,13.34,56,10.1,296.1,334.7,298.5
933.2,751,17.2,17.2,100,13.32,56,10.1,296.1,334.7,298.5
932.8,755,17.2,17.2,100,13.32,56,10.1,296.1,334.7,298.5
932.4,759,17.2,17.2,100,13.32,55,10.1,296.2,334.7,298.5
931.9,763,17.2,17.2,100,13.33,55,10.1,296.2,334.8,298.6
931.5,767,17.1,17.1,100,13.30,55,10.1,296.2,334.7,298.6
931.0,771,17.1,17.1,100,13.26,54,10.0,296.2,334.6,298.6
930.6,776,17.0,17.0,100,13.21,54,10.0,296.2,334.4,298.5
930.1,780,16.9,16.9,100,13.16,54,10.0,296.1,334.2,298.5
929.6,784,16.9,16.9,100,13.15,53,9.9,296.2,334.2,298.5
929.1,789,16.8,16.8,100,13.09,53,9.9,296.1,334.0,298.5
928.7,793,16.8,16.8,100,13.06,53,9.9,296.1,333.9,298.4
928.2,797,16.8,16.8,100,13.06,52,9.8,296.2,334.0,298.5
927.8,801,16.8,16.7,100,13.03,52,9.7,296.2,333.9,298.5
927.3,805,16.7,16.7,100,13.01,52,9.7,296.2,333.9,298.5
926.9,809,16.7,16.7,100,12.99,51,9.6,296.2,333.8,298.5
926.5,813,16.7,16.7,100,13.00,51,9.5,296.2,333.9,298.6
926.0,817,16.7,16.7,100,13.04,51,9.5,296.3,334.0,298.6
925.6,821,16.7,16.7,100,13.03,51,9.4,296.3,334.1,298.6
925.1,825,16.7,16.7,100,13.04,51,9.3,296.4,334.1,298.7
925.0,827,16.7,16.7,100,13.04,51,9.3,296.4,334.2,298.7
924.7,830,16.7,16.7,100,13.05,51,9.3,296.4,334.2,298.7
924.3,834,16.7,16.7,100,13.06,51,9.2,296.5,334.3,298.8
923.8,838,16.7,16.7,100,13.06,51,9.1,296.5,334.3,298.8
923.3,842,16.7,16.7,100,13.04,51,9.1,296.5,334.3,298.8
922.9,847,16.7,16.7,100,13.03,51,9.0,296.5,334.3,298.8
922.4,851,16.6,16.6,100,13.01,51,9.0,296.5,334.3,298.9
921.9,855,16.6,16.6,100,12.99,51,8.9,296.5,334.2,298.9
921.5,860,16.6,16.6,100,12.97,51,8.9,296.6,334.2,298.9
921.0,864,16.6,16.6,100,12.98,51,8.8,296.6,334.2,298.9
920.5,868,16.6,16.6,100,12.98,52,8.8,296.6,334.3,298.9
920.1,873,16.5,16.5,100,12.97,52,8.7,296.7,334.3,299.0
919.6,877,16.5,16.5,100,12.95,52,8.7,296.7,334.2,299.0
919.1,881,16.5,16.5,100,12.94,52,8.7,296.7,334.2,299.0
918.6,886,16.5,16.5,100,12.93,53,8.7,296.7,334.2,299.0
918.1,891,16.4,16.4,100,12.90,53,8.6,296.7,334.1,299.0
917.6,895,16.4,16.4,100,12.87,53,8.6,296.7,334.1,299.0
917.1,900,16.3,16.3,100,12.85,53,8.6,296.7,334.0,299.0
916.6,905,16.3,16.3,100,12.86,53,8.6,296.8,334.1,299.1
916.1,910,16.3,16.3,100,12.86,53,8.5,296.8,334.1,299.1
915.5,915,16.3,16.3,100,12.87,54,8.5,296.9,334.2,299.2
915.0,920,16.3,16.3,100,12.87,54,8.5,296.9,334.3,299.2
914.4,925,16.3,16.3,100,12.84,54,8.5,296.9,334.2,299.2
913.9,930,16.3,16.2,100,12.80,54,8.5,297.0,334.1,299.2
913.4,935,16.3,16.2,100,12.80,54,8.4,297.0,334.2,299.3
912.9,939,16.3,16.2,100,12.79,54,8.4,297.0,334.2,299.3
912.4,944,16.2,16.2,100,12.79,54,8.4,297.1,334.2,299.3
912.0,948,16.2,16.2,100,12.78,54,8.3,297.1,334.2,299.4
911.5,952,16.2,16.2,100,12.78,54,8.3,297.1,334.3,299.4
911.1,956,16.2,16.1,100,12.77,53,8.2,297.1,334.2,299.4
910.7,960,16.1,16.1,100,12.76,53,8.2,297.1,334.2,299.4
910.2,964,16.1,16.1,100,12.74,53,8.1,297.1,334.2,299.4
909.8,968,16.1,16.1,100,12.75,53,8.1,297.2,334.2,299.4
909.4,972,16.1,16.1,100,12.78,53,8.0,297.2,334.4,299.5
909.1,975,16.1,16.1,100,12.77,52,8.0,297.2,334.4,299.5
908.7,979,16.1,16.1,100,12.76,52,7.9,297.3,334.4,299.5
908.3,982,16.1,16.1,100,12.77,52,7.9,297.3,334.5,299.6
907.9,986,16.1,16.1,100,12.78,52,7.8,297.3,334.5,299.6
907.6,989,16.1,16.1,100,12.75,51,7.8,297.3,334.4,299.6
907.2,993,16.1,16.1,100,12.76,51,7.7,297.4,334.5,299.6
906.9,996,16.1,16.1,100,12.77,51,7.7,297.4,334.6,299.7
906.5,999,16.1,16.1,100,12.77,50,7.6,297.4,334.6,299.7
906.2,1002,16.1,16.1,100,12.77,50,7.6,297.5,334.6,299.7
905.8,1006,16.0,16.0,100,12.76,50,7.6,297.5,334.6,299.8
905.4,1009,16.0,16.0,100,12.76,49,7.5,297.5,334.7,299.8
905.1,1013,16.0,16.0,100,12.75,49,7.5,297.5,334.6,299.8
904.7,1017,15.9,15.9,100,12.69,49,7.5,297.5,334.4,299.7
904.3,1020,15.7,15.7,100,12.53,49,7.4,297.3,333.8,299.5
903.8,1024,15.6,15.6,100,12.41,49,7.4,297.2,333.3,299.4
903.4,1028,15.6,15.5,99,12.36,48,7.4,297.3,333.2,299.5
903.0,1032,15.6,15.5,99,12.32,48,7.4,297.3,333.1,299.5
902.6,1036,15.6,15.4,99,12.29,48,7.4,297.3,333.1,299.5
902.3,1039,15.6,15.6,100,12.42,48,7.4,297.4,333.5,299.6
901.9,1043,15.6,15.6,100,12.46,48,7.5,297.4,333.7,299.6
901.5,1046,15.6,15.6,100,12.44,48,7.5,297.4,333.6,299.6
901.2,1049,15.5,15.5,100,12.37,48,7.5,297.4,333.4,299.6
900.9,1052,15.5,15.4,99,12.29,48,7.5,297.4,333.2,299.6
900.6,1055,15.4,15.3,99,12.23,48,7.6,297.3,333.0,299.5
900.2,1058,15.4,15.3,99,12.25,48,7.6,297.3,333.0,299.5
900.0,1061,15.4,15.3,100,12.27,48,7.7,297.3,333.1,299.5
899.7,1064,15.4,15.3,100,12.26,48,7.7,297.4,333.1,299.6
899.4,1067,15.3,15.3,100,12.22,48,7.8,297.3,332.9,299.5
899.1,1069,15.3,15.2,100,12.20,48,7.8,297.3,332.8,299.5
898.8,1072,15.3,15.2,100,12.21,48,7.9,297.3,332.9,299.5
898.4,1076,15.2,15.2,100,12.21,48,7.9,297.3,332.9,299.5
898.1,1079,15.2,15.2,100,12.20,48,8.0,297.4,332.9,299.5
897.7,1082,15.2,15.2,100,12.20,48,8.0,297.4,332.9,299.6
897.3,1086,15.2,15.2,100,12.20,48,8.1,297.4,333.0,299.6
897.0,1089,15.2,15.2,100,12.16,47,8.1,297.4,332.9,299.6
896.6,1093,15.2,15.1,100,12.14,47,8.1,297.4,332.8,299.6
896.3,1096,15.1,15.1,100,12.13,47,8.1,297.5,332.8,299.6
895.9,1099,15.1,15.1,100,12.13,46,8.1,297.5,332.8,299.6
895.6,1102,15.1,15.1,100,12.12,46,8.2,297.5,332.8,299.6
895.3,1105,15.1,15.0,100,12.10,46,8.1,297.5,332.7,299.6
895.0,1108,15.1,15.0,100,12.08,45,8.1,297.5,332.7,299.6
894.7,1111,15.0,15.0,100,12.07,45,8.1,297.5,332.7,299.7
894.3,1114,15.0,15.0,100,12.06,45,8.1,297.5,332.7,299.7
894.0,1117,15.0,15.0,100,12.06,44,8.1,297.5,332.7,299.7
893.7,1120,15.0,15.0,100,12.06,44,8.0,297.6,332.7,299.7
893.4,1123,15.0,14.9,100,12.03,44,8.0,297.6,332.6,299.7
893.1,1126,15.0,14.9,100,12.02,44,7.9,297.6,332.6,299.7
892.8,1129,14.9,14.9,100,12.02,43,7.9,297.6,332.6,299.7
892.5,1132,14.9,14.9,100,12.02,43,7.9,297.6,332.6,299.7
892.1,1135,14.9,14.9,100,12.02,43,7.8,297.6,332.7,299.8
891.8,1138,14.9,14.9,100,12.00,43,7.8,297.6,332.6,299.8
891.5,1142,14.9,14.8,100,11.99,43,7.8,297.6,332.6,299.8
891.1,1145,14.9,14.8,100,11.98,43,7.7,297.7,332.6,299.8
890.8,1148,14.9,14.8,100,11.99,43,7.7,297.7,332.6,299.8
890.4,1152,14.9,14.9,100,12.02,43,7.7,297.7,332.8,299.9
890.1,1155,14.9,14.9,100,12.04,43,7.7,297.8,332.9,299.9
889.7,1158,14.9,14.9,100,12.07,43,7.7,297.8,333.0,300.0
889.4,1162,14.9,14.9,100,12.10,44,7.8,297.9,333.2,300.1
889.0,1165,15.0,15.0,100,12.12,44,7.8,298.0,333.4,300.1
888.7,1168,15.0,14.9,100,12.11,44,7.8,298.0,333.3,300.1
888.3,1172,14.9,14.9,100,12.10,44,7.9,298.0,333.3,300.2
887.9,1175,14.9,14.9,100,12.12,45,8.0,298.0,333.5,300.2
887.5,1179,14.9,14.9,100,12.13,45,8.0,298.1,333.5,300.3
887.1,1183,14.9,14.9,100,12.12,45,8.1,298.1,333.5,300.3
886.7,1187,14.9,14.9,100,12.09,46,8.2,298.1,333.4,300.3
886.3,1191,14.9,14.9,100,12.09,46,8.3,298.1,333.5,300.3
885.9,1195,14.9,14.9,100,12.11,46,8.4,298.2,333.6,300.4
885.5,1199,14.9,14.9,100,12.09,47,8.5,298.2,333.5,300.4
885.1,1203,14.8,14.8,100,12.08,47,8.6,298.2,333.5,300.4
884.6,1207,14.8,14.8,100,12.08,47,8.7,298.3,333.6,300.4
884.2,1212,14.8,14.8,100,12.04,48,8.8,298.3,333.5,300.4
883.7,1216,14.7,14.7,100,12.01,48,8.9,298.2,333.3,300.4
883.2,1221,14.7,14.7,100,11.99,48,8.9,298.2,333.3,300.4
882.7,1226,14.7,14.7,100,11.97,49,9.0,298.3,333.3,300.4
882.2,1230,14.7,14.7,100,11.98,49,9.1,298.3,333.3,300.4
881.7,1235,14.6,14.6,100,11.97,49,9.1,298.3,333.3,300.5
881.2,1240,14.6,14.6,100,11.93,49,9.1,298.3,333.3,300.5
880.7,1245,14.6,14.6,100,11.92,50,9.2,298.4,333.3,300.5
880.2,1250,14.6,14.6,100,11.92,50,9.2,298.4,333.3,300.5
879.7,1255,14.5,14.5,100,11.90,50,9.2,298.4,333.2,300.5
879.2,1260,14.5,14.5,100,11.87,51,9.2,298.4,333.1,300.5
878.7,1265,14.5,14.5,100,11.86,51,9.2,298.4,333.1,300.6
878.1,1270,14.5,14.3,99,11.76,52,9.2,298.5,332.9,300.6
877.6,1275,14.6,14.2,98,11.69,52,9.2,298.6,332.9,300.7
877.1,1280,14.6,14.2,97,11.68,53,9.1,298.7,333.0,300.8
876.5,1285,14.6,14.3,98,11.75,53,9.1,298.8,333.2,300.9
876.0,1290,14.4,14.3,99,11.79,54,9.1,298.7,333.2,300.8
875.5,1295,14.4,14.3,99,11.77,54,9.1,298.6,333.1,300.7
874.9,1301,14.3,14.2,99,11.69,55,9.0,298.7,332.9,300.8
874.4,1306,14.4,14.1,98,11.62,55,9.0,298.8,332.9,300.9
873.8,1311,14.4,14.0,97,11.56,56,8.9,298.9,332.8,300.9
873.3,1317,14.4,13.9,97,11.53,56,8.9,298.9,332.8,301.0
872.7,1322,14.4,13.9,97,11.50,57,8.9,299.0,332.7,301.0
872.2,1327,14.4,13.9,97,11.51,57,8.8,299.0,332.8,301.1
871.6,1333,14.4,13.9,97,11.53,58,8.8,299.0,332.9,301.1
871.0,1338,14.3,13.9,97,11.52,58,8.8,299.0,332.9,301.1
870.5,1344,14.3,13.8,97,11.50,59,8.7,299.0,332.8,301.1
869.9,1349,14.2,13.8,97,11.50,59,8.7,299.0,332.8,301.1
869.4,1354,14.2,13.8,98,11.50,60,8.6,299.1,332.8,301.1
868.8,1360,14.1,13.8,98,11.52,60,8.6,299.1,332.9,301.1
868.3,1365,14.1,13.9,99,11.56,61,8.6,299.1,333.0,301.1
867.8,1370,14.0,14.0,100,11.62,61,8.5,299.0,333.2,301.1
867.2,1376,14.0,14.0,100,11.66,61,8.5,299.1,333.3,301.2
866.7,1381,14.0,14.0,100,11.66,62,8.5,299.1,333.4,301.2
866.1,1386,13.9,13.9,100,11.64,62,8.5,299.1,333.3,301.2
865.6,1391,13.9,13.8,100,11.56,63,8.4,299.1,333.1,301.2
865.0,1397,13.8,13.8,100,11.51,63,8.4,299.1,332.9,301.2
864.5,1402,13.8,13.7,100,11.50,63,8.4,299.1,332.9,301.2
864.0,1407,13.8,13.7,100,11.49,64,8.4,299.1,332.9,301.2
863.5,1412,13.7,13.6,99,11.42,64,8.4,299.1,332.7,301.2
863.0,1417,13.7,13.6,99,11.40,64,8.3,299.1,332.6,301.2
862.5,1422,13.7,13.7,100,11.47,64,8.3,299.2,332.9,301.2
862.0,1427,13.6,13.6,100,11.47,65,8.3,299.2,332.9,301.3
861.4,1432,13.6,13.6,100,11.47,65,8.3,299.3,333.0,301.3
860.9,1437,13.6,13.6,100,11.44,65,8.3,299.3,332.9,301.3
860.4,1442,13.6,13.6,100,11.42,66,8.3,299.3,332.9,301.3
859.8,1448,13.5,13.5,100,11.40,66,8.3,299.3,332.8,301.4
859.3,1453,13.5,13.5,100,11.36,66,8.3,299.3,332.7,301.3
858.8,1458,13.4,13.4,100,11.34,67,8.3,299.3,332.7,301.3
858.2,1464,13.5,13.5,100,11.37,67,8.4,299.4,332.9,301.4
857.7,1469,13.5,13.5,100,11.41,67,8.4,299.5,333.1,301.5
857.2,1474,13.5,13.5,100,11.43,68,8.4,299.6,333.2,301.6
856.7,1479,13.5,13.5,100,11.44,68,8.4,299.6,333.3,301.7
856.1,1484,13.5,13.5,100,11.42,68,8.4,299.6,333.2,301.7
855.6,1490,13.4,13.4,100,11.37,69,8.5,299.6,333.1,301.7
855.0,1495,13.4,13.4,100,11.35,69,8.5,299.6,333.0,301.7
854.5,1501,13.3,13.3,100,11.33,69,8.5,299.6,333.0,301.7
853.9,1506,13.3,13.3,100,11.33,70,8.5,299.7,333.0,301.7
853.4,1512,13.3,13.3,100,11.30,70,8.6,299.7,333.0,301.7
852.8,1517,13.2,13.2,100,11.27,70,8.6,299.7,332.9,301.7
852.3,1522,13.2,13.1,99,11.21,70,8.6,299.7,332.8,301.8
851.7,1528,13.2,13.1,100,11.22,71,8.6,299.8,332.8,301.8
851.2,1533,13.1,13.1,100,11.22,71,8.6,299.8,332.8,301.8
850.6,1539,13.1,13.1,100,11.20,71,8.6,299.8,332.8,301.8
850.1,1544,13.0,13.0,100,11.18,71,8.6,299.8,332.7,301.8
850.0,1545,13.0,13.0,100,11.18,71,8.6,299.8,332.7,301.8
849.5,1550,13.0,13.0,100,11.16,71,8.6,299.8,332.7,301.8
849.0,1555,13.0,13.0,100,11.14,71,8.6,299.8,332.7,301.8
848.4,1561,12.9,12.9,100,11.12,71,8.5,299.8,332.6,301.9
847.8,1567,12.9,12.9,100,11.12,71,8.5,299.9,332.7,301.9
847.2,1573,12.9,12.9,100,11.13,71,8.5,300.0,332.8,302.0
846.6,1578,12.9,12.9,100,11.13,71,8.4,300.0,332.9,302.0
846.0,1584,12.9,12.9,100,11.14,71,8.4,300.1,333.0,302.1
845.5,1590,12.9,12.9,100,11.14,70,8.3,300.1,333.0,302.1
844.9,1596,12.9,12.9,100,11.13,70,8.2,300.2,333.0,302.2
844.3,1602,12.9,12.9,100,11.11,70,8.2,300.2,333.0,302.2
843.7,1608,12.8,12.8,100,11.10,69,8.1,300.2,333.0,302.2
843.0,1614,12.8,12.8,100,11.09,69,8.0,300.2,333.0,302.3
842.4,1621,12.8,12.8,100,11.09,68,7.9,300.3,333.0,302.3
841.8,1627,12.7,12.7,100,11.06,67,7.9,300.3,333.0,302.3
841.1,1634,12.6,12.6,100,10.99,67,7.8,300.3,332.7,302.2
840.5,1640,12.6,12.6,100,10.94,66,7.7,300.2,332.6,302.2
839.8,1647,12.5,12.5,100,10.94,65,7.6,300.3,332.6,302.3
839.1,1654,12.5,12.5,100,10.92,64,7.5,300.3,332.6,302.3
838.5,1660,12.5,12.5,100,10.90,64,7.4,300.4,332.6,302.3
837.8,1667,12.4,12.4,100,10.88,63,7.3,300.4,332.5,302.3
837.2,1673,12.4,12.3,99,10.79,62,7.3,300.4,332.3,302.3
836.6,1679,12.4,12.1,98,10.70,61,7.2,300.5,332.1,302.4
836.0,1685,12.4,11.9,97,10.51,60,7.1,300.5,331.6,302.4
835.4,1690,12.3,11.8,97,10.46,59,7.1,300.5,331.5,302.4
834.9,1696,12.3,12.0,98,10.65,59,7.0,300.5,332.1,302.5
834.4,1701,12.2,12.2,100,10.80,58,6.9,300.5,332.5,302.5
833.8,1707,12.2,12.2,100,10.79,57,6.9,300.6,332.5,302.5
833.3,1712,12.2,12.1,99,10.71,57,6.8,300.6,332.3,302.5
832.7,1718,12.1,11.8,98,10.50,56,6.7,300.6,331.7,302.5
832.2,1723,12.2,11.5,95,10.31,56,6.7,300.7,331.3,302.6
831.6,1729,12.3,11.3,94,10.19,56,6.6,300.9,331.1,302.7
831.0,1735,12.2,11.2,94,10.10,56,6.5,300.8,330.8,302.7
