PRES,HGHT,TEMP,DWPT,RELH,MIXR,DRCT,SPED,THTA,THTE,THTV
1014.5,31,24.4,17.2,64,12.24,121,3.3,296.3,331.9,298.5
1014.1,34,24.4,17.4,65,12.43,139,2.4,296.3,332.4,298.5
1013.5,39,23.6,17.4,68,12.42,149,2.3,295.6,331.6,297.8
1012.8,45,23.3,17.4,69,12.43,153,2.4,295.4,331.3,297.6
1012.3,49,23.3,17.3,69,12.38,153,2.6,295.4,331.1,297.6
1011.7,55,23.2,17.2,69,12.27,152,2.7,295.4,330.8,297.5
1011.2,59,23.1,17.1,69,12.18,152,2.9,295.3,330.5,297.5
1010.7,64,23.1,17.0,69,12.12,151,3.0,295.3,330.3,297.4
1010.1,68,23.0,16.9,68,12.08,151,3.2,295.3,330.2,297.5
1009.6,73,23.0,16.9,68,12.05,151,3.3,295.3,330.2,297.5
1009.1,77,23.0,16.9,68,12.06,151,3.4,295.4,330.2,297.5
1008.6,82,23.1,17.0,68,12.17,150,3.6,295.5,330.7,297.7
1008.1,86,23.2,17.0,68,12.16,150,3.7,295.6,330.8,297.8
1007.6,90,23.1,16.8,68,12.06,150,3.8,295.6,330.5,297.8
1007.1,94,23.1,16.9,68,12.07,150,3.9,295.7,330.6,297.8
1006.7,98,23.0,16.7,68,11.99,149,3.9,295.5,330.2,297.7
1006.2,103,22.9,16.7,68,11.99,149,4.0,295.5,330.2,297.6
1005.7,107,22.8,16.8,69,12.06,149,4.1,295.5,330.4,297.6
1005.1,112,22.7,16.8,69,12.05,148,4.1,295.5,330.3,297.6
1004.6,116,22.6,16.7,69,12.00,148,4.2,295.4,330.0,297.5
1004.0,121,22.7,16.9,70,12.11,147,4.3,295.5,330.5,297.6
1003.5,126,22.6,16.8,70,12.08,147,4.3,295.4,330.3,297.6
1002.9,131,22.4,16.7,70,12.00,147,4.4,295.3,330.0,297.5
1002.2,137,22.4,16.7,70,12.01,147,4.4,295.3,330.1,297.5
1001.6,142,22.4,16.7,71,12.06,146,4.5,295.4,330.2,297.5
1000.9,148,22.4,16.8,71,12.14,146,4.5,295.5,330.6,297.6
1000.3,154,22.5,16.9,71,12.17,146,4.5,295.6,330.8,297.7
1000.0,156,22.4,16.8,71,12.12,146,4.6,295.5,330.6,297.7
999.6,160,22.3,16.7,71,12.04,146,4.6,295.5,330.3,297.6
999.0,165,22.1,16.7,71,12.02,146,4.6,295.4,330.1,297.5
998.3,171,22.1,16.7,72,12.07,146,4.7,295.4,330.2,297.5
997.7,176,22.0,16.7,72,12.10,146,4.7,295.3,330.3,297.5
997.0,182,21.9,16.8,72,12.14,146,4.7,295.3,330.4,297.5
996.4,187,21.9,16.7,73,12.12,146,4.8,295.3,330.4,297.5
995.8,193,21.8,16.6,72,12.05,146,4.8,295.3,330.1,297.5
995.2,198,21.8,16.6,72,11.99,146,4.9,295.3,330.0,297.4
994.5,204,21.7,16.5,72,11.98,147,4.9,295.3,329.9,297.5
993.9,209,21.7,16.6,73,12.01,147,4.9,295.3,330.0,297.5
993.3,215,21.6,16.6,73,12.01,147,4.9,295.3,330.0,297.4
992.7,220,21.5,16.5,73,11.99,148,5.0,295.3,330.0,297.4
992.1,225,21.5,16.5,73,12.00,148,5.0,295.3,330.0,297.4
991.5,230,21.5,16.6,74,12.04,148,5.0,295.3,330.1,297.5
991.0,235,21.4,16.6,74,12.07,148,5.0,295.3,330.2,297.5
990.4,240,21.4,16.5,74,12.01,149,5.0,295.3,330.0,297.5
989.8,245,21.3,16.4,73,11.93,149,5.0,295.3,329.8,297.5
989.3,250,21.3,16.3,73,11.86,149,5.0,295.4,329.6,297.5
988.7,255,21.3,16.2,73,11.82,149,4.9,295.4,329.5,297.5
988.1,260,21.2,16.2,73,11.80,150,4.9,295.4,329.5,297.5
987.5,265,21.2,16.2,73,11.78,150,4.9,295.4,329.4,297.5
987.0,270,21.1,16.2,73,11.80,150,4.9,295.4,329.5,297.5
986.4,275,21.1,16.2,74,11.85,150,4.8,295.4,329.6,297.5
985.8,280,21.0,16.2,74,11.85,150,4.8,295.4,329.6,297.5
985.2,285,21.0,16.2,74,11.84,150,4.8,295.4,329.6,297.5
984.7,290,20.9,16.2,74,11.85,150,4.7,295.4,329.6,297.5
984.1,295,20.9,16.2,75,11.87,150,4.7,295.4,329.7,297.5
983.6,300,20.8,16.2,75,11.86,150,4.6,295.4,329.6,297.5
983.1,304,20.8,16.2,75,11.86,149,4.6,295.4,329.6,297.5
982.6,308,20.7,16.3,76,11.91,149,4.6,295.3,329.8,297.5
982.2,313,20.7,16.3,76,11.98,149,4.5,295.3,330.0,297.5
981.7,317,20.6,16.4,77,12.04,149,4.5,295.3,330.1,297.5
981.3,320,20.6,16.4,77,12.06,148,4.5,295.3,330.1,297.4
980.8,324,20.5,16.4,77,12.03,148,4.5,295.3,330.1,297.4
980.4,328,20.5,16.3,77,12.00,148,4.4,295.3,330.0,297.4
979.9,332,20.5,16.3,77,11.99,147,4.4,295.3,330.0,297.5
979.4,337,20.4,16.3,77,12.02,147,4.4,295.3,330.1,297.5
979.0,341,20.4,16.4,78,12.05,147,4.4,295.3,330.1,297.5
978.5,345,20.3,16.4,78,12.05,147,4.4,295.3,330.1,297.4
978.0,350,20.3,16.4,78,12.04,147,4.4,295.3,330.1,297.4
977.5,354,20.2,16.3,78,12.04,146,4.4,295.3,330.1,297.4
977.0,358,20.2,16.3,79,12.04,146,4.4,295.3,330.1,297.4
976.5,362,20.2,16.3,78,12.02,146,4.4,295.3,330.0,297.4
976.0,367,20.1,16.3,79,12.01,146,4.5,295.3,330.0,297.4
975.6,371,20.1,16.3,79,12.00,146,4.5,295.3,330.0,297.4
975.1,375,20.1,16.2,78,11.96,146,4.5,295.3,329.9,297.4
974.7,379,20.0,16.2,78,11.95,146,4.5,295.3,329.8,297.4
974.2,383,20.0,16.2,79,11.98,146,4.5,295.3,329.9,297.5
973.7,387,19.9,16.3,79,12.03,146,4.5,295.3,330.1,297.5
973.3,391,19.9,16.3,80,12.06,146,4.6,295.3,330.2,297.5
972.8,395,19.9,16.3,80,12.07,147,4.6,295.3,330.2,297.5
972.3,399,19.8,16.3,80,12.09,147,4.6,295.3,330.2,297.5
971.9,404,19.8,16.3,80,12.09,147,4.6,295.3,330.2,297.5
971.4,408,19.7,16.3,81,12.10,147,4.6,295.3,330.3,297.5
970.9,412,19.7,16.3,81,12.08,148,4.6,295.3,330.2,297.5
970.5,416,19.6,16.2,81,12.04,148,4.6,295.3,330.1,297.4
970.0,420,19.6,16.2,80,12.00,148,4.6,295.3,330.0,297.4
969.6,424,19.6,16.1,81,11.99,149,4.6,295.3,330.0,297.4
969.1,428,19.5,16.2,81,12.00,149,4.6,295.3,330.0,297.5
968.7,432,19.5,16.1,81,11.98,149,4.6,295.3,329.9,297.5
968.3,436,19.5,16.0,80,11.89,149,4.6,295.3,329.7,297.5
967.8,440,19.5,15.9,80,11.85,150,4.6,295.4,329.6,297.5
967.4,444,19.4,15.9,80,11.84,150,4.6,295.4,329.6,297.5
966.9,448,19.4,16.0,80,11.87,150,4.6,295.4,329.7,297.5
966.4,452,19.3,16.0,81,11.88,151,4.6,295.4,329.7,297.5
966.0,456,19.3,15.9,81,11.85,151,4.6,295.3,329.6,297.4
965.5,460,19.3,15.9,81,11.81,151,4.6,295.4,329.5,297.5
965.1,464,19.2,15.8,81,11.79,151,4.6,295.4,329.4,297.5
964.7,468,19.2,15.9,81,11.82,152,4.6,295.4,329.5,297.5
964.2,472,19.2,15.9,81,11.88,152,4.6,295.4,329.7,297.5
963.8,476,19.1,15.9,81,11.86,152,4.6,295.4,329.6,297.5
963.3,480,19.1,15.8,81,11.82,152,4.5,295.4,329.6,297.5
962.8,484,19.1,15.8,81,11.82,152,4.5,295.4,329.5,297.5
962.4,488,19.0,15.8,82,11.81,152,4.5,295.4,329.5,297.5
961.9,493,19.0,15.8,82,11.79,152,4.5,295.4,329.5,297.5
961.4,497,19.0,15.7,81,11.74,152,4.5,295.4,329.3,297.5
960.9,502,18.9,15.6,81,11.66,152,4.5,295.4,329.1,297.5
960.4,506,18.9,15.5,81,11.58,153,4.5,295.4,328.9,297.5
959.9,510,18.9,15.4,80,11.56,153,4.4,295.4,328.9,297.5
959.4,515,18.8,15.5,81,11.60,153,4.4,295.4,329.0,297.5
959.0,519,18.8,15.5,81,11.63,153,4.4,295.4,329.1,297.5
958.5,523,18.7,15.5,81,11.64,153,4.4,295.4,329.1,297.5
958.0,527,18.7,15.5,82,11.65,153,4.4,295.4,329.1,297.5
957.5,532,18.7,15.5,82,11.67,153,4.3,295.4,329.2,297.5
957.1,536,18.6,15.5,82,11.68,154,4.3,295.4,329.2,297.5
956.6,540,18.6,15.6,83,11.70,154,4.3,295.4,329.3,297.5
956.1,545,18.5,15.6,83,11.72,154,4.3,295.4,329.3,297.5
955.5,550,18.5,15.5,83,11.69,154,4.3,295.4,329.2,297.5
955.0,555,18.4,15.5,83,11.66,155,4.2,295.4,329.1,297.5
954.5,559,18.4,15.4,83,11.63,155,4.2,295.4,329.1,297.5
953.9,564,18.3,15.4,83,11.61,156,4.2,295.4,329.0,297.5
953.4,569,18.3,15.4,83,11.60,156,4.1,295.5,329.0,297.5
952.9,574,18.3,15.4,83,11.59,157,4.1,295.5,329.0,297.5
952.4,578,18.2,15.3,83,11.56,157,4.1,295.5,328.9,297.5
951.9,583,18.2,15.2,83,11.50,158,4.0,295.5,328.7,297.5
951.4,587,18.2,15.1,82,11.43,158,4.0,295.5,328.6,297.5
950.9,592,18.2,15.0,82,11.35,159,4.0,295.5,328.4,297.5
950.4,596,18.2,14.8,81,11.20,160,3.9,295.6,328.0,297.6
949.8,601,18.2,14.4,79,10.92,160,3.9,295.6,327.3,297.6
949.3,606,18.2,13.9,76,10.55,161,3.9,295.7,326.3,297.6
948.8,611,18.3,13.5,74,10.28,162,3.9,295.8,325.7,297.6
948.3,615,18.3,13.2,72,10.11,163,3.9,295.9,325.3,297.7
947.7,620,18.3,13.0,71,9.99,164,3.9,295.9,325.0,297.7
947.2,625,18.3,12.9,71,9.93,165,3.9,296.0,324.9,297.7
946.7,630,18.3,12.8,71,9.86,166,3.9,296.0,324.7,297.8
946.2,634,18.3,12.7,70,9.77,166,3.9,296.0,324.5,297.8
945.6,639,18.2,12.5,69,9.67,167,3.9,296.1,324.3,297.8
945.1,644,18.2,12.4,69,9.62,168,3.9,296.1,324.2,297.8
944.6,648,18.2,12.4,69,9.63,169,4.0,296.2,324.2,297.9
944.1,653,18.2,12.4,69,9.65,170,4.0,296.2,324.3,297.9
943.6,657,18.2,12.4,69,9.62,171,4.1,296.2,324.3,297.9
943.1,662,18.2,12.3,68,9.55,172,4.1,296.2,324.1,298.0
942.6,666,18.2,12.1,68,9.44,172,4.2,296.3,323.9,298.0
942.1,671,18.2,12.0,67,9.39,173,4.3,296.4,323.8,298.1
941.6,676,18.2,12.0,67,9.37,174,4.3,296.4,323.8,298.1
941.1,681,18.2,12.0,67,9.37,174,4.4,296.5,323.8,298.2
940.5,686,18.3,11.9,66,9.35,175,4.5,296.6,323.9,298.2
939.9,691,18.3,11.8,66,9.28,175,4.6,296.6,323.8,298.3
939.4,696,18.4,11.5,64,9.13,176,4.7,296.8,323.5,298.4
938.8,702,18.4,11.2,63,8.95,176,4.8,296.9,323.1,298.5
938.2,707,18.5,11.0,62,8.83,177,4.8,297.0,322.9,298.6
937.6,712,18.5,10.9,61,8.78,177,4.9,297.0,322.8,298.6
937.0,718,18.4,10.9,61,8.76,178,5.0,297.1,322.8,298.6
936.4,723,18.4,10.8,61,8.69,178,5.0,297.1,322.6,298.6
935.9,728,18.4,10.4,60,8.49,178,5.1,297.1,322.0,298.6
935.3,733,18.4,9.8,57,8.17,179,5.1,297.2,321.2,298.6
934.8,738,18.4,9.3,55,7.89,179,5.1,297.3,320.5,298.7
934.3,743,18.5,9.0,54,7.74,179,5.1,297.3,320.2,298.7
933.8,748,18.5,9.0,54,7.72,180,5.2,297.4,320.2,298.8
933.3,752,18.5,9.0,54,7.76,180,5.2,297.4,320.3,298.8
932.8,757,18.4,9.1,54,7.79,180,5.2,297.4,320.4,298.8
932.3,761,18.4,9.1,55,7.82,181,5.1,297.4,320.5,298.8
931.8,766,18.4,9.2,55,7.84,181,5.1,297.5,320.6,298.9
931.3,770,18.4,9.1,55,7.80,182,5.1,297.5,320.5,298.9
930.9,774,18.4,8.9,54,7.69,183,5.1,297.6,320.3,298.9
930.4,779,18.4,8.7,53,7.60,183,5.1,297.6,320.1,299.0
929.9,783,18.4,8.5,53,7.53,184,5.0,297.6,319.9,299.0
929.5,787,18.3,8.3,52,7.42,185,5.0,297.6,319.6,299.0
929.0,791,18.3,8.0,51,7.26,186,5.0,297.7,319.2,299.0
928.5,796,18.3,7.7,50,7.14,187,4.9,297.7,318.9,299.0
928.0,800,18.3,7.6,50,7.07,188,4.9,297.8,318.7,299.0
927.5,805,18.3,7.5,49,7.03,189,4.9,297.8,318.6,299.0
927.0,810,18.3,7.5,49,7.03,190,4.9,297.8,318.7,299.1
926.5,815,18.3,7.5,50,7.05,191,4.9,297.8,318.8,299.1
926.0,819,18.3,7.5,49,7.03,193,4.9,297.9,318.7,299.1
925.5,824,18.2,7.4,49,6.97,194,4.9,297.9,318.6,299.2
925.0,828,18.2,7.2,49,6.92,194,4.9,297.9,318.5,299.2
924.5,833,18.2,7.3,49,6.95,196,4.9,297.9,318.6,299.2
924.0,837,18.2,7.6,50,7.08,198,5.0,298.0,319.0,299.2
923.5,842,18.1,7.9,51,7.25,199,5.0,298.0,319.4,299.3
923.1,846,18.1,8.0,52,7.33,200,5.0,297.9,319.7,299.3
922.6,851,18.0,8.1,52,7.34,201,5.1,297.9,319.7,299.3
922.1,856,18.0,8.1,52,7.37,202,5.1,297.9,319.8,299.3
921.6,860,17.9,8.2,53,7.43,203,5.1,297.9,319.9,299.3
921.0,865,17.9,8.4,54,7.50,204,5.2,297.9,320.2,299.3
920.5,870,17.8,8.6,55,7.65,205,5.2,297.9,320.6,299.3
919.9,875,17.8,9.2,57,7.95,206,5.3,297.9,321.4,299.4
919.4,880,17.7,9.7,59,8.24,206,5.3,297.9,322.3,299.4
918.9,885,17.7,9.9,60,8.34,207,5.3,297.9,322.5,299.4
918.4,890,17.6,9.8,60,8.30,208,5.4,297.9,322.4,299.4
917.9,895,17.6,9.7,60,8.24,208,5.4,298.0,322.3,299.4
917.4,899,17.6,9.6,59,8.20,209,5.4,298.0,322.2,299.5
916.9,904,17.5,9.5,59,8.17,209,5.5,298.0,322.1,299.5
916.4,908,17.5,9.5,59,8.15,209,5.5,298.0,322.1,299.5
916.0,912,17.5,9.5,59,8.14,210,5.5,298.0,322.0,299.5
915.5,917,17.4,9.4,59,8.13,210,5.5,298.0,322.0,299.5
915.0,921,17.4,9.4,59,8.12,210,5.6,298.0,322.0,299.5
914.6,925,17.4,9.3,59,8.08,210,5.6,298.0,321.9,299.5
914.1,930,17.3,9.2,59,8.01,210,5.6,298.0,321.7,299.5
913.6,934,17.3,9.0,58,7.91,210,5.7,298.1,321.5,299.5
913.2,938,17.3,8.7,57,7.74,210,5.7,298.1,321.0,299.5
912.7,943,17.3,8.3,55,7.56,210,5.8,298.2,320.5,299.5
912.2,947,17.3,8.1,55,7.45,210,5.8,298.2,320.3,299.5
911.7,952,17.3,8.1,55,7.43,210,5.9,298.2,320.2,299.6
911.3,956,17.3,8.1,55,7.44,209,5.9,298.2,320.3,299.6
910.8,961,17.2,8.1,55,7.48,209,6.0,298.2,320.4,299.6
910.3,965,17.2,8.2,55,7.53,209,6.0,298.3,320.6,299.6
909.8,970,17.2,8.3,56,7.56,209,6.1,298.3,320.7,299.6
909.2,975,17.1,8.3,56,7.60,208,6.2,298.3,320.8,299.6
908.7,981,17.1,8.4,57,7.63,208,6.2,298.3,320.9,299.7
908.1,986,17.0,8.5,57,7.71,208,6.3,298.3,321.1,299.7
907.5,992,17.0,8.7,58,7.82,208,6.4,298.3,321.4,299.7
906.9,997,17.0,8.8,59,7.85,208,6.4,298.3,321.5,299.7
906.4,1002,16.9,8.7,58,7.81,207,6.5,298.3,321.4,299.7
905.9,1007,16.9,8.7,58,7.81,207,6.5,298.3,321.4,299.7
905.4,1011,16.8,8.8,59,7.87,207,6.6,298.3,321.6,299.7
904.9,1016,16.8,8.9,60,7.95,207,6.6,298.3,321.9,299.8
904.5,1020,16.7,9.0,60,8.01,208,6.6,298.3,322.0,299.8
904.0,1024,16.7,9.1,61,8.03,208,6.6,298.3,322.1,299.8
903.6,1029,16.7,9.1,61,8.07,208,6.6,298.3,322.2,299.8
903.1,1033,16.6,9.3,62,8.14,208,6.6,298.3,322.4,299.8
902.6,1038,16.6,9.5,63,8.28,209,6.6,298.3,322.8,299.8
902.0,1043,16.5,9.7,64,8.41,209,6.5,298.3,323.1,299.8
901.5,1048,16.4,9.8,65,8.48,210,6.5,298.3,323.3,299.8
900.9,1054,16.4,9.9,66,8.55,211,6.4,298.3,323.5,299.8
900.3,1059,16.3,10.0,66,8.61,211,6.4,298.3,323.7,299.8
899.8,1064,16.3,10.0,66,8.60,212,6.3,298.3,323.7,299.8
899.2,1070,16.3,9.9,66,8.54,213,6.2,298.3,323.5,299.9
898.6,1075,16.3,9.8,66,8.50,214,6.1,298.4,323.5,299.9
898.0,1081,16.2,9.8,66,8.48,215,6.0,298.4,323.4,299.9
897.4,1087,16.2,9.7,66,8.47,217,5.9,298.4,323.4,299.9
896.9,1092,16.1,9.7,66,8.47,218,5.8,298.4,323.4,299.9
896.3,1098,16.1,9.7,66,8.48,219,5.7,298.4,323.5,299.9
895.7,1103,16.0,9.7,66,8.48,220,5.6,298.4,323.5,300.0
895.1,1109,16.0,9.7,66,8.47,222,5.5,298.4,323.4,300.0
894.5,1114,15.9,9.6,66,8.41,223,5.4,298.4,323.3,300.0
894.0,1119,15.9,9.4,65,8.30,224,5.3,298.5,323.0,300.0
893.4,1125,15.9,9.0,64,8.08,226,5.2,298.5,322.4,300.0
892.9,1130,15.9,8.4,61,7.76,227,5.1,298.6,321.6,300.0
892.3,1136,16.0,7.6,58,7.36,228,5.1,298.7,320.5,300.0
891.7,1141,16.0,6.8,54,6.95,230,5.0,298.8,319.5,300.0
891.1,1147,16.1,6.0,51,6.59,231,4.9,298.9,318.6,300.1
890.5,1152,16.1,5.4,49,6.34,232,4.8,298.9,317.9,300.1
890.0,1158,16.1,5.1,48,6.19,233,4.8,299.0,317.5,300.1
889.4,1163,16.1,4.5,46,5.95,234,4.7,299.1,316.9,300.1
888.9,1168,16.1,3.5,43,5.52,235,4.7,299.2,315.8,300.2
888.3,1174,16.2,2.5,40,5.16,235,4.6,299.4,315.0,300.3
887.7,1179,16.3,2.0,38,4.98,236,4.6,299.5,314.6,300.4
887.2,1185,16.3,1.9,38,4.96,236,4.5,299.5,314.6,300.4
886.6,1190,16.2,1.9,38,4.97,237,4.5,299.5,314.6,300.4
886.0,1195,16.2,1.9,38,4.96,237,4.5,299.5,314.5,300.4
885.5,1201,16.2,1.7,38,4.88,237,4.4,299.5,314.3,300.4
884.9,1206,16.2,1.3,36,4.74,237,4.4,299.6,314.0,300.5
884.4,1211,16.2,1.0,36,4.66,238,4.4,299.6,313.8,300.5
883.8,1217,16.1,1.0,36,4.64,237,4.3,299.7,313.8,300.5
883.3,1222,16.1,0.8,35,4.60,237,4.3,299.7,313.7,300.5
882.7,1227,16.1,0.6,35,4.52,237,4.3,299.7,313.5,300.6
882.1,1233,16.1,0.4,34,4.47,237,4.2,299.8,313.4,300.6
881.6,1238,16.1,0.4,34,4.46,237,4.2,299.8,313.4,300.6
881.0,1244,16.0,0.4,34,4.46,236,4.1,299.8,313.4,300.6
880.4,1249,16.0,0.3,35,4.45,236,4.1,299.8,313.4,300.6
879.8,1255,15.9,0.3,35,4.45,236,4.0,299.8,313.4,300.7
879.2,1261,15.9,0.3,35,4.45,235,4.0,299.8,313.4,300.7
878.5,1267,15.8,0.3,35,4.44,235,3.9,299.9,313.4,300.7
877.9,1274,15.8,0.2,35,4.42,235,3.9,299.9,313.3,300.7
877.3,1280,15.7,0.2,35,4.41,234,3.8,299.9,313.3,300.7
876.7,1285,15.7,0.1,35,4.40,234,3.8,299.9,313.3,300.7
876.1,1291,15.6,-0.1,34,4.34,233,3.7,299.9,313.1,300.7
875.5,1297,15.6,-0.6,33,4.19,233,3.6,299.9,312.7,300.7
875.0,1302,15.6,-1.4,31,3.96,232,3.6,300.0,312.1,300.7
874.4,1307,15.7,-1.9,30,3.80,231,3.5,300.1,311.8,300.8
873.9,1313,15.7,-2.2,29,3.73,231,3.4,300.2,311.7,300.8
873.3,1318,15.7,-2.4,29,3.66,230,3.4,300.2,311.5,300.9
872.7,1324,15.7,-2.8,28,3.57,229,3.3,300.3,311.3,300.9
872.1,1329,15.6,-3.4,27,3.41,229,3.3,300.3,310.9,300.9
871.5,1335,15.7,-4.5,25,3.15,228,3.2,300.4,310.2,301.0
870.9,1341,15.7,-5.5,23,2.92,227,3.2,300.5,309.6,301.0
870.4,1347,15.7,-5.7,22,2.88,226,3.1,300.5,309.5,301.1
869.8,1352,15.7,-5.5,23,2.91,224,3.1,300.6,309.7,301.1
869.3,1357,15.6,-5.5,23,2.93,223,3.0,300.6,309.7,301.1
868.7,1362,15.6,-5.5,23,2.91,222,3.0,300.6,309.7,301.1
868.2,1367,15.5,-5.7,23,2.87,220,3.0,300.6,309.6,301.1
867.8,1372,15.5,-5.9,22,2.83,219,2.9,300.6,309.4,301.1
867.3,1377,15.5,-6.1,22,2.79,217,2.9,300.6,309.3,301.1
866.8,1381,15.5,-6.3,22,2.76,215,2.9,300.6,309.3,301.1
866.3,1386,15.4,-6.3,22,2.75,213,2.9,300.7,309.3,301.2
865.9,1390,15.4,-6.2,22,2.77,212,2.9,300.7,309.3,301.2
865.4,1395,15.3,-6.2,22,2.78,210,3.0,300.7,309.4,301.2
864.9,1400,15.3,-6.3,22,2.76,208,3.0,300.7,309.3,301.2
864.5,1404,15.3,-6.4,22,2.74,206,3.0,300.7,309.2,301.2
864.0,1409,15.2,-6.6,22,2.69,204,3.1,300.7,309.1,301.1
863.5,1413,15.2,-7.0,21,2.62,202,3.1,300.7,308.9,301.2
863.1,1418,15.2,-7.5,20,2.53,201,3.2,300.7,308.7,301.2
862.6,1422,15.2,-8.1,19,2.41,199,3.2,300.8,308.4,301.2
862.1,1427,15.2,-8.4,19,2.36,198,3.3,300.8,308.3,301.2
861.6,1432,15.1,-8.3,19,2.36,197,3.3,300.8,308.3,301.2
861.1,1437,15.1,-8.4,19,2.36,196,3.4,300.8,308.3,301.2
860.7,1442,15.0,-8.5,19,2.34,195,3.5,300.8,308.2,301.2
860.2,1446,15.0,-8.6,19,2.31,195,3.6,300.8,308.1,301.2
859.7,1451,15.0,-8.8,19,2.30,194,3.6,300.8,308.1,301.2
859.3,1455,14.9,-8.8,19,2.29,194,3.7,300.8,308.1,301.3
858.8,1460,14.9,-8.8,19,2.29,194,3.8,300.8,308.1,301.3
858.4,1464,14.9,-9.0,18,2.26,194,3.9,300.8,308.0,301.3
858.0,1468,14.8,-9.2,18,2.23,194,3.9,300.9,307.9,301.3
857.6,1472,14.8,-9.2,18,2.22,194,4.0,300.9,307.9,301.3
857.2,1476,14.8,-9.1,18,2.24,194,4.1,300.9,308.0,301.3
856.7,1480,14.7,-9.0,19,2.25,195,4.2,300.9,308.0,301.3
856.3,1484,14.7,-9.1,18,2.24,195,4.3,300.9,308.0,301.3
855.9,1489,14.6,-9.3,18,2.21,196,4.4,300.9,307.9,301.3
855.4,1493,14.6,-9.5,18,2.17,196,4.4,300.9,307.8,301.3
854.9,1498,14.6,-9.7,18,2.15,197,4.5,300.9,307.7,301.3
854.5,1502,14.5,-9.8,18,2.13,197,4.6,300.9,307.7,301.3
854.0,1507,14.5,-9.9,17,2.11,198,4.7,300.9,307.6,301.3
853.5,1512,14.5,-10.1,17,2.08,198,4.7,300.9,307.6,301.3
853.0,1517,14.4,-10.2,17,2.07,198,4.8,300.9,307.5,301.3
852.5,1522,14.4,-10.2,17,2.07,198,4.9,300.9,307.5,301.3
852.0,1527,14.3,-10.3,17,2.04,198,4.9,300.9,307.4,301.3
851.5,1532,14.3,-10.6,17,2.00,198,5.0,300.9,307.3,301.3
851.0,1537,14.3,-11.0,16,1.94,198,5.1,301.0,307.2,301.3
850.5,1541,14.2,-11.3,16,1.90,198,5.1,301.0,307.1,301.3
850.1,1546,14.2,-11.3,16,1.90,198,5.1,301.0,307.1,301.3
850.0,1547,14.2,-11.3,16,1.90,197,5.2,301.0,307.1,301.4
849.6,1550,14.2,-11.2,16,1.91,197,5.2,301.0,307.1,301.4
849.1,1555,14.1,-11.2,16,1.91,196,5.2,301.0,307.1,301.4
848.7,1560,14.1,-11.3,16,1.91,195,5.2,301.0,307.1,301.4
848.2,1564,14.0,-11.2,16,1.91,194,5.3,301.0,307.1,301.4
847.7,1569,14.0,-11.3,16,1.90,193,5.3,301.0,307.1,301.3
847.2,1574,13.9,-11.5,16,1.88,192,5.3,301.0,307.0,301.4
846.8,1579,13.9,-11.8,16,1.83,191,5.3,301.0,306.9,301.4
846.3,1584,13.9,-12.5,15,1.72,189,5.4,301.0,306.6,301.4
845.8,1589,13.9,-14.0,13,1.53,188,5.4,301.1,306.1,301.4
845.2,1594,13.9,-15.6,11,1.34,186,5.4,301.2,305.6,301.4
844.7,1599,13.9,-15.9,11,1.31,185,5.5,301.2,305.5,301.5
844.2,1604,13.9,-17.3,10,1.16,183,5.5,301.3,305.1,301.5
843.7,1609,13.9,-18.9,9,1.02,182,5.5,301.4,304.8,301.6
843.2,1614,14.0,-18.9,9,1.02,180,5.6,301.4,304.8,301.6
842.8,1619,13.9,-18.4,9,1.06,178,5.7,301.4,305.0,301.6
842.3,1623,13.9,-18.1,9,1.09,177,5.7,301.5,305.1,301.7
841.8,1628,13.9,-18.0,9,1.10,176,5.8,301.5,305.1,301.7
841.4,1632,13.8,-18.0,9,1.10,174,5.9,301.5,305.1,301.7
841.0,1637,13.8,-18.0,9,1.10,173,6.0,301.5,305.1,301.7
840.5,1641,13.8,-18.0,10,1.11,172,6.1,301.5,305.2,301.7
840.1,1645,13.7,-17.9,10,1.12,171,6.2,301.5,305.2,301.7
839.7,1649,13.7,-17.7,10,1.14,170,6.3,301.5,305.3,301.7
839.3,1654,13.6,-17.4,10,1.17,169,6.3,301.5,305.4,301.7
838.8,1658,13.6,-16.9,10,1.21,168,6.4,301.5,305.5,301.7
838.4,1662,13.6,-16.5,11,1.25,167,6.5,301.5,305.6,301.8
838.0,1666,13.5,-16.4,11,1.27,166,6.6,301.5,305.7,301.8
837.6,1670,13.5,-16.3,11,1.27,166,6.7,301.5,305.7,301.8
837.2,1674,13.5,-16.2,11,1.29,165,6.8,301.5,305.8,301.8
836.8,1678,13.4,-15.9,12,1.32,164,6.9,301.5,305.9,301.8
836.4,1682,13.4,-15.7,12,1.35,164,7.0,301.6,306.0,301.8
836.0,1687,13.4,-15.4,12,1.38,163,7.1,301.6,306.1,301.8
835.6,1691,13.4,-15.3,12,1.40,163,7.1,301.6,306.2,301.9
835.1,1695,13.4,-15.6,12,1.36,162,7.2,301.7,306.1,301.9
834.7,1699,13.5,-17.0,11,1.22,162,7.3,301.8,305.8,302.0
834.2,1704,13.6,-19.0,9,1.02,162,7.3,302.0,305.4,302.1
833.8,1708,13.7,-20.9,7,0.87,161,7.4,302.1,305.0,302.3
833.4,1713,13.8,-22.2,7,0.78,161,7.5,302.3,304.9,302.4
832.9,1717,13.9,-22.3,7,0.77,160,7.5,302.4,305.0,302.6
832.4,1722,14.0,-21.6,7,0.82,160,7.6,302.6,305.3,302.7
832.0,1727,14.0,-21.2,7,0.85,159,7.6,302.6,305.5,302.8
831.5,1732,14.0,-21.2,7,0.85,159,7.7,302.7,305.5,302.9
831.0,1737,14.0,-21.3,7,0.84,159,7.7,302.7,305.6,302.9
830.5,1742,14.0,-21.4,7,0.83,158,7.7,302.8,305.6,302.9
830.0,1747,13.9,-21.5,7,0.83,158,7.8,302.8,305.6,302.9
829.5,1752,13.9,-21.6,7,0.82,158,7.8,302.8,305.6,303.0
