PRES,HGHT,TEMP,DWPT,RELH,MIXR,DRCT,SPED,THTA,THTE,THTV
1013.7,31,27.1,21.2,70,15.81,74,6.1,299.1,345.4,301.9
1013.3,34,26.6,21.5,74,16.18,76,4.4,298.6,345.9,301.5
1012.7,39,26.0,21.3,75,15.93,77,4.3,298.1,344.6,300.9
1012.1,45,25.4,21.0,77,15.70,78,4.4,297.5,343.2,300.3
1011.4,50,25.0,20.8,78,15.49,78,4.7,297.1,342.1,299.9
1010.8,56,24.8,20.7,78,15.36,78,5.0,297.0,341.6,299.7
1010.2,61,24.7,20.5,77,15.19,79,5.3,297.0,341.1,299.7
1009.6,66,24.6,20.2,77,14.96,79,5.5,297.0,340.4,299.6
1009.0,71,24.6,20.0,76,14.78,79,5.7,297.0,339.9,299.6
1008.5,76,24.5,20.0,76,14.73,80,5.9,296.9,339.7,299.6
1008.0,80,24.4,20.0,76,14.75,80,6.1,296.9,339.7,299.5
1007.5,85,24.4,20.0,76,14.75,80,6.3,296.9,339.7,299.6
1007.0,89,24.4,19.9,76,14.69,81,6.4,296.9,339.6,299.6
1006.5,93,24.4,19.9,76,14.70,81,6.6,297.0,339.6,299.6
1006.1,97,24.3,20.0,77,14.80,81,6.7,296.9,339.9,299.6
1005.6,101,24.3,20.1,78,14.88,82,6.8,296.9,340.1,299.6
1005.1,105,24.2,20.1,78,14.88,82,6.9,296.9,340.1,299.6
1004.6,110,24.2,20.0,77,14.80,82,6.9,296.9,339.9,299.6
1004.1,114,24.2,19.9,77,14.70,82,7.0,297.0,339.6,299.6
1003.6,119,24.2,19.8,77,14.61,82,7.0,297.0,339.4,299.6
1003.1,123,24.1,19.7,76,14.55,82,7.0,297.0,339.2,299.6
1002.5,128,24.1,19.6,76,14.44,82,7.0,297.0,338.9,299.6
1001.9,134,24.1,19.4,75,14.28,82,7.0,297.1,338.6,299.6
1001.3,139,24.2,19.3,74,14.20,82,7.0,297.2,338.5,299.7
1000.7,144,24.2,19.3,74,14.21,82,7.0,297.3,338.6,299.8
1000.0,150,24.1,19.3,75,14.27,81,7.0,297.3,338.8,299.8
999.4,155,24.1,19.4,75,14.36,81,7.0,297.3,339.1,299.9
998.8,161,24.1,19.5,76,14.45,81,7.0,297.3,339.3,299.9
998.2,166,24.0,19.5,76,14.46,81,6.9,297.3,339.4,299.9
997.5,172,24.0,19.5,76,14.41,80,6.9,297.3,339.2,299.9
996.9,177,23.9,19.4,76,14.40,80,6.9,297.3,339.2,299.9
996.3,183,23.9,19.5,77,14.50,79,6.9,297.3,339.5,299.9
995.7,188,23.8,19.7,78,14.68,79,6.9,297.4,340.0,300.0
995.0,194,23.8,19.9,78,14.82,78,6.9,297.4,340.5,300.0
994.4,199,23.8,19.9,79,14.84,78,6.9,297.4,340.5,300.0
993.8,204,23.7,19.8,79,14.81,77,6.9,297.4,340.5,300.0
993.3,209,23.7,19.8,79,14.76,76,6.9,297.4,340.3,300.0
992.7,214,23.6,19.7,79,14.72,76,6.9,297.4,340.2,300.0
992.2,219,23.6,19.7,79,14.72,75,6.9,297.4,340.2,300.0
991.6,224,23.6,19.7,79,14.76,75,6.9,297.5,340.4,300.1
991.1,229,23.6,19.8,79,14.79,74,7.0,297.5,340.5,300.1
990.5,234,23.6,19.8,79,14.81,74,7.0,297.5,340.6,300.2
990.0,238,23.6,19.8,79,14.82,73,7.0,297.6,340.7,300.2
989.5,243,23.5,19.8,79,14.82,73,7.1,297.6,340.7,300.2
988.9,248,23.5,19.8,80,14.82,72,7.1,297.6,340.7,300.2
988.4,252,23.5,19.7,80,14.81,72,7.2,297.6,340.7,300.2
987.9,257,23.4,19.7,80,14.81,72,7.2,297.6,340.7,300.2
987.4,262,23.4,19.7,80,14.82,71,7.3,297.6,340.8,300.3
986.8,266,23.4,19.7,80,14.83,71,7.3,297.6,340.8,300.3
986.3,271,23.3,19.7,80,14.82,71,7.4,297.6,340.8,300.3
985.8,276,23.3,19.7,80,14.80,71,7.5,297.6,340.7,300.3
985.3,280,23.2,19.7,80,14.80,70,7.5,297.6,340.7,300.3
984.8,285,23.2,19.7,81,14.81,70,7.6,297.6,340.8,300.3
984.2,289,23.2,19.7,81,14.85,70,7.6,297.7,340.9,300.3
983.7,294,23.1,19.7,81,14.88,70,7.7,297.6,340.9,300.3
983.2,299,23.1,19.7,82,14.90,70,7.7,297.6,341.0,300.3
982.6,304,23.0,19.7,82,14.90,70,7.8,297.7,341.0,300.3
982.1,309,23.0,19.7,82,14.90,69,7.8,297.7,341.0,300.3
981.5,314,23.0,19.7,82,14.89,69,7.9,297.7,341.0,300.3
980.9,319,22.9,19.7,82,14.89,69,7.9,297.7,341.1,300.4
980.3,324,22.9,19.7,82,14.88,69,8.0,297.7,341.0,300.4
979.8,329,22.9,19.7,82,14.86,69,8.0,297.7,341.0,300.4
979.2,335,22.8,19.6,82,14.82,68,8.0,297.8,340.9,300.4
978.6,340,22.8,19.6,82,14.80,68,8.1,297.8,340.9,300.4
978.0,345,22.8,19.5,82,14.78,68,8.1,297.8,340.8,300.4
977.4,350,22.7,19.5,82,14.77,67,8.1,297.8,340.8,300.4
976.8,356,22.7,19.5,82,14.76,67,8.1,297.8,340.8,300.4
976.2,361,22.6,19.5,82,14.73,67,8.1,297.8,340.7,300.4
975.7,366,22.6,19.4,83,14.73,66,8.1,297.8,340.7,300.4
975.1,371,22.5,19.5,83,14.76,66,8.1,297.8,340.8,300.4
974.5,376,22.5,19.5,83,14.80,66,8.1,297.8,340.9,300.5
974.0,381,22.4,19.5,84,14.84,65,8.1,297.8,341.0,300.5
973.4,387,22.4,19.5,84,14.86,65,8.0,297.8,341.1,300.5
972.7,392,22.4,19.6,84,14.88,64,8.0,297.8,341.2,300.5
972.1,398,22.3,19.6,84,14.89,64,8.0,297.8,341.2,300.5
971.5,403,22.2,19.5,85,14.88,64,7.9,297.8,341.2,300.5
970.9,409,22.2,19.5,85,14.85,63,7.9,297.8,341.1,300.5
970.3,414,22.1,19.5,85,14.82,63,7.8,297.8,341.0,300.5
969.6,420,22.1,19.4,85,14.80,62,7.7,297.8,341.0,300.5
969.0,425,22.0,19.4,85,14.80,62,7.7,297.8,341.0,300.5
968.4,431,22.0,19.4,86,14.83,62,7.6,297.8,341.0,300.5
967.8,436,21.9,19.5,86,14.86,61,7.5,297.8,341.1,300.5
967.2,442,21.9,19.5,86,14.87,61,7.4,297.8,341.1,300.5
966.6,447,21.8,19.5,87,14.89,61,7.3,297.8,341.2,300.5
966.0,453,21.8,19.5,87,14.92,60,7.2,297.8,341.3,300.5
965.4,458,21.7,19.5,87,14.91,60,7.1,297.8,341.3,300.5
964.9,463,21.7,19.4,87,14.86,60,7.0,297.8,341.1,300.5
964.3,468,21.6,19.3,87,14.81,59,6.9,297.9,341.0,300.5
963.7,473,21.6,19.3,87,14.80,59,6.8,297.9,341.0,300.5
963.1,479,21.5,19.3,87,14.79,58,6.7,297.9,341.0,300.5
962.6,484,21.5,19.3,87,14.76,58,6.6,297.9,340.9,300.5
962.0,489,21.4,19.2,87,14.75,58,6.5,297.9,340.8,300.5
961.5,494,21.4,19.2,88,14.76,57,6.4,297.9,340.9,300.5
960.9,498,21.4,19.2,88,14.77,57,6.3,297.9,340.9,300.5
960.4,503,21.4,19.2,88,14.77,56,6.3,297.9,341.0,300.6
959.9,508,21.3,19.2,88,14.77,56,6.2,297.9,341.0,300.6
959.5,512,21.3,19.2,88,14.74,55,6.2,297.9,340.9,300.5
959.0,516,21.2,19.1,88,14.71,55,6.1,297.9,340.8,300.5
958.6,520,21.2,19.1,88,14.70,54,6.1,297.9,340.8,300.6
958.1,524,21.2,19.2,88,14.74,53,6.1,298.0,340.9,300.6
957.7,528,21.2,19.2,88,14.76,53,6.1,298.0,341.0,300.6
957.3,531,21.2,19.2,88,14.76,52,6.1,298.0,341.0,300.6
956.9,535,21.1,19.1,88,14.74,51,6.2,298.0,341.0,300.6
956.5,539,21.1,19.1,88,14.71,51,6.2,298.0,340.9,300.7
956.0,543,21.1,19.1,88,14.69,50,6.3,298.0,340.9,300.7
955.5,547,21.1,19.0,88,14.66,50,6.4,298.1,340.8,300.7
955.1,552,21.0,19.0,88,14.60,49,6.5,298.1,340.6,300.7
954.6,556,21.0,18.8,87,14.49,49,6.6,298.1,340.3,300.7
954.1,561,21.0,18.7,87,14.36,48,6.8,298.1,340.0,300.7
953.5,566,21.0,18.6,86,14.27,48,6.9,298.2,339.8,300.7
953.0,570,21.0,18.5,86,14.23,48,7.1,298.2,339.7,300.7
952.5,575,20.9,18.5,86,14.21,48,7.2,298.2,339.7,300.7
951.9,580,20.9,18.5,86,14.20,48,7.4,298.2,339.7,300.8
951.4,585,20.9,18.5,86,14.19,48,7.6,298.2,339.6,300.8
950.9,590,20.8,18.4,86,14.14,48,7.8,298.2,339.5,300.8
950.4,594,20.8,18.3,86,14.07,48,7.9,298.3,339.4,300.8
949.9,599,20.8,18.2,85,14.01,48,8.1,298.3,339.2,300.8
949.4,603,20.8,18.2,85,14.02,49,8.3,298.3,339.2,300.8
948.9,608,20.7,18.3,86,14.05,49,8.5,298.3,339.3,300.8
948.4,612,20.7,18.3,86,14.08,49,8.6,298.3,339.4,300.8
948.0,616,20.7,18.3,86,14.07,50,8.8,298.3,339.4,300.8
947.5,621,20.6,18.2,86,14.05,50,8.9,298.3,339.3,300.8
947.1,625,20.6,18.2,86,14.04,51,9.1,298.3,339.3,300.8
946.6,629,20.5,18.2,86,14.04,51,9.2,298.3,339.3,300.8
946.2,633,20.5,18.2,87,14.04,52,9.3,298.3,339.3,300.8
945.7,637,20.5,18.2,87,14.03,53,9.5,298.3,339.3,300.8
945.3,641,20.4,18.2,87,14.03,53,9.6,298.3,339.3,300.9
944.8,646,20.4,18.2,87,14.04,54,9.7,298.4,339.4,300.9
944.3,650,20.4,18.2,87,14.04,55,9.7,298.3,339.3,300.9
943.8,654,20.3,18.1,87,14.02,55,9.8,298.4,339.3,300.9
943.4,659,20.3,18.1,87,13.97,56,9.9,298.3,339.2,300.8
942.9,663,20.2,18.0,87,13.95,57,10.0,298.3,339.1,300.8
942.4,668,20.2,18.0,87,13.95,58,10.0,298.4,339.1,300.9
941.9,672,20.2,18.0,88,13.96,58,10.1,298.4,339.1,300.9
941.4,676,20.1,18.0,87,13.91,59,10.1,298.4,339.0,300.9
940.9,681,20.1,17.8,87,13.74,60,10.2,298.4,338.6,300.9
940.4,686,20.1,17.5,85,13.50,61,10.2,298.5,337.9,300.9
939.9,690,20.1,17.3,84,13.33,61,10.3,298.5,337.5,300.9
939.4,695,20.1,17.2,83,13.29,62,10.3,298.6,337.5,300.9
938.9,700,20.1,17.2,84,13.29,63,10.3,298.6,337.5,301.0
938.3,705,20.1,17.2,84,13.29,63,10.4,298.6,337.5,301.0
937.8,710,20.0,17.3,84,13.33,64,10.4,298.6,337.6,301.0
937.2,715,20.0,17.3,85,13.36,64,10.4,298.6,337.7,301.0
936.7,720,19.9,17.3,85,13.34,65,10.5,298.6,337.6,301.0
936.1,726,19.9,17.2,85,13.30,65,10.5,298.6,337.5,301.0
935.6,731,19.8,17.1,84,13.26,65,10.5,298.6,337.4,301.0
935.0,736,19.8,17.1,84,13.24,66,10.5,298.6,337.4,301.0
934.5,741,19.8,17.1,85,13.24,66,10.6,298.6,337.4,301.0
933.9,746,19.7,17.1,85,13.24,66,10.6,298.6,337.4,301.0
933.4,751,19.7,17.1,85,13.24,66,10.6,298.6,337.4,301.0
932.9,756,19.6,17.1,85,13.27,66,10.7,298.6,337.5,301.0
932.3,760,19.6,17.1,86,13.31,66,10.7,298.6,337.6,301.0
931.8,765,19.5,17.2,87,13.35,66,10.7,298.6,337.6,301.0
931.3,770,19.4,17.2,87,13.38,66,10.7,298.5,337.7,300.9
930.8,775,19.3,17.2,88,13.39,66,10.7,298.5,337.7,300.9
930.3,779,19.3,17.3,88,13.44,66,10.8,298.5,337.8,300.9
929.8,784,19.2,17.3,89,13.47,66,10.8,298.5,337.9,300.9
929.3,789,19.2,17.3,89,13.49,66,10.8,298.5,337.9,300.9
928.8,793,19.1,17.3,89,13.52,65,10.8,298.5,338.0,300.9
928.3,798,19.1,17.4,90,13.55,65,10.8,298.5,338.1,300.9
927.7,803,19.0,17.3,90,13.55,65,10.8,298.5,338.1,300.9
927.2,808,19.0,17.3,90,13.53,65,10.8,298.5,338.1,300.9
926.7,813,19.0,17.3,90,13.51,65,10.8,298.5,338.0,301.0
926.1,818,18.9,17.3,90,13.51,65,10.8,298.5,338.0,301.0
925.6,823,18.9,17.2,90,13.49,65,10.9,298.6,338.0,301.0
925.0,829,18.8,17.2,90,13.44,65,10.9,298.6,337.8,301.0
924.4,834,18.8,17.0,89,13.33,65,10.9,298.6,337.6,301.0
923.8,840,18.8,16.8,88,13.18,65,10.9,298.6,337.2,301.0
923.2,845,18.8,16.6,87,13.02,65,10.9,298.7,336.8,301.0
922.6,851,18.8,16.5,87,12.92,65,10.9,298.8,336.6,301.1
922.1,856,18.8,16.5,86,12.90,65,10.9,298.8,336.6,301.1
921.5,861,18.8,16.5,87,12.93,65,10.9,298.8,336.7,301.1
921.0,866,18.7,16.5,87,12.96,65,10.9,298.8,336.8,301.1
920.4,871,18.7,16.5,87,12.96,65,10.9,298.8,336.8,301.1
919.9,877,18.6,16.5,87,12.92,65,11.0,298.8,336.7,301.2
919.3,882,18.6,16.4,87,12.90,66,11.0,298.9,336.7,301.2
918.8,887,18.6,16.4,87,12.90,66,11.0,298.9,336.6,301.2
918.2,892,18.5,16.4,87,12.85,66,11.0,298.9,336.6,301.2
917.7,896,18.5,16.3,87,12.78,66,11.0,298.9,336.3,301.2
917.2,901,18.5,16.1,86,12.68,66,11.1,298.9,336.1,301.2
916.7,906,18.5,16.1,86,12.64,66,11.1,299.0,336.0,301.2
916.2,911,18.4,16.1,86,12.64,66,11.1,299.0,336.0,301.2
915.7,915,18.4,16.0,86,12.62,66,11.1,299.0,336.0,301.2
915.2,920,18.4,16.0,86,12.56,66,11.2,299.0,335.8,301.3
914.7,925,18.4,15.8,85,12.47,66,11.2,299.0,335.6,301.3
914.2,929,18.4,15.7,85,12.39,66,11.2,299.1,335.4,301.3
913.7,934,18.3,15.7,84,12.35,66,11.2,299.1,335.3,301.3
913.2,939,18.3,15.7,85,12.35,66,11.2,299.1,335.4,301.3
912.7,944,18.3,15.7,85,12.36,66,11.3,299.1,335.4,301.3
912.1,949,18.2,15.7,85,12.36,66,11.3,299.1,335.4,301.4
911.6,954,18.2,15.7,85,12.39,66,11.3,299.1,335.5,301.4
911.1,959,18.1,15.7,86,12.42,66,11.3,299.1,335.6,301.4
910.5,964,18.1,15.7,86,12.44,65,11.3,299.1,335.6,301.4
910.0,969,18.0,15.8,87,12.47,65,11.3,299.1,335.7,301.3
909.4,974,18.0,15.7,87,12.47,65,11.3,299.1,335.7,301.3
908.9,980,17.9,15.7,87,12.42,65,11.3,299.1,335.5,301.3
908.3,985,17.9,15.6,86,12.35,64,11.3,299.1,335.4,301.4
907.8,990,17.8,15.5,86,12.32,64,11.3,299.1,335.3,301.4
907.3,995,17.8,15.5,86,12.30,64,11.2,299.2,335.3,301.4
906.7,1000,17.8,15.5,87,12.32,64,11.2,299.2,335.3,301.4
906.2,1005,17.7,15.5,87,12.33,63,11.2,299.2,335.4,301.4
905.6,1011,17.7,15.5,87,12.35,63,11.1,299.2,335.4,301.4
905.1,1016,17.6,15.5,88,12.36,63,11.1,299.2,335.5,301.4
904.5,1021,17.6,15.5,88,12.36,63,11.0,299.2,335.5,301.4
904.0,1026,17.5,15.5,88,12.35,63,11.0,299.2,335.4,301.4
903.5,1031,17.5,15.5,88,12.31,63,10.9,299.2,335.3,301.4
903.0,1035,17.4,15.4,88,12.29,63,10.9,299.2,335.2,301.4
902.6,1040,17.4,15.4,88,12.27,63,10.8,299.2,335.2,301.4
902.2,1043,17.4,15.4,88,12.27,63,10.8,299.2,335.3,301.4
901.8,1047,17.4,15.3,87,12.23,63,10.7,299.3,335.2,301.5
901.4,1050,17.5,15.3,87,12.19,63,10.6,299.3,335.2,301.5
901.1,1054,17.5,15.2,87,12.16,63,10.6,299.4,335.1,301.6
900.7,1057,17.5,15.2,87,12.17,64,10.5,299.4,335.2,301.6
900.3,1061,17.4,15.3,87,12.20,64,10.5,299.4,335.3,301.6
899.9,1065,17.4,15.3,87,12.22,64,10.4,299.4,335.3,301.6
899.4,1069,17.3,15.3,88,12.22,64,10.4,299.4,335.3,301.6
899.0,1074,17.3,15.2,88,12.19,65,10.4,299.4,335.3,301.6
898.5,1079,17.3,15.2,88,12.17,65,10.4,299.4,335.2,301.6
897.9,1083,17.2,15.2,88,12.20,65,10.4,299.4,335.3,301.6
897.4,1088,17.2,15.2,88,12.21,65,10.4,299.5,335.3,301.6
896.9,1093,17.1,15.2,88,12.20,66,10.4,299.5,335.3,301.6
896.4,1098,17.1,15.2,88,12.17,66,10.4,299.5,335.2,301.7
895.9,1103,17.1,15.1,88,12.15,66,10.4,299.5,335.2,301.6
895.3,1108,17.0,15.1,88,12.11,67,10.5,299.5,335.1,301.7
894.8,1113,17.0,15.0,88,12.05,67,10.5,299.5,334.9,301.7
894.3,1119,17.0,14.9,88,12.01,67,10.6,299.5,334.8,301.7
893.7,1124,16.9,14.9,88,11.99,67,10.6,299.5,334.8,301.7
893.2,1129,16.9,14.9,88,11.99,67,10.7,299.5,334.8,301.7
892.6,1135,16.8,14.9,88,11.99,68,10.8,299.5,334.8,301.7
892.0,1140,16.8,14.8,88,11.97,68,10.9,299.5,334.7,301.7
891.4,1146,16.7,14.8,88,11.95,68,10.9,299.5,334.7,301.7
890.8,1151,16.7,14.7,88,11.89,68,11.0,299.5,334.5,301.7
890.3,1157,16.6,14.6,88,11.81,68,11.1,299.5,334.3,301.7
889.8,1162,16.6,14.5,87,11.73,68,11.2,299.6,334.1,301.7
889.3,1167,16.6,14.4,87,11.70,68,11.2,299.6,334.0,301.7
888.8,1171,16.5,14.4,87,11.71,68,11.3,299.6,334.1,301.7
888.3,1176,16.5,14.5,88,11.73,68,11.4,299.6,334.2,301.7
887.9,1180,16.5,14.5,88,11.74,68,11.4,299.6,334.2,301.8
887.5,1184,16.5,14.4,88,11.73,68,11.4,299.7,334.2,301.8
887.1,1188,16.4,14.4,88,11.71,68,11.5,299.7,334.1,301.8
886.6,1192,16.4,14.3,87,11.66,69,11.5,299.7,334.1,301.8
886.2,1196,16.4,14.3,87,11.61,69,11.5,299.7,333.9,301.8
885.8,1200,16.4,14.2,87,11.59,69,11.5,299.8,333.9,301.8
885.4,1204,16.4,14.2,87,11.59,69,11.5,299.8,333.9,301.9
884.9,1208,16.4,14.2,87,11.56,69,11.5,299.8,333.8,301.9
884.5,1213,16.3,14.1,87,11.51,69,11.5,299.8,333.7,301.9
884.0,1217,16.3,14.1,87,11.51,69,11.5,299.8,333.7,301.9
883.5,1222,16.3,14.1,87,11.51,70,11.5,299.8,333.8,301.9
883.0,1227,16.2,14.1,87,11.51,70,11.4,299.9,333.8,301.9
882.6,1231,16.2,14.0,87,11.49,70,11.4,299.9,333.7,301.9
882.1,1236,16.2,14.0,87,11.46,70,11.4,299.9,333.6,301.9
881.6,1240,16.1,13.9,87,11.42,70,11.4,299.9,333.5,301.9
881.2,1245,16.1,13.9,87,11.40,70,11.3,299.9,333.5,301.9
880.7,1249,16.1,13.9,87,11.43,70,11.3,299.9,333.6,301.9
880.3,1253,16.0,14.0,88,11.48,70,11.3,299.9,333.7,302.0
879.9,1257,16.0,14.0,88,11.52,70,11.2,299.9,333.8,302.0
879.4,1262,15.9,14.1,89,11.54,70,11.2,299.9,333.9,302.0
879.0,1266,15.9,14.1,89,11.56,70,11.2,299.9,334.0,302.0
878.5,1270,15.9,14.1,89,11.59,70,11.1,299.9,334.1,302.0
878.1,1274,15.8,14.1,90,11.61,69,11.1,299.9,334.1,302.0
877.6,1279,15.8,14.1,90,11.62,69,11.1,299.9,334.2,302.0
877.2,1283,15.8,14.1,90,11.64,69,11.1,299.9,334.2,302.0
876.7,1288,15.7,14.1,90,11.64,68,11.1,299.9,334.2,302.0
876.3,1292,15.7,14.1,91,11.64,68,11.0,299.9,334.2,302.0
875.8,1296,15.6,14.1,91,11.62,67,11.0,299.9,334.2,302.0
875.4,1301,15.6,14.1,91,11.61,67,11.0,299.9,334.2,302.0
874.9,1305,15.6,14.1,91,11.61,66,11.0,299.9,334.1,302.0
874.5,1309,15.5,14.0,91,11.60,66,11.0,299.9,334.1,302.0
874.1,1313,15.5,14.0,91,11.58,65,11.0,299.9,334.1,302.0
873.7,1318,15.5,13.9,91,11.53,65,11.0,300.0,333.9,302.0
873.2,1322,15.4,13.9,90,11.48,64,11.0,300.0,333.8,302.0
872.8,1326,15.4,13.8,90,11.43,64,10.9,300.0,333.7,302.1
872.4,1330,15.4,13.8,90,11.43,63,10.9,300.0,333.7,302.1
872.0,1334,15.4,13.8,90,11.44,63,10.9,300.0,333.8,302.1
871.6,1338,15.4,13.8,90,11.43,62,10.9,300.1,333.8,302.1
871.2,1342,15.3,13.7,90,11.39,62,10.9,300.1,333.7,302.1
870.8,1346,15.3,13.6,89,11.32,62,10.9,300.1,333.5,302.1
870.4,1349,15.3,13.5,89,11.26,62,10.8,300.1,333.4,302.2
870.0,1353,15.3,13.5,89,11.25,61,10.8,300.2,333.4,302.2
869.6,1357,15.3,13.5,89,11.25,61,10.8,300.2,333.4,302.2
869.2,1361,15.3,13.5,89,11.26,61,10.8,300.2,333.5,302.2
868.7,1366,15.2,13.5,90,11.29,61,10.7,300.2,333.6,302.3
868.2,1371,15.2,13.6,90,11.32,61,10.7,300.2,333.6,302.3
867.7,1376,15.1,13.6,90,11.33,62,10.7,300.2,333.7,302.3
867.1,1381,15.1,13.5,90,11.29,62,10.7,300.2,333.6,302.3
866.5,1387,15.1,13.4,90,11.23,62,10.7,300.3,333.4,302.3
866.0,1392,15.0,13.3,90,11.18,62,10.7,300.3,333.3,302.3
865.4,1398,15.0,13.3,90,11.16,63,10.7,300.3,333.3,302.3
864.9,1403,14.9,13.3,90,11.19,63,10.7,300.3,333.4,302.3
864.4,1408,14.9,13.4,91,11.25,63,10.7,300.3,333.5,302.3
863.9,1413,14.8,13.4,91,11.28,64,10.7,300.3,333.6,302.3
863.5,1417,14.8,13.4,91,11.24,64,10.8,300.2,333.5,302.3
863.0,1421,14.8,13.3,91,11.21,64,10.8,300.3,333.4,302.3
862.6,1426,14.7,13.3,91,11.19,64,10.8,300.3,333.4,302.3
862.2,1430,14.7,13.3,91,11.18,65,10.9,300.3,333.4,302.3
861.7,1435,14.7,13.2,91,11.16,65,11.0,300.4,333.3,302.4
861.2,1439,14.7,13.2,91,11.16,65,11.0,300.4,333.4,302.4
860.7,1444,14.6,13.2,91,11.15,66,11.1,300.4,333.3,302.4
860.2,1449,14.6,13.1,91,11.12,66,11.2,300.4,333.3,302.4
859.7,1454,14.6,13.0,91,11.05,66,11.2,300.4,333.1,302.4
859.2,1459,14.5,12.9,90,10.93,66,11.3,300.4,332.8,302.4
858.7,1464,14.5,12.7,88,10.79,66,11.4,300.5,332.4,302.4
858.2,1469,14.5,12.5,88,10.70,67,11.4,300.5,332.2,302.5
857.7,1475,14.5,12.5,88,10.68,67,11.5,300.6,332.2,302.5
857.1,1480,14.5,12.5,88,10.70,67,11.6,300.6,332.2,302.5
856.6,1485,14.4,12.5,88,10.70,67,11.6,300.6,332.3,302.5
856.1,1490,14.4,12.5,88,10.70,67,11.7,300.6,332.3,302.5
855.5,1495,14.3,12.5,89,10.70,67,11.8,300.6,332.3,302.5
855.0,1501,14.3,12.5,89,10.71,67,11.8,300.6,332.3,302.6
854.4,1506,14.3,12.5,89,10.70,67,11.8,300.6,332.3,302.6
853.9,1512,14.2,12.4,89,10.69,68,11.9,300.7,332.3,302.6
853.3,1518,14.2,12.4,89,10.70,68,11.9,300.7,332.3,302.6
852.7,1523,14.1,12.5,90,10.71,68,11.9,300.7,332.4,302.6
852.2,1529,14.1,12.4,90,10.71,68,11.9,300.7,332.4,302.6
851.6,1534,14.0,12.4,90,10.69,68,11.9,300.7,332.3,302.6
851.1,1540,14.0,12.3,90,10.63,68,11.9,300.7,332.2,302.6
850.6,1545,14.0,12.2,89,10.57,68,11.9,300.7,332.0,302.6
850.1,1549,14.0,12.1,89,10.52,68,11.9,300.7,331.9,302.6
850.0,1550,14.0,12.1,89,10.53,68,11.9,300.8,332.0,302.7
849.6,1554,14.0,12.1,89,10.51,68,11.9,300.8,331.9,302.7
849.1,1559,13.9,12.1,89,10.51,68,11.9,300.8,332.0,302.7
848.7,1564,13.9,12.1,89,10.49,69,11.8,300.8,331.9,302.7
848.2,1568,13.9,12.0,88,10.44,69,11.8,300.9,331.8,302.7
847.7,1573,13.9,11.9,88,10.37,69,11.8,300.9,331.6,302.7
847.2,1578,13.8,11.8,87,10.30,69,11.8,300.9,331.5,302.8
846.7,1583,13.8,11.7,87,10.23,69,11.8,300.9,331.3,302.8
846.3,1588,13.8,11.5,86,10.13,69,11.7,301.0,331.1,302.8
845.8,1592,13.9,11.3,85,9.99,69,11.7,301.1,330.8,302.9
845.3,1597,13.9,11.1,83,9.85,69,11.7,301.2,330.5,303.0
844.8,1602,13.9,11.0,82,9.78,69,11.7,301.2,330.4,303.0
844.3,1607,13.9,10.9,82,9.76,69,11.7,301.3,330.3,303.1
843.8,1612,13.9,10.8,82,9.72,69,11.7,301.3,330.2,303.1
843.3,1617,13.9,10.7,81,9.63,69,11.7,301.3,330.0,303.1
842.8,1623,13.8,10.6,81,9.55,69,11.7,301.3,329.8,303.1
842.2,1628,13.8,10.5,80,9.50,69,11.8,301.4,329.7,303.1
841.6,1634,13.8,10.4,80,9.46,68,11.8,301.4,329.6,303.1
841.1,1640,13.7,10.4,80,9.47,68,11.8,301.4,329.7,303.1
840.5,1646,13.7,10.5,81,9.51,68,11.8,301.5,329.8,303.2
839.9,1651,13.7,10.5,81,9.56,68,11.9,301.5,330.0,303.2
839.3,1657,13.6,10.5,82,9.57,68,11.9,301.5,330.0,303.2
838.8,1663,13.6,10.5,82,9.55,67,11.9,301.5,330.0,303.2
838.2,1668,13.6,10.4,81,9.50,67,12.0,301.5,329.9,303.3
837.7,1674,13.5,10.3,81,9.44,67,12.0,301.6,329.7,303.3
837.2,1679,13.5,10.2,80,9.38,66,12.0,301.6,329.6,303.3
836.7,1684,13.5,10.1,80,9.31,66,12.0,301.6,329.4,303.3
836.2,1689,13.5,10.0,79,9.26,66,12.1,301.7,329.3,303.3
835.7,1694,13.4,9.9,79,9.23,66,12.1,301.7,329.2,303.3
835.2,1699,13.4,9.9,79,9.19,65,12.1,301.7,329.1,303.4
834.7,1704,13.4,9.8,79,9.13,65,12.1,301.7,329.0,303.4
834.2,1709,13.4,9.7,78,9.09,65,12.1,301.8,328.9,303.4
833.8,1713,13.4,9.7,78,9.09,64,12.1,301.8,329.0,303.4
833.3,1717,13.3,9.7,79,9.12,64,12.1,301.8,329.1,303.5
832.9,1722,13.3,9.7,79,9.13,64,12.1,301.8,329.1,303.5
832.5,1726,13.3,9.7,79,9.10,64,12.1,301.9,329.1,303.5
832.0,1731,13.3,9.6,78,9.08,64,12.1,301.9,329.1,303.6
831.6,1735,13.3,9.6,78,9.08,63,12.1,302.0,329.1,303.6
831.1,1740,13.3,9.7,79,9.10,63,12.1,302.0,329.2,303.6
830.6,1745,13.2,9.7,79,9.11,63,12.0,302.0,329.2,303.6
830.1,1750,13.2,9.6,79,9.11,63,12.0,302.0,329.2,303.6
829.6,1755,13.2,9.6,79,9.07,63,12.0,302.0,329.1,303.6
829.1,1760,13.1,9.5,78,9.01,64,12.0,302.0,329.0,303.7
828.6,1766,13.1,9.4,78,8.94,64,11.9,302.1,328.8,303.7
