PRES,HGHT,TEMP,DWPT,RELH,MIXR,DRCT,SPED,THTA,THTE,THTV
1014.3,31,23.3,18.6,75,13.45,67,5.0,295.2,334.0,297.6
1013.5,37,23.3,19.1,77,13.86,70,4.0,295.3,335.3,297.8
1013.1,41,23.4,19.2,77,13.93,70,4.1,295.4,335.6,297.9
1012.6,45,23.4,19.1,77,13.88,71,4.3,295.5,335.6,298.0
1011.9,51,23.4,19.0,76,13.75,71,4.5,295.5,335.2,298.0
1011.3,56,23.4,18.8,75,13.60,71,4.8,295.6,334.8,298.0
1010.6,62,23.3,18.6,75,13.45,71,5.1,295.6,334.4,298.0
1010.0,68,23.3,18.5,75,13.40,71,5.3,295.6,334.3,298.0
1009.3,73,23.2,18.5,75,13.42,71,5.5,295.6,334.3,298.0
1008.7,79,23.2,18.5,75,13.41,71,5.8,295.6,334.3,298.0
1008.1,85,23.1,18.5,75,13.39,71,6.0,295.6,334.3,298.0
1007.4,90,23.1,18.4,75,13.34,71,6.1,295.6,334.1,298.0
1006.7,96,23.0,18.4,75,13.34,71,6.3,295.6,334.1,298.0
1006.1,102,23.0,18.5,76,13.44,71,6.5,295.6,334.4,298.0
1005.4,108,22.9,18.5,76,13.45,71,6.6,295.6,334.4,298.0
1004.7,113,22.8,18.4,76,13.37,70,6.8,295.6,334.2,298.0
1004.1,119,22.8,18.4,76,13.36,70,6.9,295.6,334.2,298.0
1003.4,125,22.7,18.4,77,13.39,70,7.0,295.6,334.3,298.0
1002.8,130,22.7,18.5,77,13.44,70,7.1,295.6,334.4,298.0
1002.2,135,22.6,18.5,78,13.51,70,7.2,295.6,334.6,298.0
1001.6,141,22.6,18.6,78,13.55,70,7.3,295.6,334.7,298.0
1001.0,146,22.5,18.5,78,13.53,70,7.4,295.6,334.7,298.0
1000.4,151,22.5,18.4,78,13.42,69,7.5,295.6,334.4,298.0
1000.0,155,22.4,18.2,77,13.29,69,7.5,295.6,334.0,297.9
999.8,156,22.4,18.2,77,13.23,69,7.5,295.6,333.8,297.9
999.2,162,22.4,18.0,76,13.09,69,7.6,295.6,333.4,297.9
998.6,167,22.3,18.0,76,13.08,69,7.7,295.6,333.4,297.9
998.0,172,22.3,18.0,77,13.09,69,7.7,295.6,333.4,297.9
997.4,177,22.2,17.9,77,13.07,68,7.8,295.6,333.3,297.9
996.8,182,22.2,17.9,77,13.04,68,7.8,295.6,333.3,297.9
996.3,187,22.2,17.9,77,13.06,68,7.9,295.6,333.3,297.9
995.7,192,22.1,17.9,77,13.11,68,7.9,295.6,333.5,297.9
995.2,196,22.0,18.0,78,13.15,68,7.9,295.6,333.6,297.9
994.7,201,22.0,18.0,78,13.15,67,8.0,295.6,333.6,297.9
994.2,206,21.9,18.0,78,13.13,67,8.0,295.6,333.5,297.9
993.6,210,21.9,17.9,78,13.07,67,8.0,295.6,333.3,297.9
993.1,215,21.9,17.8,78,13.05,67,8.0,295.6,333.3,297.9
992.6,220,21.8,17.9,78,13.09,67,8.0,295.6,333.4,297.9
992.0,224,21.8,18.0,79,13.17,67,8.0,295.6,333.7,297.9
991.5,229,21.7,18.0,80,13.24,67,7.9,295.6,333.8,297.9
990.9,234,21.7,18.0,80,13.24,67,7.9,295.6,333.8,297.9
990.3,239,21.6,18.0,80,13.19,67,7.9,295.6,333.7,297.9
989.8,244,21.6,17.9,80,13.16,67,7.8,295.6,333.6,297.9
989.2,249,21.5,17.9,80,13.19,67,7.8,295.6,333.7,297.9
988.7,254,21.5,18.0,80,13.23,68,7.7,295.6,333.8,297.9
988.1,259,21.4,18.0,81,13.26,68,7.7,295.6,333.9,298.0
987.6,263,21.4,18.0,81,13.26,68,7.6,295.6,333.9,298.0
987.1,268,21.4,18.0,81,13.25,69,7.5,295.6,333.9,298.0
986.5,273,21.3,17.9,81,13.23,69,7.5,295.6,333.8,298.0
986.0,277,21.3,17.9,81,13.20,69,7.4,295.6,333.7,297.9
985.5,282,21.2,17.9,81,13.17,70,7.4,295.6,333.6,297.9
985.1,286,21.2,17.8,81,13.12,70,7.3,295.6,333.5,297.9
984.6,289,21.1,17.8,81,13.10,70,7.3,295.6,333.4,297.9
984.2,293,21.1,17.7,81,13.08,71,7.2,295.6,333.4,297.9
983.8,296,21.1,17.7,81,13.09,71,7.2,295.6,333.4,297.9
983.5,300,21.1,17.7,81,13.10,71,7.2,295.6,333.4,297.9
983.1,303,21.0,17.7,82,13.11,71,7.2,295.6,333.5,297.9
982.6,307,21.0,17.7,82,13.11,71,7.1,295.6,333.5,297.9
982.2,311,21.0,17.7,82,13.12,71,7.1,295.6,333.5,298.0
981.7,315,20.9,17.8,82,13.14,71,7.2,295.6,333.6,298.0
981.2,320,20.9,17.8,82,13.16,71,7.2,295.6,333.6,298.0
980.6,325,20.8,17.8,83,13.18,71,7.2,295.6,333.7,298.0
980.1,330,20.8,17.7,83,13.15,71,7.2,295.6,333.6,298.0
979.5,335,20.7,17.7,83,13.08,71,7.3,295.6,333.4,297.9
979.0,339,20.7,17.6,82,13.00,71,7.3,295.6,333.2,297.9
978.4,344,20.6,17.5,82,12.98,71,7.4,295.6,333.1,297.9
977.9,349,20.6,17.6,83,13.05,70,7.4,295.6,333.3,298.0
977.4,353,20.6,17.7,84,13.15,70,7.5,295.6,333.6,298.0
976.9,358,20.5,17.7,84,13.15,70,7.5,295.6,333.6,297.9
976.4,363,20.5,17.6,84,13.09,70,7.6,295.6,333.4,297.9
975.8,368,20.4,17.6,84,13.09,69,7.6,295.6,333.4,298.0
975.2,373,20.4,17.7,85,13.19,69,7.7,295.6,333.7,298.0
974.6,378,20.3,17.8,86,13.30,69,7.7,295.6,334.0,298.0
973.9,384,20.2,17.9,87,13.40,68,7.8,295.6,334.3,298.0
973.3,390,20.2,18.0,87,13.43,68,7.8,295.6,334.4,298.0
972.6,396,20.1,18.0,87,13.43,68,7.8,295.6,334.4,298.0
971.9,402,20.1,18.0,88,13.46,68,7.8,295.6,334.5,298.0
971.2,408,20.0,18.0,88,13.45,67,7.8,295.6,334.5,298.0
970.5,414,20.0,17.9,88,13.41,67,7.8,295.6,334.3,298.0
969.8,421,19.9,17.9,88,13.39,67,7.8,295.6,334.3,298.0
969.1,427,19.8,17.9,88,13.40,67,7.8,295.6,334.3,298.0
968.4,433,19.8,17.8,89,13.40,67,7.8,295.6,334.3,298.0
967.8,439,19.7,17.7,88,13.32,67,7.8,295.6,334.1,298.0
967.1,445,19.7,17.7,88,13.25,67,7.7,295.6,333.9,298.0
966.5,451,19.6,17.6,88,13.22,67,7.7,295.6,333.8,297.9
965.8,456,19.5,17.6,88,13.19,67,7.7,295.6,333.7,297.9
965.2,462,19.5,17.5,88,13.13,67,7.6,295.6,333.5,297.9
964.6,467,19.4,17.4,88,13.10,67,7.6,295.6,333.4,297.9
964.0,473,19.4,17.4,88,13.06,67,7.5,295.6,333.3,297.9
963.4,478,19.3,17.3,88,12.96,67,7.4,295.6,333.1,297.9
962.8,484,19.3,17.1,87,12.86,67,7.4,295.6,332.8,297.9
962.2,489,19.3,16.9,86,12.70,68,7.3,295.6,332.3,297.9
961.6,494,19.2,16.6,84,12.41,68,7.2,295.7,331.6,297.9
961.0,500,19.3,16.3,83,12.20,68,7.2,295.8,331.0,297.9
960.3,505,19.3,16.3,83,12.19,68,7.1,295.8,331.1,298.0
959.7,511,19.2,16.4,84,12.29,68,7.1,295.8,331.4,298.0
959.1,517,19.2,16.5,85,12.40,68,7.0,295.8,331.7,298.0
958.5,522,19.1,16.5,85,12.44,68,6.9,295.8,331.8,298.0
957.9,528,19.0,16.4,85,12.36,68,6.9,295.8,331.5,298.0
957.2,534,19.0,16.4,85,12.34,68,6.8,295.8,331.5,298.0
956.6,539,18.9,16.4,85,12.37,67,6.8,295.8,331.6,298.0
955.9,545,18.9,16.2,85,12.23,67,6.8,295.8,331.2,298.0
955.3,551,18.9,15.9,83,11.94,67,6.7,295.9,330.4,298.0
954.6,557,18.9,15.6,81,11.73,67,6.7,295.9,329.9,298.0
954.0,563,18.9,15.5,81,11.66,67,6.7,296.0,329.8,298.0
953.3,569,18.9,15.5,81,11.69,67,6.7,296.0,329.9,298.1
952.7,575,18.8,15.5,81,11.73,66,6.7,296.0,330.0,298.1
952.0,581,18.7,15.4,81,11.63,66,6.7,296.0,329.7,298.1
951.4,586,18.7,15.1,80,11.45,66,6.7,296.0,329.2,298.1
950.7,592,18.7,14.9,79,11.29,66,6.7,296.1,328.8,298.1
950.1,598,18.7,14.7,78,11.15,65,6.7,296.1,328.5,298.1
949.5,604,18.7,14.6,77,11.04,65,6.8,296.2,328.2,298.1
948.8,609,18.6,14.5,77,10.99,65,6.8,296.2,328.1,298.2
948.2,615,18.6,14.5,77,11.00,65,6.8,296.2,328.2,298.2
947.6,621,18.6,14.5,77,11.00,65,6.9,296.2,328.2,298.2
946.9,627,18.5,14.4,77,10.94,65,6.9,296.2,328.0,298.2
946.3,632,18.5,14.3,77,10.89,65,7.0,296.3,327.9,298.2
945.7,638,18.5,14.3,77,10.86,65,7.0,296.3,327.9,298.2
945.0,644,18.4,14.3,77,10.87,65,7.1,296.3,327.9,298.2
944.4,649,18.4,14.2,77,10.87,65,7.2,296.3,327.9,298.3
943.8,655,18.3,14.3,77,10.89,65,7.2,296.3,328.0,298.3
943.2,660,18.3,14.3,77,10.89,65,7.3,296.3,328.0,298.3
942.6,666,18.2,14.2,77,10.87,65,7.3,296.3,327.9,298.3
942.0,671,18.2,14.2,78,10.87,65,7.4,296.3,327.9,298.3
941.4,677,18.1,14.2,78,10.89,66,7.5,296.3,328.0,298.2
940.8,682,18.0,14.2,78,10.89,66,7.5,296.3,328.0,298.3
940.3,687,18.0,14.2,78,10.88,66,7.6,296.3,327.9,298.2
939.7,692,18.0,14.2,79,10.89,66,7.6,296.3,328.0,298.3
939.1,697,17.9,14.2,79,10.91,67,7.6,296.3,328.0,298.3
938.6,703,17.9,14.2,79,10.92,67,7.7,296.3,328.1,298.3
938.0,708,17.8,14.2,80,10.94,67,7.7,296.3,328.1,298.3
937.4,713,17.7,14.3,80,11.00,68,7.7,296.3,328.3,298.3
936.8,719,17.7,14.4,81,11.05,68,7.7,296.3,328.4,298.3
936.2,724,17.6,14.3,81,11.03,68,7.7,296.3,328.4,298.3
935.6,730,17.6,14.3,81,11.00,68,7.7,296.3,328.3,298.3
935.0,735,17.5,14.2,81,10.95,68,7.7,296.3,328.1,298.3
934.5,740,17.5,14.1,80,10.88,68,7.7,296.3,328.0,298.3
933.9,745,17.5,14.0,80,10.82,68,7.7,296.3,327.8,298.3
933.4,750,17.5,14.0,80,10.82,68,7.7,296.4,327.9,298.3
932.9,755,17.4,14.0,80,10.86,68,7.7,296.4,328.0,298.3
932.4,759,17.4,14.1,81,10.88,68,7.6,296.4,328.1,298.4
931.9,764,17.4,14.0,81,10.87,67,7.6,296.4,328.0,298.4
931.4,768,17.3,14.0,81,10.85,67,7.6,296.4,328.0,298.4
930.9,773,17.3,14.0,81,10.84,67,7.5,296.5,328.0,298.4
930.4,777,17.3,14.0,81,10.86,66,7.5,296.5,328.1,298.4
930.0,782,17.2,14.0,81,10.88,66,7.5,296.5,328.1,298.4
929.5,786,17.2,14.0,82,10.90,65,7.4,296.5,328.2,298.4
928.9,791,17.1,14.1,82,10.92,64,7.4,296.5,328.2,298.4
928.4,796,17.1,14.1,82,10.92,64,7.4,296.5,328.2,298.4
927.9,801,17.0,14.0,82,10.92,63,7.3,296.5,328.2,298.4
927.3,806,17.0,14.0,82,10.87,63,7.3,296.5,328.1,298.4
926.7,811,17.0,13.9,82,10.81,62,7.3,296.5,328.0,298.4
926.1,817,17.0,13.8,81,10.74,62,7.2,296.5,327.8,298.5
925.6,822,16.9,13.6,81,10.64,61,7.2,296.5,327.5,298.4
925.0,827,16.9,13.3,79,10.46,61,7.2,296.6,327.0,298.4
924.4,833,16.9,13.0,78,10.26,60,7.1,296.7,326.6,298.5
923.9,838,16.9,12.9,77,10.17,60,7.1,296.7,326.4,298.5
923.4,842,16.9,12.9,77,10.20,60,7.1,296.7,326.5,298.6
922.8,847,16.9,13.0,78,10.23,59,7.0,296.8,326.6,298.6
922.3,852,16.8,13.0,78,10.23,59,7.0,296.8,326.6,298.6
921.8,857,16.8,12.9,78,10.18,59,6.9,296.8,326.5,298.6
921.3,862,16.8,12.8,77,10.15,59,6.9,296.8,326.4,298.6
920.8,867,16.8,12.8,78,10.15,59,6.8,296.8,326.4,298.6
920.2,872,16.7,12.8,78,10.15,59,6.8,296.8,326.4,298.6
919.6,877,16.7,12.8,78,10.13,58,6.7,296.8,326.4,298.6
919.1,882,16.6,12.7,78,10.11,58,6.7,296.8,326.4,298.6
918.5,888,16.6,12.7,78,10.11,58,6.6,296.9,326.4,298.7
917.9,893,16.6,12.7,78,10.12,58,6.5,296.9,326.4,298.7
917.3,899,16.5,12.7,78,10.13,58,6.5,296.9,326.4,298.7
916.7,904,16.4,12.7,79,10.12,57,6.4,296.9,326.4,298.7
916.1,910,16.4,12.6,78,10.08,57,6.3,296.9,326.3,298.7
915.4,916,16.3,12.5,78,9.99,56,6.3,296.9,326.1,298.7
914.8,922,16.3,12.4,77,9.92,56,6.2,296.9,325.9,298.7
914.2,928,16.3,12.4,77,9.92,55,6.2,297.0,325.9,298.7
913.6,933,16.3,12.4,78,9.95,55,6.1,297.0,326.0,298.7
913.0,939,16.2,12.5,78,9.99,54,6.1,297.0,326.2,298.8
912.4,944,16.2,12.5,79,10.04,53,6.0,297.0,326.3,298.8
911.8,949,16.1,12.6,80,10.13,52,6.0,297.0,326.6,298.8
911.3,955,16.1,12.7,80,10.18,51,6.0,297.0,326.7,298.8
910.8,960,16.0,12.7,81,10.18,50,5.9,297.0,326.7,298.8
910.2,965,16.0,12.7,81,10.17,49,5.9,297.0,326.7,298.8
909.7,969,16.0,12.7,81,10.18,48,5.9,297.0,326.7,298.8
909.2,974,15.9,12.7,81,10.19,47,5.9,297.0,326.8,298.8
908.7,979,15.8,12.7,81,10.18,47,6.0,297.0,326.7,298.8
908.2,984,15.8,12.6,81,10.16,46,6.0,297.0,326.7,298.8
907.7,988,15.7,12.6,82,10.15,45,6.0,297.0,326.6,298.8
907.3,992,15.7,12.6,82,10.18,45,6.0,297.0,326.7,298.8
906.8,997,15.7,12.7,82,10.20,45,6.0,297.0,326.8,298.8
906.3,1001,15.6,12.7,82,10.22,44,6.1,297.0,326.9,298.8
905.9,1006,15.6,12.7,83,10.21,44,6.1,297.0,326.8,298.8
905.4,1010,15.6,12.6,83,10.20,45,6.1,297.0,326.8,298.8
904.9,1015,15.5,12.6,83,10.19,45,6.1,297.0,326.8,298.8
904.3,1020,15.5,12.6,83,10.19,45,6.2,297.0,326.8,298.8
903.8,1025,15.4,12.6,83,10.19,46,6.2,297.0,326.8,298.9
903.3,1030,15.4,12.6,83,10.19,46,6.2,297.0,326.8,298.8
902.7,1035,15.3,12.6,84,10.19,47,6.2,297.0,326.8,298.9
902.2,1040,15.3,12.6,84,10.20,48,6.2,297.0,326.8,298.8
901.7,1045,15.2,12.6,84,10.19,48,6.2,297.0,326.8,298.8
901.1,1050,15.2,12.5,84,10.18,49,6.2,297.0,326.8,298.8
900.6,1055,15.1,12.5,84,10.16,50,6.2,297.0,326.7,298.8
900.1,1060,15.1,12.5,84,10.16,51,6.2,297.0,326.7,298.8
899.6,1065,15.0,12.5,85,10.16,52,6.2,297.0,326.7,298.9
899.1,1069,15.0,12.5,85,10.17,53,6.2,297.0,326.7,298.8
898.6,1074,15.0,12.5,85,10.22,54,6.2,297.0,326.9,298.9
898.0,1079,14.9,12.7,86,10.31,55,6.2,297.1,327.1,298.9
897.5,1084,14.9,12.8,87,10.37,56,6.2,297.1,327.4,298.9
896.9,1090,14.9,12.8,87,10.38,57,6.2,297.1,327.4,299.0
896.4,1095,14.8,12.7,87,10.35,57,6.2,297.1,327.3,299.0
895.8,1101,14.7,12.7,87,10.34,58,6.2,297.1,327.3,298.9
895.2,1106,14.7,12.6,88,10.32,59,6.2,297.1,327.2,298.9
894.6,1112,14.6,12.6,88,10.30,59,6.2,297.1,327.2,298.9
894.0,1117,14.6,12.6,88,10.30,60,6.2,297.1,327.2,298.9
893.4,1123,14.5,12.6,88,10.32,61,6.2,297.1,327.2,298.9
892.8,1129,14.5,12.7,89,10.37,61,6.2,297.1,327.4,298.9
892.2,1134,14.4,12.7,90,10.42,61,6.2,297.1,327.5,299.0
891.6,1140,14.4,12.8,90,10.48,62,6.3,297.1,327.7,299.0
891.0,1146,14.3,12.8,91,10.49,62,6.3,297.1,327.7,299.0
890.4,1152,14.3,12.8,91,10.47,62,6.3,297.1,327.7,299.0
889.8,1157,14.2,12.8,91,10.49,62,6.3,297.1,327.7,299.0
889.2,1163,14.1,12.8,92,10.51,62,6.3,297.1,327.7,299.0
888.5,1169,14.1,12.8,92,10.49,62,6.3,297.1,327.7,299.0
887.9,1175,14.0,12.7,92,10.46,62,6.3,297.1,327.6,299.0
887.3,1181,14.0,12.7,92,10.43,62,6.4,297.1,327.5,298.9
886.7,1187,13.9,12.7,92,10.45,62,6.4,297.1,327.6,299.0
886.1,1193,13.9,12.8,93,10.52,62,6.4,297.1,327.8,299.0
885.5,1198,13.8,12.8,94,10.58,62,6.4,297.1,328.0,299.0
884.9,1204,13.8,12.9,94,10.59,62,6.4,297.1,328.0,299.0
884.3,1209,13.7,12.9,95,10.61,62,6.4,297.1,328.1,299.0
883.8,1215,13.7,12.9,95,10.64,62,6.4,297.1,328.2,299.0
883.2,1220,13.6,13.0,96,10.69,62,6.4,297.1,328.3,299.1
882.6,1226,13.6,13.0,96,10.70,62,6.4,297.2,328.4,299.1
882.0,1231,13.6,13.0,96,10.72,62,6.4,297.2,328.5,299.1
881.5,1237,13.5,13.0,97,10.76,62,6.4,297.2,328.6,299.1
880.9,1242,13.5,13.0,97,10.78,62,6.4,297.2,328.6,299.1
880.4,1248,13.4,13.0,97,10.77,62,6.4,297.2,328.6,299.1
879.8,1253,13.4,13.0,98,10.78,62,6.3,297.2,328.7,299.1
879.2,1258,13.3,13.0,98,10.79,62,6.3,297.2,328.7,299.2
878.6,1264,13.3,13.1,98,10.81,62,6.3,297.2,328.8,299.2
878.1,1269,13.3,13.1,99,10.83,62,6.3,297.3,328.9,299.2
877.5,1275,13.2,13.1,99,10.84,62,6.3,297.3,328.9,299.2
876.9,1280,13.2,13.0,99,10.83,61,6.3,297.3,328.9,299.2
876.4,1286,13.1,13.0,99,10.83,61,6.3,297.3,328.9,299.2
875.8,1292,13.1,13.0,100,10.84,61,6.2,297.3,329.0,299.3
875.2,1297,13.1,13.1,100,10.87,61,6.2,297.4,329.1,299.3
874.6,1303,13.2,13.1,100,10.92,61,6.2,297.5,329.4,299.4
874.0,1309,13.2,13.2,100,10.94,61,6.2,297.6,329.5,299.5
873.4,1315,13.2,13.1,100,10.94,61,6.2,297.6,329.6,299.6
872.7,1321,13.1,13.1,100,10.94,60,6.2,297.6,329.6,299.6
872.1,1327,13.1,13.1,100,10.93,60,6.2,297.7,329.6,299.6
871.5,1333,13.1,13.0,100,10.90,60,6.3,297.7,329.5,299.6
870.9,1339,13.0,13.0,100,10.85,60,6.3,297.7,329.4,299.6
870.3,1344,13.0,12.9,100,10.83,60,6.3,297.7,329.4,299.7
869.8,1349,13.0,12.9,100,10.81,59,6.3,297.7,329.3,299.7
869.3,1354,12.9,12.9,99,10.79,59,6.3,297.8,329.3,299.7
868.8,1359,12.9,12.9,99,10.79,59,6.3,297.8,329.4,299.7
868.4,1363,12.9,12.9,100,10.81,58,6.3,297.8,329.4,299.8
867.9,1367,12.9,12.8,100,10.80,58,6.3,297.9,329.5,299.8
867.5,1372,12.9,12.8,100,10.79,58,6.3,297.9,329.4,299.8
867.1,1376,12.9,12.8,100,10.80,57,6.2,297.9,329.5,299.8
866.6,1380,12.8,12.8,100,10.81,57,6.2,297.9,329.6,299.9
866.2,1384,12.8,12.8,100,10.81,57,6.2,298.0,329.6,299.9
865.8,1389,12.8,12.8,100,10.80,56,6.1,298.0,329.6,299.9
865.3,1393,12.8,12.8,100,10.79,56,6.1,298.0,329.6,299.9
864.8,1398,12.8,12.8,100,10.79,56,6.0,298.0,329.6,300.0
864.3,1402,12.7,12.7,100,10.77,56,6.0,298.1,329.6,300.0
863.8,1407,12.7,12.7,100,10.75,56,5.9,298.1,329.5,300.0
863.3,1412,12.7,12.7,100,10.72,56,5.8,298.1,329.5,300.0
862.8,1417,12.6,12.6,100,10.70,55,5.7,298.1,329.4,300.0
862.3,1422,12.6,12.6,100,10.69,55,5.6,298.1,329.4,300.0
861.7,1428,12.6,12.6,100,10.68,55,5.5,298.1,329.4,300.0
861.2,1433,12.5,12.5,100,10.67,55,5.4,298.2,329.4,300.1
860.6,1439,12.5,12.5,100,10.65,56,5.3,298.2,329.4,300.1
860.1,1444,12.5,12.5,100,10.63,56,5.2,298.2,329.4,300.1
859.5,1449,12.5,12.4,100,10.60,56,5.1,298.3,329.3,300.2
859.0,1454,12.5,12.4,99,10.57,57,5.0,298.3,329.3,300.2
858.5,1459,12.4,12.3,99,10.53,57,4.9,298.3,329.2,300.2
858.0,1464,12.4,12.3,99,10.54,58,4.7,298.3,329.2,300.2
857.5,1469,12.4,12.3,99,10.56,58,4.6,298.4,329.3,300.3
857.1,1474,12.4,12.4,100,10.59,59,4.5,298.4,329.5,300.3
856.6,1478,12.4,12.4,100,10.60,60,4.4,298.4,329.5,300.3
856.2,1482,12.4,12.4,100,10.60,60,4.3,298.5,329.6,300.4
855.7,1487,12.3,12.3,100,10.59,61,4.3,298.5,329.6,300.4
855.3,1491,12.3,12.3,100,10.56,62,4.2,298.5,329.5,300.4
854.8,1495,12.3,12.3,100,10.54,63,4.1,298.5,329.5,300.4
854.4,1499,12.3,12.2,100,10.54,64,4.1,298.6,329.5,300.5
854.0,1504,12.3,12.3,100,10.55,65,4.0,298.6,329.6,300.5
853.6,1508,12.3,12.3,100,10.56,66,4.0,298.6,329.6,300.5
853.1,1512,12.3,12.3,100,10.57,66,4.0,298.7,329.7,300.6
852.7,1516,12.3,12.2,100,10.56,67,4.0,298.7,329.7,300.6
852.3,1521,12.3,12.2,100,10.56,68,4.0,298.8,329.8,300.7
851.8,1525,12.3,12.2,100,10.57,69,4.0,298.8,329.9,300.7
851.4,1529,12.2,12.2,100,10.56,70,4.0,298.8,329.8,300.7
851.0,1533,12.2,12.2,100,10.54,70,4.1,298.8,329.8,300.7
850.5,1538,12.2,12.2,100,10.53,71,4.1,298.9,329.8,300.7
850.1,1542,12.2,12.1,100,10.52,72,4.2,298.9,329.8,300.8
850.0,1543,12.2,12.1,100,10.53,72,4.3,298.9,329.8,300.8
849.7,1547,12.2,12.1,100,10.53,72,4.3,298.9,329.9,300.8
849.2,1551,12.1,12.1,100,10.53,73,4.3,298.9,329.9,300.8
848.7,1556,12.1,12.1,100,10.52,74,4.4,298.9,329.9,300.8
848.3,1560,12.1,12.1,100,10.50,74,4.5,299.0,329.9,300.8
847.8,1565,12.1,12.0,100,10.48,75,4.6,299.0,329.8,300.9
847.4,1569,12.0,12.0,100,10.46,76,4.7,299.0,329.8,300.9
846.9,1574,12.0,12.0,100,10.47,76,4.9,299.0,329.8,300.9
846.4,1579,12.0,12.0,100,10.47,77,5.0,299.1,329.8,300.9
845.9,1583,12.0,12.0,100,10.45,78,5.1,299.1,329.8,301.0
845.5,1588,12.0,11.9,100,10.41,79,5.3,299.1,329.8,301.0
845.0,1593,11.9,11.9,99,10.38,79,5.4,299.1,329.7,301.0
844.5,1598,11.9,11.9,100,10.39,80,5.5,299.2,329.8,301.0
844.0,1603,11.9,11.8,100,10.39,81,5.7,299.2,329.8,301.1
843.5,1607,11.9,11.8,100,10.37,81,5.8,299.2,329.8,301.1
843.1,1612,11.9,11.8,99,10.35,82,6.0,299.3,329.8,301.1
842.6,1616,11.9,11.7,99,10.34,83,6.1,299.3,329.8,301.2
842.2,1620,11.9,11.7,99,10.34,83,6.3,299.4,329.8,301.2
841.8,1624,11.8,11.7,99,10.35,84,6.4,299.4,329.9,301.2
841.4,1628,11.8,11.7,99,10.34,84,6.6,299.4,329.8,301.2
841.1,1632,11.8,11.7,100,10.34,84,6.7,299.4,329.8,301.2
840.7,1635,11.7,11.7,100,10.31,85,6.8,299.4,329.8,301.2
840.3,1639,11.7,11.6,100,10.30,85,7.0,299.4,329.7,301.2
839.9,1643,11.7,11.6,100,10.28,85,7.1,299.4,329.7,301.2
839.6,1647,11.7,11.6,100,10.27,85,7.2,299.4,329.6,301.2
839.1,1651,11.6,11.6,100,10.27,86,7.3,299.4,329.7,301.3
838.7,1655,11.6,11.6,100,10.28,86,7.4,299.4,329.7,301.3
838.3,1659,11.6,11.6,100,10.27,86,7.5,299.4,329.7,301.3
837.9,1664,11.6,11.5,100,10.24,86,7.6,299.5,329.7,301.3
837.4,1668,11.5,11.5,100,10.22,85,7.6,299.5,329.6,301.3
837.0,1673,11.5,11.5,100,10.22,85,7.7,299.5,329.7,301.3
836.5,1677,11.5,11.5,100,10.24,85,7.7,299.5,329.7,301.4
836.1,1682,11.5,11.5,100,10.23,85,7.8,299.6,329.7,301.4
835.6,1686,11.5,11.5,100,10.23,85,7.8,299.6,329.8,301.4
835.1,1691,11.5,11.4,100,10.20,85,7.8,299.6,329.7,301.5
834.7,1696,11.4,11.4,99,10.17,84,7.8,299.7,329.7,301.5
834.2,1700,11.4,11.3,99,10.14,84,7.8,299.7,329.6,301.5
833.8,1705,11.4,11.3,99,10.12,84,7.8,299.7,329.6,301.5
833.3,1710,11.3,11.2,99,10.11,84,7.8,299.7,329.5,301.5
832.8,1714,11.3,11.2,99,10.09,83,7.8,299.7,329.5,301.5
832.4,1719,11.3,11.2,99,10.07,83,7.8,299.7,329.4,301.5
831.9,1723,11.2,11.2,99,10.07,83,7.7,299.7,329.5,301.6
831.5,1728,11.2,11.1,99,10.06,83,7.7,299.8,329.5,301.6
831.0,1733,11.2,11.1,100,10.07,83,7.6,299.8,329.5,301.6
830.5,1738,11.2,11.2,100,10.09,83,7.6,299.8,329.6,301.6
830.0,1742,11.2,11.2,100,10.09,83,7.5,299.8,329.7,301.7
829.6,1747,11.1,11.1,100,10.07,83,7.5,299.9,329.6,301.7
829.1,1752,11.1,11.0,100,10.02,83,7.4,299.9,329.5,301.7
828.6,1757,11.1,10.9,99,9.96,83,7.3,299.9,329.4,301.7
828.1,1762,11.1,10.9,99,9.96,83,7.2,299.9,329.4,301.7
827.6,1767,11.0,10.9,99,9.98,83,7.1,300.0,329.5,301.8
827.1,1772,11.0,11.0,100,9.99,83,7.1,300.0,329.5,301.8
826.7,1776,11.0,10.9,100,9.99,83,7.0,300.0,329.5,301.8
826.2,1781,11.0,10.9,100,9.99,83,6.9,300.0,329.6,301.8
825.7,1786,10.9,10.9,100,9.99,83,6.8,300.1,329.6,301.9
825.2,1791,10.9,10.9,100,9.98,84,6.7,300.1,329.6,301.9
824.8,1796,10.9,10.9,100,9.97,84,6.7,300.1,329.6,301.9
824.3,1800,10.9,10.9,100,9.97,84,6.6,300.1,329.6,301.9
823.8,1805,10.9,10.8,100,9.96,84,6.5,300.2,329.6,302.0
823.4,1810,10.8,10.8,100,9.94,84,6.4,300.2,329.6,302.0
823.0,1814,10.8,10.8,100,9.92,84,6.4,300.2,329.6,302.0
822.6,1818,10.8,10.7,99,9.88,84,6.3,300.2,329.5,302.0
822.2,1822,10.8,10.6,99,9.84,85,6.3,300.3,329.4,302.1
821.8,1826,10.9,10.6,98,9.80,85,6.2,300.4,329.4,302.2
821.4,1830,10.9,10.5,98,9.78,85,6.2,300.5,329.5,302.2
821.0,1834,10.9,10.5,98,9.77,85,6.1,300.5,329.5,302.3
820.6,1838,10.9,10.5,98,9.77,84,6.1,300.5,329.5,302.3
820.2,1842,10.9,10.5,98,9.79,84,6.1,300.6,329.6,302.3
819.8,1846,10.9,10.5,98,9.80,84,6.1,300.6,329.7,302.4
