PRES,HGHT,TEMP,DWPT,RELH,MIXR,DRCT,SPED,THTA,THTE,THTV
1013.1,31,23.0,21.1,89,15.74,78,2.8,295.1,340.3,297.8
1012.6,35,23.3,21.3,89,15.97,79,3.0,295.4,341.4,298.2
1011.7,42,23.4,21.3,88,16.00,80,3.2,295.5,341.7,298.4
1010.9,49,23.4,21.3,88,15.99,80,3.4,295.6,341.7,298.5
1010.7,51,23.4,21.2,88,15.88,80,3.6,295.6,341.4,298.4
1010.3,55,23.3,21.1,87,15.76,80,3.8,295.6,341.1,298.4
1009.7,60,23.3,21.0,87,15.67,80,4.0,295.7,340.9,298.4
1008.7,69,23.3,20.9,86,15.64,81,4.1,295.7,340.8,298.5
1008.0,75,23.2,20.9,87,15.63,81,4.3,295.7,340.8,298.5
1007.3,81,23.2,20.9,87,15.61,81,4.4,295.7,340.7,298.5
1006.6,87,23.1,20.9,87,15.62,81,4.5,295.7,340.8,298.5
1005.9,93,23.1,20.9,87,15.64,81,4.6,295.7,340.9,298.5
1005.2,99,23.0,20.9,88,15.65,81,4.7,295.7,340.9,298.5
1004.4,106,23.0,20.9,88,15.66,81,4.8,295.7,340.9,298.5
1003.7,112,22.9,20.9,88,15.69,82,4.9,295.7,341.0,298.5
1003.0,118,22.8,20.9,89,15.69,82,4.9,295.7,341.0,298.5
1002.3,125,22.8,20.9,89,15.71,82,4.9,295.7,341.0,298.5
1001.6,131,22.7,20.9,90,15.76,82,5.0,295.7,341.2,298.5
1000.9,137,22.7,20.9,90,15.75,82,5.0,295.7,341.2,298.5
1000.2,143,22.6,20.9,90,15.74,82,5.0,295.7,341.2,298.5
1000.0,144,22.6,20.9,90,15.73,82,5.0,295.8,341.2,298.5
999.5,148,22.6,20.9,90,15.72,82,5.0,295.8,341.1,298.5
998.9,154,22.5,20.8,90,15.70,82,5.0,295.7,341.1,298.5
998.2,160,22.5,20.8,91,15.71,82,5.0,295.8,341.1,298.5
997.5,166,22.4,20.9,91,15.80,81,5.0,295.8,341.3,298.6
996.9,172,22.3,20.9,92,15.81,81,5.0,295.8,341.4,298.5
996.1,178,22.3,20.8,92,15.75,81,4.9,295.8,341.2,298.5
995.4,184,22.2,20.8,92,15.72,81,4.9,295.7,341.1,298.5
994.7,191,22.1,20.8,92,15.71,81,4.9,295.7,341.1,298.5
994.0,197,22.1,20.8,92,15.70,80,4.8,295.7,341.0,298.5
993.3,203,22.0,20.8,93,15.72,80,4.8,295.7,341.1,298.5
992.7,209,22.0,20.8,93,15.74,80,4.8,295.7,341.1,298.5
992.0,214,21.9,20.8,93,15.74,80,4.8,295.7,341.1,298.5
991.4,220,21.9,20.8,93,15.76,79,4.7,295.7,341.2,298.5
990.8,225,21.8,20.8,94,15.79,79,4.7,295.7,341.3,298.5
990.1,231,21.8,20.8,94,15.83,79,4.7,295.7,341.4,298.5
989.5,236,21.7,20.8,95,15.85,79,4.7,295.8,341.5,298.6
988.9,242,21.7,20.8,95,15.85,78,4.6,295.8,341.5,298.6
988.3,248,21.6,20.7,95,15.79,78,4.6,295.8,341.3,298.5
987.6,253,21.6,20.6,95,15.70,78,4.6,295.8,341.1,298.5
987.0,259,21.5,20.6,94,15.64,78,4.6,295.8,340.9,298.5
986.4,264,21.5,20.6,95,15.64,78,4.6,295.8,340.9,298.5
985.7,270,21.4,20.6,95,15.70,78,4.7,295.8,341.1,298.5
985.1,275,21.3,20.7,96,15.75,78,4.7,295.8,341.2,298.5
984.5,281,21.3,20.6,96,15.68,78,4.7,295.7,341.0,298.5
983.9,286,21.2,20.4,95,15.53,78,4.7,295.7,340.5,298.5
983.3,291,21.2,20.4,95,15.48,78,4.7,295.7,340.4,298.5
982.7,296,21.1,20.4,95,15.52,78,4.8,295.8,340.5,298.5
982.1,301,21.1,20.4,96,15.54,78,4.8,295.8,340.6,298.5
981.6,307,21.0,20.4,96,15.53,78,4.9,295.7,340.5,298.5
981.0,311,21.0,20.3,96,15.49,78,4.9,295.7,340.4,298.5
980.5,316,20.9,20.3,96,15.46,78,5.0,295.7,340.3,298.5
979.9,321,20.9,20.3,96,15.46,78,5.0,295.8,340.4,298.5
979.3,326,20.9,20.3,96,15.46,78,5.1,295.8,340.4,298.5
978.7,332,20.8,20.2,96,15.44,78,5.1,295.8,340.3,298.5
978.2,337,20.8,20.2,97,15.45,78,5.2,295.8,340.4,298.5
977.6,342,20.7,20.2,97,15.46,78,5.2,295.8,340.4,298.5
977.0,347,20.7,20.2,97,15.40,77,5.3,295.8,340.2,298.5
976.4,352,20.6,20.1,97,15.33,77,5.3,295.8,340.0,298.5
975.9,357,20.6,20.0,96,15.24,77,5.4,295.8,339.8,298.5
975.3,362,20.6,19.8,95,15.09,77,5.4,295.9,339.4,298.5
974.7,367,20.6,19.6,94,14.91,77,5.4,295.9,339.0,298.6
974.1,373,20.6,19.6,94,14.89,77,5.4,295.9,338.9,298.6
973.5,378,20.5,19.6,95,14.94,77,5.4,295.9,339.1,298.6
972.9,383,20.5,19.7,95,14.99,77,5.5,295.9,339.2,298.6
972.3,389,20.4,19.7,96,15.03,77,5.4,295.9,339.3,298.6
971.8,394,20.4,19.7,96,15.03,77,5.4,295.9,339.3,298.6
971.2,399,20.3,19.7,96,15.04,77,5.4,295.9,339.3,298.6
970.6,404,20.3,19.7,97,15.05,77,5.4,295.9,339.4,298.6
970.1,409,20.2,19.7,97,15.01,77,5.3,295.9,339.3,298.6
969.5,414,20.2,19.6,97,14.98,77,5.3,295.9,339.2,298.6
969.0,418,20.1,19.6,97,14.95,77,5.2,295.9,339.1,298.6
968.5,423,20.1,19.5,97,14.94,77,5.2,295.9,339.1,298.6
968.0,428,20.1,19.5,96,14.89,77,5.1,295.9,338.9,298.6
967.4,432,20.0,19.4,96,14.82,77,5.1,296.0,338.8,298.6
966.9,437,20.0,19.4,96,14.78,77,5.0,296.0,338.7,298.6
966.4,442,20.0,19.3,96,14.77,77,4.9,296.0,338.7,298.6
965.9,446,19.9,19.3,96,14.79,77,4.9,296.0,338.7,298.6
965.4,451,19.9,19.4,97,14.81,77,4.8,296.0,338.8,298.6
964.8,456,19.8,19.3,97,14.80,77,4.8,296.0,338.8,298.6
964.3,461,19.8,19.3,97,14.76,77,4.7,296.0,338.6,298.6
963.7,465,19.8,19.2,97,14.70,77,4.6,296.0,338.5,298.6
963.2,470,19.7,19.1,97,14.64,77,4.6,296.0,338.3,298.6
962.6,475,19.7,19.1,96,14.59,77,4.5,296.0,338.2,298.6
962.1,480,19.6,19.0,96,14.57,78,4.5,296.0,338.1,298.6
961.5,485,19.6,19.0,96,14.57,78,4.4,296.1,338.2,298.6
961.0,490,19.6,19.0,97,14.55,78,4.4,296.1,338.1,298.6
960.4,495,19.5,19.0,97,14.54,78,4.4,296.1,338.1,298.7
959.9,500,19.5,19.0,97,14.53,78,4.3,296.1,338.1,298.7
959.3,505,19.5,19.0,97,14.52,78,4.3,296.1,338.1,298.7
958.8,510,19.4,18.9,97,14.51,78,4.3,296.1,338.0,298.7
958.2,515,19.4,18.9,97,14.50,79,4.2,296.1,338.0,298.7
957.7,520,19.3,18.9,97,14.48,79,4.2,296.1,338.0,298.7
957.1,525,19.3,18.9,97,14.48,79,4.2,296.1,338.0,298.7
956.6,530,19.3,18.8,97,14.44,79,4.2,296.1,337.9,298.7
956.0,535,19.2,18.8,97,14.39,79,4.2,296.2,337.8,298.7
955.4,540,19.2,18.7,97,14.36,79,4.2,296.2,337.7,298.7
954.9,545,19.1,18.6,97,14.31,79,4.1,296.2,337.5,298.7
954.3,550,19.1,18.6,97,14.27,79,4.1,296.2,337.4,298.7
953.8,555,19.1,18.5,97,14.21,79,4.1,296.2,337.3,298.7
953.2,561,19.0,18.5,97,14.18,80,4.1,296.2,337.2,298.7
952.6,566,19.0,18.5,97,14.17,80,4.1,296.2,337.2,298.7
952.1,571,18.9,18.4,97,14.13,80,4.1,296.2,337.1,298.7
951.5,576,18.9,18.4,97,14.09,80,4.1,296.2,337.0,298.7
951.0,581,18.9,18.3,96,14.07,80,4.1,296.3,337.0,298.8
950.4,586,18.9,18.3,97,14.07,80,4.1,296.3,337.0,298.8
949.9,591,18.8,18.3,97,14.06,80,4.0,296.3,336.9,298.8
949.3,595,18.8,18.2,96,13.99,80,4.0,296.3,336.8,298.8
948.8,601,18.8,18.1,96,13.90,80,4.0,296.3,336.6,298.8
948.2,606,18.8,18.0,96,13.86,80,4.0,296.4,336.5,298.8
947.7,611,18.7,18.0,96,13.85,80,4.0,296.4,336.5,298.8
947.1,616,18.7,18.0,96,13.88,80,4.0,296.4,336.6,298.9
946.5,621,18.7,18.0,96,13.89,80,4.0,296.5,336.7,298.9
945.9,626,18.7,18.0,96,13.87,79,3.9,296.5,336.7,299.0
945.4,632,18.6,18.0,96,13.85,79,3.9,296.5,336.6,299.0
944.8,637,18.6,18.0,96,13.85,79,3.9,296.5,336.6,299.0
944.2,642,18.6,18.0,96,13.85,79,3.9,296.5,336.7,299.0
943.7,647,18.5,17.9,96,13.84,79,3.9,296.5,336.6,299.0
943.1,652,18.5,17.9,96,13.81,79,3.8,296.5,336.5,299.0
942.5,657,18.4,17.8,96,13.77,79,3.8,296.6,336.5,299.0
942.0,663,18.4,17.8,96,13.75,79,3.8,296.6,336.4,299.0
941.4,668,18.4,17.8,96,13.71,79,3.8,296.6,336.4,299.1
940.8,673,18.4,17.7,96,13.67,79,3.7,296.6,336.3,299.1
940.3,678,18.3,17.6,96,13.61,79,3.7,296.6,336.1,299.1
939.7,683,18.3,17.5,95,13.54,79,3.7,296.7,335.9,299.1
939.1,688,18.3,17.4,95,13.47,79,3.6,296.7,335.8,299.1
938.6,693,18.2,17.4,95,13.44,78,3.6,296.7,335.7,299.1
938.1,698,18.2,17.4,95,13.43,78,3.6,296.7,335.7,299.1
937.5,703,18.2,17.4,95,13.46,78,3.5,296.8,335.8,299.1
937.0,708,18.2,17.4,95,13.47,78,3.5,296.8,335.8,299.2
936.4,714,18.1,17.3,95,13.42,77,3.5,296.8,335.7,299.2
935.8,719,18.1,17.3,95,13.36,77,3.5,296.8,335.6,299.2
935.3,724,18.1,17.2,95,13.34,76,3.4,296.9,335.6,299.2
934.7,729,18.1,17.2,95,13.35,76,3.4,296.9,335.7,299.3
934.1,734,18.0,17.2,95,13.36,75,3.4,296.9,335.7,299.3
933.6,740,18.0,17.2,95,13.34,75,3.4,296.9,335.6,299.3
933.0,745,18.0,17.1,95,13.28,74,3.4,296.9,335.5,299.3
932.4,750,18.0,17.1,94,13.24,73,3.4,297.0,335.4,299.3
931.9,755,17.9,17.0,94,13.23,73,3.4,297.0,335.5,299.4
931.3,760,17.9,17.0,95,13.24,72,3.4,297.0,335.5,299.4
930.7,766,17.9,17.1,95,13.26,71,3.4,297.0,335.6,299.4
930.2,771,17.8,17.0,95,13.26,70,3.4,297.0,335.6,299.4
929.6,777,17.8,17.0,95,13.27,69,3.4,297.1,335.6,299.4
928.9,782,17.7,17.1,96,13.29,69,3.4,297.1,335.7,299.4
928.3,788,17.7,17.1,96,13.32,68,3.4,297.1,335.8,299.5
927.7,794,17.7,17.1,96,13.33,67,3.5,297.1,335.8,299.5
927.0,800,17.6,17.0,96,13.29,66,3.5,297.1,335.7,299.5
926.4,806,17.6,17.0,96,13.23,66,3.5,297.2,335.7,299.5
925.8,812,17.6,16.9,96,13.23,65,3.5,297.2,335.7,299.6
925.2,817,17.6,17.0,96,13.25,64,3.6,297.3,335.8,299.6
925.0,819,17.6,17.0,96,13.26,63,3.6,297.3,335.8,299.7
924.6,823,17.6,17.0,96,13.26,63,3.6,297.3,335.9,299.7
924.0,828,17.5,16.9,96,13.24,63,3.6,297.3,335.8,299.7
923.5,833,17.5,16.9,96,13.20,62,3.6,297.3,335.7,299.7
922.9,838,17.5,16.8,95,13.13,62,3.7,297.4,335.6,299.7
922.4,843,17.5,16.7,95,13.05,61,3.7,297.4,335.4,299.8
922.0,847,17.5,16.6,94,12.99,60,3.7,297.5,335.3,299.8
921.5,851,17.5,16.6,94,12.98,60,3.7,297.5,335.3,299.9
921.0,856,17.5,16.6,94,13.02,60,3.7,297.6,335.5,299.9
920.5,860,17.5,16.6,94,13.04,59,3.8,297.6,335.6,300.0
920.0,865,17.5,16.6,95,13.04,59,3.8,297.7,335.6,300.0
919.6,869,17.5,16.6,94,13.01,59,3.8,297.7,335.6,300.0
919.1,874,17.4,16.5,94,12.95,58,3.8,297.7,335.4,300.0
918.6,878,17.4,16.4,94,12.88,58,3.8,297.7,335.2,300.0
918.1,883,17.4,16.3,93,12.80,58,3.8,297.7,335.0,300.0
917.6,888,17.4,16.2,93,12.72,58,3.8,297.8,334.9,300.1
917.1,892,17.4,16.1,92,12.69,58,3.7,297.8,334.8,300.1
916.6,897,17.4,16.1,92,12.68,58,3.7,297.9,334.8,300.1
916.1,902,17.4,16.1,92,12.68,58,3.7,297.9,334.9,300.1
915.5,907,17.4,16.1,92,12.68,58,3.7,297.9,334.9,300.2
915.0,912,17.3,16.1,93,12.69,58,3.7,297.9,335.0,300.2
914.4,917,17.3,16.1,93,12.69,58,3.6,298.0,335.0,300.2
913.9,922,17.2,16.1,93,12.71,59,3.6,297.9,335.0,300.2
913.3,927,17.2,16.1,93,12.72,59,3.6,297.9,335.0,300.2
912.8,933,17.1,16.1,94,12.72,59,3.6,297.9,335.1,300.2
912.2,938,17.1,16.1,94,12.71,60,3.5,297.9,335.0,300.2
911.7,943,17.0,16.1,94,12.69,60,3.5,297.9,335.0,300.2
911.2,948,17.0,16.0,94,12.65,60,3.5,298.0,334.9,300.2
910.6,953,17.0,16.0,94,12.62,61,3.4,298.0,334.8,300.3
910.1,958,17.0,15.9,94,12.61,61,3.4,298.0,334.9,300.3
909.6,963,17.0,15.9,94,12.60,62,3.4,298.1,334.9,300.3
909.0,968,16.9,15.9,94,12.61,62,3.3,298.1,334.9,300.3
908.5,973,16.9,15.9,94,12.59,62,3.3,298.1,334.8,300.3
908.0,978,16.8,15.8,94,12.56,63,3.3,298.1,334.8,300.3
907.5,983,16.8,15.8,94,12.55,63,3.2,298.1,334.7,300.3
907.0,987,16.7,15.8,94,12.54,63,3.2,298.1,334.7,300.3
906.5,992,16.7,15.7,94,12.51,64,3.2,298.1,334.6,300.4
906.0,997,16.7,15.7,94,12.48,64,3.2,298.1,334.6,300.4
905.4,1002,16.7,15.7,94,12.46,64,3.2,298.2,334.6,300.4
904.9,1007,16.7,15.6,93,12.42,64,3.2,298.2,334.5,300.4
904.4,1012,16.7,15.5,93,12.36,65,3.2,298.3,334.4,300.5
903.9,1017,16.7,15.4,93,12.30,65,3.1,298.3,334.3,300.5
903.3,1022,16.7,15.4,92,12.28,65,3.1,298.3,334.3,300.5
902.8,1027,16.6,15.4,93,12.31,65,3.1,298.4,334.4,300.6
902.3,1032,16.6,15.4,93,12.32,65,3.1,298.4,334.4,300.6
901.8,1037,16.6,15.4,93,12.28,65,3.1,298.4,334.3,300.6
901.3,1041,16.5,15.3,92,12.22,64,3.1,298.4,334.1,300.6
900.8,1046,16.5,15.2,92,12.15,64,3.1,298.4,334.0,300.6
900.3,1051,16.4,15.2,92,12.13,64,3.1,298.4,333.9,300.6
899.8,1055,16.4,15.2,92,12.15,64,3.1,298.4,334.0,300.6
899.3,1060,16.4,15.2,93,12.20,64,3.1,298.5,334.2,300.6
898.8,1064,16.4,15.3,93,12.23,64,3.0,298.5,334.3,300.7
898.3,1069,16.3,15.3,93,12.23,64,3.0,298.5,334.3,300.7
897.8,1074,16.3,15.2,93,12.19,64,3.0,298.5,334.2,300.7
897.3,1079,16.3,15.2,93,12.18,64,2.9,298.5,334.2,300.7
896.8,1084,16.2,15.2,93,12.17,64,2.9,298.5,334.2,300.7
896.3,1089,16.2,15.1,93,12.15,64,2.8,298.5,334.1,300.7
895.7,1094,16.2,15.0,93,12.09,64,2.8,298.6,334.0,300.7
895.2,1099,16.2,14.9,92,12.01,65,2.7,298.6,333.8,300.8
894.7,1104,16.2,14.8,92,11.94,65,2.7,298.7,333.7,300.8
894.1,1109,16.2,14.8,91,11.89,65,2.6,298.7,333.6,300.8
893.6,1114,16.1,14.7,91,11.84,65,2.6,298.7,333.4,300.9
893.0,1120,16.1,14.6,91,11.82,66,2.5,298.8,333.4,300.9
892.5,1125,16.1,14.6,91,11.81,66,2.5,298.8,333.4,300.9
892.0,1130,16.1,14.6,91,11.81,66,2.4,298.8,333.4,300.9
891.4,1135,16.0,14.6,91,11.81,67,2.4,298.8,333.4,300.9
890.9,1140,16.0,14.6,92,11.81,67,2.3,298.8,333.4,300.9
890.3,1145,15.9,14.6,92,11.79,67,2.3,298.8,333.4,300.9
889.8,1151,15.9,14.6,92,11.79,67,2.3,298.8,333.4,301.0
889.3,1156,15.8,14.5,92,11.79,67,2.3,298.8,333.4,300.9
888.8,1160,15.8,14.5,92,11.76,67,2.2,298.8,333.3,300.9
888.3,1165,15.8,14.5,92,11.74,66,2.2,298.8,333.3,301.0
887.8,1170,15.7,14.4,92,11.72,66,2.2,298.9,333.2,301.0
887.3,1175,15.7,14.4,92,11.69,65,2.3,298.9,333.2,301.0
886.8,1179,15.7,14.3,92,11.64,64,2.3,298.9,333.1,301.0
886.4,1184,15.7,14.2,91,11.59,63,2.3,298.9,332.9,301.0
885.9,1188,15.6,14.2,91,11.56,62,2.3,299.0,332.9,301.0
885.4,1192,15.6,14.2,91,11.54,60,2.4,299.0,332.9,301.1
885.0,1197,15.6,14.1,91,11.53,59,2.4,299.0,332.9,301.1
884.5,1201,15.6,14.1,91,11.51,57,2.5,299.0,332.8,301.1
884.0,1206,15.6,14.0,90,11.43,56,2.5,299.1,332.6,301.1
883.5,1211,15.6,13.8,89,11.31,54,2.6,299.1,332.3,301.1
883.0,1216,15.6,13.7,89,11.21,53,2.7,299.1,332.1,301.2
882.5,1221,15.6,13.6,88,11.17,51,2.7,299.2,332.0,301.2
882.0,1225,15.5,13.6,88,11.14,50,2.8,299.2,332.0,301.2
881.5,1230,15.5,13.6,88,11.14,49,2.8,299.2,332.0,301.2
881.0,1235,15.5,13.6,89,11.17,48,2.9,299.3,332.1,301.3
880.6,1239,15.4,13.6,89,11.20,47,3.0,299.3,332.2,301.3
880.1,1244,15.4,13.6,89,11.21,46,3.0,299.3,332.3,301.3
879.7,1248,15.4,13.6,89,11.20,45,3.0,299.3,332.2,301.3
879.3,1252,15.3,13.6,89,11.17,44,3.1,299.3,332.1,301.3
878.8,1256,15.3,13.5,89,11.12,44,3.1,299.3,332.0,301.3
878.4,1260,15.3,13.4,89,11.09,43,3.1,299.3,332.0,301.3
877.9,1265,15.3,13.4,89,11.08,43,3.1,299.3,332.0,301.3
877.4,1270,15.2,13.4,89,11.08,43,3.0,299.3,332.0,301.3
876.9,1274,15.2,13.4,89,11.11,43,3.0,299.4,332.0,301.4
876.4,1279,15.1,13.4,90,11.11,43,3.0,299.4,332.1,301.4
875.9,1285,15.1,13.4,89,11.07,44,2.9,299.4,331.9,301.3
875.4,1290,15.0,13.2,89,10.99,44,2.9,299.4,331.7,301.3
874.8,1295,15.0,13.1,89,10.91,45,2.8,299.4,331.5,301.3
874.3,1300,15.0,13.1,88,10.88,45,2.7,299.4,331.4,301.3
873.8,1305,14.9,13.1,89,10.87,46,2.7,299.4,331.4,301.3
873.3,1310,14.9,13.1,89,10.91,47,2.6,299.4,331.5,301.4
872.8,1314,14.9,13.2,90,10.97,48,2.5,299.4,331.7,301.4
872.3,1319,14.8,13.2,90,10.99,49,2.4,299.4,331.8,301.4
871.9,1324,14.8,13.2,90,10.99,50,2.4,299.4,331.8,301.4
871.4,1328,14.7,13.2,90,10.98,51,2.3,299.4,331.7,301.4
870.9,1333,14.7,13.2,91,10.98,53,2.2,299.4,331.8,301.4
870.5,1337,14.6,13.2,91,11.03,54,2.2,299.4,331.9,301.4
870.1,1341,14.6,13.2,92,11.06,55,2.1,299.4,332.0,301.4
869.7,1345,14.6,13.2,92,11.07,56,2.0,299.4,332.0,301.4
869.2,1349,14.5,13.3,92,11.08,56,2.0,299.4,332.0,301.4
868.8,1353,14.5,13.3,92,11.11,57,2.0,299.4,332.1,301.4
868.4,1357,14.4,13.3,93,11.13,57,1.9,299.4,332.2,301.4
868.0,1362,14.4,13.3,93,11.14,58,1.9,299.4,332.2,301.4
867.5,1366,14.4,13.3,93,11.13,58,1.9,299.4,332.2,301.4
867.0,1371,14.3,13.3,93,11.12,58,1.9,299.5,332.2,301.5
866.5,1376,14.3,13.3,94,11.14,58,1.9,299.5,332.3,301.5
866.0,1381,14.3,13.3,94,11.17,58,1.9,299.5,332.4,301.5
865.5,1386,14.2,13.3,94,11.15,57,1.9,299.5,332.3,301.5
865.0,1391,14.2,13.2,94,11.10,57,1.9,299.5,332.2,301.5
864.4,1396,14.1,13.1,94,11.06,57,1.9,299.5,332.1,301.5
863.9,1401,14.1,13.1,94,11.03,56,1.9,299.5,332.0,301.5
863.4,1407,14.1,13.1,94,11.03,56,2.0,299.5,332.0,301.5
862.8,1412,14.0,13.1,94,11.06,56,2.0,299.5,332.1,301.5
862.3,1417,14.0,13.1,95,11.08,56,2.1,299.5,332.2,301.5
861.7,1423,13.9,13.1,95,11.08,56,2.1,299.5,332.2,301.5
861.2,1428,13.9,13.1,95,11.05,56,2.2,299.5,332.1,301.5
860.7,1433,13.8,13.0,95,11.02,57,2.3,299.5,332.0,301.5
860.1,1438,13.8,13.0,95,11.01,57,2.3,299.5,331.9,301.5
859.6,1443,13.7,13.0,95,11.01,58,2.4,299.5,331.9,301.5
859.1,1448,13.7,13.0,96,11.04,59,2.5,299.5,332.1,301.5
858.6,1454,13.6,13.0,96,11.06,60,2.6,299.5,332.1,301.5
858.1,1459,13.6,13.0,96,11.04,61,2.6,299.6,332.1,301.6
857.6,1464,13.6,12.9,96,10.99,62,2.7,299.6,332.0,301.6
857.1,1469,13.6,12.9,95,10.94,63,2.8,299.6,331.9,301.6
856.6,1474,13.5,12.8,95,10.90,64,2.9,299.7,331.8,301.6
856.1,1478,13.5,12.7,95,10.87,65,3.0,299.7,331.7,301.6
855.6,1483,13.5,12.7,95,10.85,67,3.1,299.7,331.6,301.6
855.1,1488,13.4,12.7,95,10.86,68,3.2,299.7,331.7,301.6
854.7,1492,13.4,12.8,96,10.90,69,3.3,299.7,331.8,301.7
854.2,1497,13.4,12.8,96,10.94,70,3.4,299.7,331.9,301.7
853.7,1502,13.3,12.8,97,10.95,71,3.5,299.7,332.0,301.7
853.3,1506,13.3,12.8,97,10.97,72,3.5,299.7,332.0,301.7
852.8,1511,13.2,12.8,97,10.99,73,3.6,299.7,332.1,301.7
852.3,1516,13.2,12.9,98,11.01,74,3.7,299.7,332.2,301.7
851.8,1521,13.2,12.9,98,11.03,75,3.8,299.7,332.2,301.7
851.3,1525,13.1,12.9,98,11.03,76,3.9,299.7,332.2,301.7
850.8,1530,13.1,12.8,98,11.00,76,4.0,299.8,332.2,301.7
850.4,1535,13.1,12.7,98,10.91,77,4.1,299.8,332.0,301.7
850.0,1538,13.1,12.6,97,10.82,77,4.1,299.8,331.7,301.8
849.8,1540,13.1,12.5,96,10.78,77,4.2,299.8,331.7,301.8
849.3,1545,13.1,12.4,95,10.70,78,4.3,300.0,331.6,301.9
848.8,1551,13.2,12.3,95,10.65,78,4.4,300.0,331.5,302.0
848.2,1556,13.1,12.3,95,10.63,78,4.4,300.1,331.5,302.0
847.7,1561,13.1,12.2,95,10.60,78,4.5,300.1,331.4,302.0
847.2,1567,13.0,12.2,94,10.57,78,4.6,300.1,331.3,302.0
846.6,1572,13.0,12.1,94,10.55,78,4.6,300.1,331.3,302.0
846.1,1577,13.0,12.0,94,10.49,77,4.7,300.1,331.1,302.0
845.7,1581,13.0,11.9,93,10.40,77,4.7,300.2,330.9,302.0
845.2,1586,13.0,11.7,92,10.30,77,4.8,300.2,330.7,302.1
844.8,1591,13.0,11.7,92,10.26,77,4.8,300.3,330.6,302.1
844.3,1595,13.0,11.7,92,10.28,76,4.9,300.3,330.7,302.2
843.9,1600,13.0,11.7,92,10.32,76,4.9,300.3,330.9,302.2
843.4,1604,12.9,11.8,93,10.36,76,4.9,300.3,331.0,302.2
842.9,1609,12.9,11.8,93,10.35,75,5.0,300.3,331.0,302.2
842.5,1613,12.8,11.7,93,10.30,75,5.0,300.3,330.8,302.2
842.0,1618,12.8,11.6,92,10.28,75,5.0,300.4,330.8,302.2
841.5,1623,12.8,11.7,93,10.30,75,5.0,300.4,330.9,302.3
841.1,1628,12.8,11.7,93,10.36,75,5.0,300.4,331.1,302.3
840.5,1633,12.8,11.8,94,10.42,75,5.0,300.5,331.3,302.3
840.0,1638,12.7,11.9,94,10.45,75,5.0,300.5,331.4,302.4
839.5,1643,12.7,11.8,94,10.41,75,5.0,300.5,331.3,302.4
839.0,1648,12.7,11.6,93,10.29,76,5.0,300.5,331.0,302.4
838.5,1654,12.6,11.4,92,10.17,76,5.0,300.5,330.7,302.4
838.0,1659,12.6,11.3,92,10.09,76,5.0,300.6,330.5,302.4
837.5,1664,12.6,11.2,91,10.05,77,5.0,300.6,330.4,302.4
837.0,1668,12.6,11.2,91,10.04,77,5.0,300.7,330.4,302.5
836.5,1673,12.6,11.2,91,10.04,78,5.0,300.7,330.5,302.5
836.1,1678,12.6,11.2,91,10.01,78,5.0,300.7,330.4,302.5
835.6,1682,12.5,11.1,91,9.98,79,5.0,300.7,330.3,302.5
835.1,1687,12.5,11.0,90,9.91,80,5.0,300.8,330.2,302.5
834.7,1692,12.5,10.8,89,9.80,80,5.0,300.8,329.9,302.6
834.2,1696,12.5,10.6,88,9.70,81,5.0,300.8,329.7,302.6
833.7,1701,12.5,10.5,87,9.60,81,5.0,300.9,329.4,302.6
833.2,1706,12.6,10.3,86,9.48,81,5.0,301.0,329.2,302.7
832.7,1711,12.7,10.1,85,9.39,82,4.9,301.2,329.1,302.9
832.2,1716,12.7,10.0,84,9.33,82,4.9,301.2,329.0,302.9
831.7,1721,12.7,10.0,84,9.31,82,4.9,301.3,329.0,302.9
831.2,1726,12.6,10.0,84,9.33,82,4.8,301.3,329.1,303.0
830.8,1731,12.6,10.0,84,9.34,82,4.8,301.3,329.1,303.0
830.3,1736,12.5,10.0,84,9.32,82,4.8,301.3,329.0,303.0
829.8,1741,12.5,9.9,84,9.28,81,4.7,301.3,328.9,303.0
829.3,1747,12.5,9.9,84,9.27,81,4.7,301.3,328.9,303.0
828.7,1752,12.4,9.9,84,9.25,81,4.6,301.3,328.9,303.0
828.2,1757,12.4,9.8,84,9.23,80,4.5,301.3,328.9,303.0
827.7,1762,12.4,9.8,84,9.23,79,4.5,301.4,328.9,303.1
827.3,1767,12.4,9.7,84,9.19,79,4.4,301.5,328.9,303.1
826.8,1772,12.4,9.6,83,9.12,78,4.3,301.5,328.8,303.2
826.3,1777,12.4,9.6,83,9.11,77,4.3,301.6,328.8,303.2
825.8,1781,12.4,9.6,83,9.14,76,4.2,301.6,328.9,303.3
825.3,1786,12.4,9.6,83,9.16,75,4.2,301.6,329.0,303.3
824.9,1791,12.4,9.6,83,9.16,75,4.1,301.7,329.0,303.3
824.4,1796,12.3,9.6,83,9.15,74,4.1,301.7,329.0,303.3
823.9,1801,12.3,9.6,84,9.15,73,4.0,301.7,329.0,303.3
823.4,1806,12.2,9.6,84,9.16,73,4.0,301.7,329.0,303.3
822.8,1812,12.2,9.6,84,9.17,72,4.0,301.7,329.1,303.4
822.3,1817,12.2,9.5,84,9.09,72,4.0,301.7,328.9,303.4
821.7,1823,12.1,9.1,81,8.84,72,3.9,301.8,328.2,303.4
821.2,1829,12.2,8.2,77,8.34,71,3.9,301.9,326.8,303.4
820.6,1834,12.3,7.1,70,7.72,71,3.9,302.0,325.2,303.4
820.1,1840,12.4,6.1,65,7.21,71,3.9,302.2,323.9,303.5
819.5,1845,12.5,5.6,63,6.99,71,3.9,302.3,323.4,303.6
819.0,1851,12.5,5.7,63,7.01,71,3.9,302.4,323.6,303.7
818.5,1856,12.5,5.8,64,7.08,71,4.0,302.5,323.9,303.7
818.0,1861,12.5,5.8,64,7.10,72,4.0,302.5,323.9,303.8
817.5,1866,12.4,5.4,62,6.88,72,4.0,302.5,323.3,303.8
