PRES,HGHT,TEMP,DWPT,RELH,MIXR,DRCT,SPED,THTA,THTE,THTV
1019.2,31,23.4,20.6,84,15.11,64,4.9,294.9,338.4,297.6
1018.9,33,23.6,20.8,85,15.37,62,4.3,295.1,339.3,297.8
1018.4,37,23.6,20.8,84,15.39,60,4.2,295.2,339.5,297.9
1017.7,43,23.6,20.8,84,15.39,60,4.4,295.3,339.6,298.0
1016.9,51,23.5,20.7,84,15.29,59,4.7,295.3,339.3,298.0
1016.3,56,23.5,20.6,83,15.16,59,5.0,295.3,339.0,298.0
1015.5,62,23.5,20.3,82,14.97,59,5.3,295.4,338.5,298.0
1014.9,67,23.6,20.2,81,14.82,60,5.6,295.4,338.2,298.1
1014.3,73,23.6,20.0,81,14.70,60,5.9,295.5,337.9,298.1
1013.7,78,23.5,20.0,80,14.65,60,6.2,295.5,337.8,298.1
1013.1,83,23.5,20.0,81,14.65,60,6.4,295.5,337.8,298.1
1012.6,87,23.4,20.0,81,14.67,60,6.6,295.5,337.8,298.1
1012.1,92,23.4,20.0,81,14.65,60,6.8,295.5,337.8,298.1
1011.6,96,23.3,19.9,81,14.63,60,7.0,295.5,337.7,298.1
1011.0,101,23.3,19.9,81,14.66,60,7.2,295.5,337.8,298.1
1010.5,105,23.3,20.0,82,14.72,60,7.3,295.5,338.0,298.1
1010.0,110,23.2,20.1,82,14.78,60,7.4,295.5,338.1,298.1
1009.4,115,23.2,20.1,83,14.80,60,7.6,295.5,338.2,298.1
1008.8,120,23.1,20.0,83,14.79,61,7.6,295.5,338.2,298.2
1008.2,125,23.1,20.0,83,14.78,61,7.7,295.5,338.1,298.1
1007.6,130,23.0,20.0,83,14.74,61,7.8,295.5,338.0,298.1
1007.1,135,23.0,19.9,83,14.72,61,7.9,295.5,338.0,298.1
1006.5,140,22.9,20.0,83,14.76,62,7.9,295.5,338.1,298.1
1005.9,145,22.9,20.0,84,14.79,62,8.0,295.5,338.2,298.2
1005.3,150,22.8,20.0,84,14.79,62,8.0,295.5,338.2,298.2
1004.7,156,22.8,20.0,84,14.77,62,8.0,295.5,338.1,298.1
1004.2,161,22.7,19.9,84,14.74,63,8.1,295.5,338.0,298.1
1003.6,166,22.7,19.9,84,14.72,63,8.1,295.5,338.0,298.1
1003.0,171,22.6,19.9,84,14.72,63,8.1,295.5,338.0,298.1
1002.4,176,22.6,19.9,85,14.71,63,8.1,295.5,337.9,298.1
1001.8,181,22.5,19.8,85,14.67,63,8.1,295.5,337.8,298.1
1001.2,186,22.5,19.7,84,14.60,63,8.2,295.5,337.6,298.1
1000.6,191,22.4,19.6,84,14.52,63,8.2,295.5,337.4,298.1
1000.1,196,22.4,19.5,84,14.41,63,8.2,295.5,337.1,298.1
1000.0,197,22.4,19.5,84,14.38,63,8.2,295.5,337.0,298.1
999.6,201,22.4,19.4,83,14.29,63,8.2,295.6,336.8,298.1
999.0,205,22.4,19.3,83,14.24,63,8.3,295.6,336.7,298.1
998.5,210,22.3,19.3,83,14.26,63,8.3,295.6,336.7,298.1
997.9,215,22.3,19.3,83,14.27,63,8.3,295.6,336.8,298.1
997.3,220,22.3,19.3,84,14.31,63,8.4,295.6,336.9,298.2
996.7,226,22.2,19.5,85,14.46,63,8.4,295.6,337.3,298.2
996.1,231,22.1,19.6,86,14.55,63,8.4,295.6,337.5,298.1
995.5,236,22.0,19.5,86,14.49,62,8.4,295.6,337.4,298.1
994.9,242,22.0,19.4,85,14.42,62,8.5,295.6,337.2,298.1
994.2,247,22.0,19.4,85,14.41,62,8.5,295.6,337.2,298.2
993.6,253,21.9,19.5,86,14.49,62,8.5,295.6,337.4,298.2
993.0,258,21.8,19.5,87,14.53,62,8.6,295.6,337.5,298.2
992.4,264,21.8,19.6,87,14.60,61,8.6,295.6,337.7,298.2
991.7,269,21.7,19.6,88,14.65,61,8.6,295.6,337.8,298.1
991.1,275,21.6,19.6,88,14.61,61,8.6,295.5,337.7,298.1
990.5,280,21.6,19.5,88,14.54,61,8.7,295.5,337.5,298.1
989.8,286,21.5,19.3,87,14.42,61,8.7,295.6,337.2,298.1
989.2,292,21.6,19.2,86,14.30,61,8.7,295.6,336.9,298.1
988.5,298,21.5,19.3,87,14.41,61,8.7,295.6,337.2,298.2
987.8,304,21.4,19.5,89,14.59,61,8.8,295.6,337.6,298.1
987.1,310,21.3,19.6,90,14.66,61,8.8,295.5,337.8,298.1
986.4,316,21.3,19.5,90,14.65,61,8.8,295.6,337.8,298.1
985.7,322,21.2,19.5,90,14.63,62,8.8,295.6,337.7,298.1
985.0,328,21.1,19.5,90,14.65,62,8.8,295.6,337.8,298.1
984.3,335,21.1,19.5,91,14.65,62,8.9,295.6,337.8,298.1
983.6,341,21.0,19.4,91,14.56,63,8.9,295.5,337.5,298.1
982.9,347,20.9,19.1,89,14.26,63,8.9,295.5,336.6,298.0
982.2,353,20.9,18.6,86,13.82,63,8.9,295.6,335.5,298.0
981.5,359,20.9,18.3,85,13.59,64,8.9,295.7,334.9,298.1
980.9,365,20.9,18.4,85,13.67,64,8.9,295.7,335.2,298.1
980.3,370,20.9,18.5,86,13.76,65,8.9,295.7,335.4,298.1
979.6,376,20.8,18.4,86,13.73,65,8.9,295.7,335.3,298.1
979.0,381,20.8,18.4,86,13.70,66,8.9,295.7,335.3,298.1
978.4,387,20.7,18.4,86,13.73,66,8.9,295.7,335.4,298.2
977.8,392,20.7,18.4,87,13.74,67,8.8,295.7,335.4,298.1
977.2,397,20.6,18.3,87,13.71,67,8.8,295.7,335.3,298.1
976.7,402,20.6,18.3,87,13.66,68,8.8,295.7,335.1,298.1
976.1,407,20.5,18.3,87,13.64,68,8.8,295.7,335.1,298.1
975.6,412,20.5,18.3,87,13.69,68,8.7,295.7,335.2,298.1
975.1,417,20.4,18.3,88,13.74,69,8.7,295.7,335.4,298.1
974.5,421,20.4,18.3,88,13.73,69,8.7,295.7,335.4,298.1
974.0,426,20.4,18.3,88,13.69,69,8.6,295.7,335.3,298.1
973.5,431,20.3,18.3,88,13.69,69,8.6,295.7,335.3,298.1
972.9,435,20.3,18.3,88,13.72,69,8.5,295.7,335.4,298.2
972.4,440,20.2,18.3,89,13.73,69,8.5,295.7,335.4,298.2
971.8,446,20.2,18.3,89,13.71,69,8.4,295.7,335.3,298.2
971.2,451,20.1,18.2,89,13.64,69,8.4,295.7,335.1,298.1
970.6,456,20.1,18.1,88,13.59,69,8.3,295.7,335.0,298.1
970.1,461,20.0,18.1,89,13.57,69,8.3,295.7,334.9,298.1
969.5,466,20.0,18.1,89,13.58,69,8.2,295.7,335.0,298.1
969.0,471,19.9,18.1,89,13.60,69,8.2,295.7,335.0,298.2
968.5,475,19.9,18.1,89,13.59,68,8.2,295.7,335.0,298.2
968.0,480,19.9,18.1,90,13.62,68,8.1,295.7,335.1,298.2
967.5,484,19.8,18.1,90,13.66,68,8.1,295.7,335.2,298.2
967.0,488,19.8,18.2,90,13.69,67,8.1,295.7,335.3,298.2
966.6,492,19.7,18.1,91,13.68,67,8.1,295.7,335.3,298.2
966.1,496,19.7,18.1,91,13.67,67,8.1,295.7,335.2,298.2
965.7,500,19.7,18.1,91,13.67,67,8.1,295.7,335.2,298.2
965.2,505,19.6,18.1,91,13.67,67,8.1,295.7,335.2,298.2
964.7,509,19.6,18.1,91,13.68,66,8.1,295.8,335.2,298.2
964.3,513,19.5,18.1,92,13.69,66,8.2,295.7,335.3,298.2
963.8,517,19.5,18.1,92,13.69,66,8.2,295.7,335.3,298.2
963.3,522,19.4,18.1,92,13.67,66,8.2,295.7,335.2,298.2
962.8,526,19.4,18.1,92,13.67,67,8.3,295.7,335.2,298.2
962.2,531,19.4,18.1,92,13.69,67,8.3,295.7,335.3,298.2
961.7,536,19.3,18.1,93,13.70,67,8.4,295.8,335.3,298.2
961.1,541,19.3,18.1,93,13.71,67,8.4,295.8,335.4,298.2
960.5,546,19.2,18.1,93,13.71,68,8.5,295.8,335.4,298.2
959.9,552,19.2,18.0,93,13.69,68,8.5,295.8,335.3,298.2
959.4,557,19.1,18.0,93,13.65,68,8.6,295.8,335.2,298.2
958.8,562,19.1,17.9,93,13.60,69,8.7,295.8,335.0,298.2
958.2,567,19.0,17.9,93,13.56,69,8.7,295.8,334.9,298.2
957.7,572,19.0,17.9,93,13.56,69,8.8,295.8,334.9,298.2
957.2,577,18.9,17.9,94,13.58,70,8.8,295.8,335.0,298.2
956.6,581,18.9,17.9,94,13.59,70,8.9,295.8,335.0,298.2
956.1,586,18.9,17.8,94,13.57,71,8.9,295.8,335.0,298.2
955.6,591,18.8,17.8,94,13.55,71,9.0,295.8,334.9,298.2
955.1,595,18.8,17.8,94,13.52,71,9.0,295.8,334.8,298.2
954.6,600,18.7,17.7,94,13.49,72,9.1,295.8,334.7,298.2
954.1,604,18.7,17.7,94,13.44,72,9.1,295.8,334.6,298.1
953.6,609,18.6,17.6,94,13.39,72,9.1,295.8,334.5,298.2
953.1,613,18.6,17.6,94,13.37,73,9.2,295.8,334.4,298.2
952.6,618,18.6,17.6,94,13.38,73,9.2,295.8,334.5,298.2
952.1,622,18.6,17.6,94,13.38,73,9.2,295.8,334.5,298.2
951.7,626,18.5,17.5,94,13.35,73,9.2,295.8,334.4,298.2
951.2,631,18.5,17.5,94,13.31,73,9.2,295.9,334.3,298.2
950.7,635,18.5,17.4,93,13.26,74,9.2,295.9,334.2,298.2
950.2,640,18.5,17.3,93,13.21,74,9.2,295.9,334.1,298.3
949.6,645,18.4,17.2,92,13.11,74,9.2,295.9,333.9,298.3
949.1,650,18.4,17.0,91,12.98,74,9.2,296.0,333.5,298.3
948.5,655,18.4,17.0,91,12.92,74,9.2,296.0,333.4,298.3
948.0,659,18.4,17.0,91,12.94,74,9.2,296.0,333.5,298.3
947.5,664,18.3,17.0,92,12.94,74,9.1,296.0,333.4,298.3
947.0,669,18.3,16.9,92,12.93,74,9.1,296.0,333.4,298.3
946.5,673,18.3,17.0,92,12.99,74,9.1,296.0,333.6,298.3
946.0,678,18.2,17.1,93,13.10,74,9.0,296.0,333.9,298.3
945.5,682,18.2,17.2,94,13.17,74,9.0,296.0,334.1,298.4
944.9,687,18.1,17.2,94,13.18,74,8.9,296.0,334.1,298.3
944.4,692,18.0,17.2,95,13.16,74,8.8,296.0,334.1,298.3
943.9,697,18.0,17.1,95,13.14,74,8.8,296.0,334.0,298.3
943.3,702,18.0,17.0,94,13.07,75,8.7,296.0,333.8,298.3
942.8,707,17.9,16.9,94,12.97,75,8.6,296.0,333.5,298.3
942.3,712,17.9,16.8,93,12.90,74,8.6,296.0,333.3,298.3
941.8,716,17.8,16.8,94,12.92,74,8.5,296.0,333.4,298.3
941.3,721,17.8,16.9,95,12.95,74,8.4,296.0,333.4,298.3
940.8,725,17.7,16.8,94,12.91,74,8.4,296.0,333.3,298.3
940.3,730,17.7,16.7,94,12.84,74,8.3,296.0,333.2,298.3
939.8,734,17.7,16.7,94,12.81,74,8.2,296.1,333.1,298.3
939.3,739,17.7,16.7,94,12.81,74,8.2,296.1,333.2,298.3
938.8,743,17.6,16.7,94,12.86,74,8.1,296.1,333.3,298.4
938.3,748,17.6,16.8,95,12.95,74,8.1,296.1,333.5,298.4
937.8,753,17.5,16.9,96,13.01,74,8.1,296.0,333.7,298.3
937.2,758,17.4,16.9,96,13.01,74,8.0,296.0,333.7,298.3
936.7,763,17.4,16.8,96,12.97,74,8.0,296.0,333.5,298.3
936.1,768,17.4,16.7,96,12.86,74,8.0,296.0,333.2,298.3
935.6,773,17.4,16.5,95,12.69,73,8.0,296.1,332.8,298.3
935.0,778,17.4,16.3,94,12.60,73,8.0,296.2,332.7,298.4
934.5,782,17.4,16.3,93,12.60,73,8.0,296.2,332.7,298.5
934.0,787,17.4,16.4,94,12.63,73,8.1,296.2,332.8,298.5
933.5,792,17.3,16.3,94,12.58,73,8.1,296.2,332.7,298.5
933.0,796,17.3,16.1,93,12.42,73,8.1,296.2,332.2,298.5
932.5,800,17.3,15.9,91,12.26,72,8.2,296.3,331.9,298.5
932.1,805,17.3,15.8,91,12.19,72,8.3,296.4,331.7,298.5
931.6,809,17.3,15.8,90,12.17,72,8.3,296.4,331.7,298.6
931.1,813,17.3,15.8,91,12.21,72,8.4,296.4,331.9,298.6
930.7,818,17.3,15.8,91,12.26,72,8.5,296.4,332.0,298.6
930.2,822,17.2,15.8,92,12.26,72,8.6,296.4,332.0,298.6
929.8,826,17.2,15.8,92,12.24,72,8.6,296.4,331.9,298.6
929.4,829,17.1,15.7,91,12.18,72,8.7,296.4,331.7,298.6
929.0,833,17.1,15.7,91,12.17,72,8.8,296.4,331.8,298.6
928.7,836,17.1,15.7,92,12.19,72,8.8,296.4,331.8,298.6
928.3,839,17.1,15.8,92,12.22,72,8.9,296.5,331.9,298.6
928.0,843,17.0,15.8,92,12.24,72,9.0,296.5,331.9,298.6
927.6,846,17.0,15.8,92,12.25,72,9.0,296.5,332.0,298.6
927.2,849,17.0,15.8,93,12.25,72,9.1,296.5,332.0,298.7
926.8,853,17.0,15.7,92,12.21,72,9.1,296.5,331.9,298.6
926.5,857,16.9,15.6,92,12.12,72,9.1,296.5,331.6,298.6
926.0,860,17.0,15.5,91,12.06,73,9.1,296.6,331.6,298.7
925.6,864,17.0,15.5,91,12.04,73,9.1,296.6,331.6,298.8
925.2,868,16.9,15.5,92,12.07,73,9.2,296.6,331.6,298.7
925.0,870,16.9,15.6,92,12.10,73,9.1,296.5,331.7,298.7
924.7,872,16.8,15.6,93,12.13,73,9.1,296.5,331.7,298.7
924.3,877,16.7,15.6,93,12.13,73,9.1,296.5,331.7,298.6
923.8,881,16.7,15.6,93,12.14,73,9.1,296.5,331.7,298.7
923.4,885,16.7,15.6,93,12.15,74,9.1,296.5,331.7,298.6
922.9,889,16.6,15.5,93,12.11,74,9.1,296.5,331.6,298.6
922.5,893,16.6,15.5,93,12.07,74,9.0,296.5,331.5,298.7
922.0,898,16.6,15.4,93,12.05,74,9.0,296.5,331.5,298.7
921.6,902,16.5,15.4,93,12.05,74,9.0,296.5,331.5,298.7
921.1,906,16.5,15.4,93,12.06,74,9.0,296.5,331.5,298.7
920.6,911,16.4,15.4,94,12.06,74,8.9,296.5,331.5,298.7
920.1,915,16.4,15.4,94,12.03,74,8.9,296.5,331.5,298.7
919.7,919,16.4,15.4,94,12.02,75,8.9,296.6,331.5,298.7
919.2,924,16.4,15.4,94,12.04,75,8.8,296.6,331.6,298.8
918.7,928,16.4,15.4,94,12.06,75,8.8,296.6,331.6,298.7
918.3,932,16.3,15.4,94,12.04,75,8.8,296.6,331.5,298.7
917.9,936,16.2,15.3,94,12.02,75,8.8,296.6,331.5,298.7
917.4,940,16.2,15.3,95,12.02,75,8.8,296.6,331.5,298.7
917.0,944,16.2,15.4,95,12.08,75,8.8,296.6,331.6,298.7
916.6,948,16.1,15.5,96,12.18,74,8.8,296.6,331.9,298.7
916.2,952,16.0,15.6,97,12.24,74,8.8,296.5,332.0,298.7
915.8,955,16.0,15.6,97,12.23,74,8.8,296.5,332.0,298.6
915.4,959,15.9,15.5,97,12.18,74,8.8,296.5,331.8,298.6
915.0,963,15.9,15.4,97,12.12,74,8.8,296.5,331.6,298.6
914.6,966,15.9,15.4,97,12.11,74,8.9,296.5,331.6,298.6
914.2,970,15.8,15.4,97,12.12,74,8.9,296.5,331.7,298.7
913.8,974,15.8,15.4,97,12.13,74,8.9,296.5,331.7,298.7
913.4,978,15.8,15.4,97,12.11,74,9.0,296.5,331.7,298.7
913.0,982,15.8,15.3,97,12.09,74,9.0,296.5,331.6,298.7
912.6,986,15.7,15.3,98,12.10,74,9.0,296.5,331.6,298.7
912.1,990,15.7,15.3,98,12.11,74,9.1,296.5,331.7,298.7
911.7,993,15.6,15.3,98,12.08,74,9.1,296.5,331.6,298.7
911.3,997,15.6,15.2,98,12.02,74,9.2,296.5,331.4,298.7
910.9,1001,15.6,15.1,97,11.91,74,9.2,296.5,331.1,298.7
910.5,1005,15.6,14.9,95,11.77,74,9.3,296.6,330.8,298.7
910.1,1009,15.7,14.8,95,11.74,75,9.3,296.7,330.9,298.8
909.7,1013,15.7,15.0,96,11.88,75,9.4,296.8,331.3,298.9
909.3,1016,15.6,15.3,98,12.07,75,9.4,296.7,331.8,298.8
908.8,1020,15.5,15.3,99,12.13,75,9.5,296.6,331.9,298.8
908.4,1024,15.5,15.2,98,12.05,75,9.6,296.6,331.6,298.8
908.0,1028,15.4,15.1,98,12.01,76,9.6,296.6,331.5,298.8
907.5,1033,15.4,15.2,99,12.04,76,9.7,296.6,331.6,298.8
907.0,1037,15.4,15.2,99,12.03,76,9.7,296.7,331.6,298.8
906.5,1042,15.3,15.1,98,11.96,77,9.8,296.7,331.4,298.8
906.0,1047,15.3,14.8,97,11.76,77,9.8,296.7,330.9,298.8
905.5,1052,15.4,14.4,94,11.48,77,9.9,296.8,330.2,298.9
904.9,1057,15.5,14.3,93,11.38,78,9.9,297.0,330.1,299.0
904.4,1062,15.4,14.4,94,11.51,78,10.0,297.0,330.5,299.0
903.9,1066,15.3,14.8,97,11.77,78,10.0,296.9,331.2,299.0
903.5,1071,15.2,15.0,98,11.92,79,10.1,296.8,331.5,299.0
903.0,1075,15.2,14.9,98,11.88,79,10.1,296.8,331.4,298.9
902.5,1080,15.1,14.6,97,11.66,79,10.1,296.9,330.8,298.9
902.0,1084,15.1,14.3,95,11.40,79,10.2,296.9,330.1,298.9
901.5,1089,15.2,14.1,93,11.30,79,10.2,297.0,329.9,299.0
901.1,1093,15.2,14.1,94,11.31,79,10.2,297.0,330.0,299.0
900.6,1098,15.1,14.1,94,11.34,80,10.2,297.0,330.0,299.0
900.1,1103,15.1,14.1,94,11.32,80,10.3,297.0,330.0,299.0
899.5,1108,15.1,14.1,94,11.30,80,10.3,297.1,330.1,299.1
899.0,1113,15.1,14.1,94,11.33,80,10.3,297.2,330.2,299.2
898.5,1118,15.0,14.2,95,11.38,80,10.3,297.1,330.3,299.2
898.0,1122,15.0,14.1,95,11.34,80,10.3,297.1,330.1,299.1
897.5,1127,14.9,13.9,94,11.20,79,10.3,297.1,329.8,299.1
897.0,1132,14.9,13.7,92,11.07,79,10.3,297.2,329.5,299.2
896.5,1137,15.0,13.6,92,11.02,79,10.3,297.3,329.4,299.3
896.0,1141,15.0,13.6,91,10.97,79,10.3,297.3,329.3,299.2
895.6,1145,15.0,13.5,91,10.89,79,10.3,297.3,329.1,299.3
895.1,1150,15.0,13.3,90,10.82,79,10.3,297.4,329.0,299.3
894.6,1154,15.0,13.3,90,10.81,79,10.2,297.4,329.0,299.4
894.2,1159,15.0,13.3,90,10.81,79,10.2,297.5,329.0,299.4
893.7,1163,14.9,13.3,90,10.79,78,10.2,297.5,329.0,299.4
893.2,1168,14.9,13.3,90,10.79,78,10.1,297.5,329.0,299.4
892.6,1173,14.9,13.3,91,10.84,78,10.1,297.5,329.2,299.4
892.1,1178,14.8,13.4,91,10.90,78,10.1,297.5,329.3,299.4
891.6,1183,14.8,13.4,92,10.91,78,10.0,297.5,329.4,299.4
891.1,1188,14.7,13.4,92,10.91,78,10.0,297.5,329.4,299.5
890.5,1193,14.7,13.4,92,10.93,78,9.9,297.5,329.5,299.5
890.0,1198,14.6,13.4,93,10.95,78,9.9,297.5,329.5,299.5
889.5,1203,14.6,13.4,93,10.93,78,9.8,297.5,329.5,299.5
889.1,1207,14.6,13.3,92,10.88,78,9.8,297.5,329.3,299.5
888.6,1211,14.6,13.2,92,10.83,78,9.7,297.6,329.2,299.5
888.2,1216,14.6,13.1,91,10.76,77,9.6,297.6,329.1,299.5
887.8,1220,14.6,13.1,91,10.71,77,9.6,297.7,329.0,299.6
887.4,1223,14.5,13.0,91,10.68,77,9.5,297.7,328.9,299.6
887.0,1227,14.5,13.0,90,10.65,77,9.5,297.7,328.8,299.6
886.5,1231,14.5,12.9,90,10.60,77,9.5,297.7,328.8,299.6
886.1,1235,14.5,12.8,89,10.55,77,9.4,297.8,328.7,299.7
885.7,1239,14.6,12.7,89,10.50,77,9.4,297.9,328.6,299.7
885.3,1243,14.6,12.7,88,10.45,77,9.4,297.9,328.5,299.8
884.8,1248,14.6,12.6,88,10.41,77,9.3,298.0,328.5,299.8
884.4,1252,14.6,12.6,88,10.40,77,9.3,298.0,328.5,299.9
883.9,1257,14.6,12.5,88,10.39,77,9.3,298.0,328.5,299.9
883.4,1261,14.5,12.5,88,10.38,77,9.3,298.0,328.5,299.9
882.9,1266,14.5,12.5,88,10.37,77,9.3,298.0,328.4,299.9
882.3,1272,14.4,12.5,88,10.38,77,9.3,298.0,328.5,299.9
881.8,1277,14.4,12.5,88,10.38,77,9.4,298.0,328.5,299.9
881.3,1282,14.3,12.5,89,10.36,77,9.4,298.0,328.4,299.9
880.8,1286,14.3,12.4,88,10.34,77,9.4,298.1,328.4,299.9
880.3,1291,14.3,12.4,89,10.35,77,9.5,298.1,328.4,299.9
879.8,1295,14.2,12.5,89,10.39,77,9.5,298.1,328.5,299.9
879.4,1300,14.2,12.5,90,10.42,77,9.6,298.1,328.6,299.9
879.0,1304,14.1,12.5,90,10.43,77,9.6,298.1,328.6,299.9
878.5,1308,14.1,12.5,90,10.44,77,9.7,298.1,328.7,300.0
878.1,1312,14.1,12.5,90,10.43,77,9.7,298.1,328.7,300.0
877.6,1317,14.1,12.5,90,10.42,77,9.8,298.1,328.7,300.0
877.2,1321,14.0,12.4,90,10.39,77,9.9,298.1,328.6,300.0
876.7,1326,14.0,12.3,89,10.31,78,10.0,298.2,328.4,300.0
876.2,1331,14.0,12.1,88,10.20,78,10.0,298.2,328.1,300.1
875.7,1335,14.0,11.9,87,10.07,78,10.1,298.3,327.8,300.1
875.3,1340,14.0,11.8,86,9.96,78,10.2,298.3,327.5,300.1
874.8,1344,14.0,11.7,86,9.92,78,10.2,298.3,327.5,300.1
874.3,1349,14.0,11.7,86,9.94,78,10.3,298.4,327.6,300.2
873.9,1353,14.0,11.7,86,9.96,79,10.4,298.4,327.6,300.2
873.4,1358,13.9,11.7,86,9.93,79,10.4,298.4,327.6,300.2
872.9,1363,13.9,11.6,86,9.90,79,10.5,298.4,327.5,300.2
872.4,1368,13.9,11.6,86,9.88,79,10.5,298.4,327.5,300.2
871.8,1373,13.8,11.5,86,9.81,79,10.6,298.4,327.3,300.2
871.3,1378,13.8,11.3,85,9.69,79,10.6,298.5,327.0,300.2
870.7,1384,13.8,11.0,83,9.54,79,10.6,298.5,326.6,300.3
870.2,1389,13.8,10.8,82,9.39,79,10.7,298.6,326.3,300.3
869.7,1394,13.9,10.6,81,9.25,79,10.7,298.7,326.0,300.3
869.1,1399,13.8,10.4,80,9.13,79,10.7,298.7,325.7,300.4
868.6,1404,13.8,10.2,78,9.00,79,10.7,298.8,325.4,300.4
868.1,1409,13.9,10.0,77,8.89,79,10.7,298.9,325.1,300.5
867.6,1414,13.9,9.9,77,8.83,79,10.6,298.9,325.0,300.5
867.2,1418,13.9,9.8,76,8.78,79,10.6,299.0,324.9,300.6
866.7,1423,13.9,9.6,75,8.72,79,10.6,299.0,324.8,300.6
866.2,1428,13.9,9.5,75,8.63,78,10.5,299.1,324.6,300.6
865.7,1432,13.9,9.3,74,8.52,78,10.5,299.1,324.3,300.6
865.2,1437,13.9,9.1,73,8.42,78,10.4,299.2,324.1,300.7
864.8,1441,13.9,9.0,73,8.38,77,10.3,299.2,324.0,300.7
864.3,1446,13.8,9.1,73,8.40,77,10.2,299.2,324.1,300.7
863.9,1450,13.8,9.1,73,8.41,77,10.2,299.2,324.1,300.7
863.5,1454,13.8,9.0,73,8.38,76,10.1,299.2,324.0,300.7
863.1,1458,13.8,8.9,73,8.33,76,10.0,299.2,323.9,300.7
862.7,1462,13.7,8.9,73,8.33,75,9.9,299.2,323.9,300.7
862.3,1466,13.7,8.9,73,8.33,75,9.8,299.2,323.9,300.7
861.9,1470,13.7,8.9,73,8.33,74,9.8,299.2,324.0,300.7
861.5,1473,13.6,8.9,73,8.34,74,9.7,299.2,324.0,300.8
861.1,1477,13.6,8.9,73,8.34,73,9.6,299.2,324.0,300.8
860.7,1481,13.5,8.9,74,8.35,73,9.6,299.2,324.0,300.8
860.4,1485,13.5,8.9,74,8.34,72,9.6,299.2,324.0,300.7
860.0,1489,13.5,8.9,74,8.34,72,9.5,299.3,324.0,300.8
859.5,1493,13.5,8.9,74,8.34,72,9.5,299.3,324.0,300.8
859.1,1497,13.4,8.8,74,8.32,71,9.6,299.3,324.0,300.8
858.7,1501,13.4,8.7,73,8.27,71,9.6,299.3,323.8,300.8
858.4,1504,13.4,8.6,73,8.22,71,9.6,299.3,323.7,300.8
858.0,1508,13.3,8.6,73,8.19,71,9.7,299.3,323.6,300.8
857.6,1512,13.3,8.6,73,8.18,71,9.8,299.3,323.6,300.8
857.2,1516,13.3,8.5,73,8.18,71,9.9,299.3,323.6,300.8
856.8,1520,13.3,8.6,73,8.19,71,10.0,299.3,323.6,300.8
856.4,1524,13.2,8.5,73,8.18,71,10.1,299.4,323.7,300.8
855.9,1528,13.2,8.5,73,8.18,71,10.2,299.4,323.7,300.9
855.5,1532,13.2,8.5,73,8.16,71,10.4,299.4,323.7,300.9
855.1,1537,13.3,8.4,72,8.10,71,10.5,299.5,323.6,301.0
854.7,1541,13.3,8.2,72,8.03,71,10.6,299.5,323.4,301.0
854.2,1545,13.2,8.2,71,7.99,72,10.8,299.6,323.3,301.0
853.8,1549,13.2,8.1,71,7.95,72,10.9,299.6,323.2,301.0
853.4,1554,13.2,8.0,71,7.91,72,11.0,299.6,323.1,301.0
852.9,1558,13.2,7.9,70,7.85,73,11.2,299.7,323.0,301.1
852.5,1562,13.2,7.8,70,7.83,73,11.3,299.7,323.0,301.1
852.1,1566,13.2,7.8,70,7.83,73,11.4,299.8,323.1,301.2
851.7,1570,13.2,7.8,70,7.83,73,11.5,299.8,323.1,301.2
851.3,1574,13.2,7.9,70,7.86,74,11.5,299.8,323.2,301.2
850.9,1578,13.1,7.9,71,7.90,74,11.6,299.8,323.3,301.2
850.4,1583,13.1,8.0,71,7.94,74,11.6,299.8,323.5,301.3
850.0,1587,13.1,8.1,72,7.97,74,11.6,299.8,323.5,301.3
849.5,1592,13.0,8.1,72,8.03,75,11.7,299.8,323.7,301.3
849.1,1596,13.0,8.4,74,8.15,75,11.7,299.8,324.0,301.3
848.6,1601,12.9,8.7,75,8.33,75,11.6,299.8,324.6,301.3
848.2,1605,12.9,8.8,76,8.44,75,11.6,299.8,324.9,301.4
847.7,1609,12.9,8.8,76,8.44,75,11.5,299.9,325.0,301.4
847.3,1614,12.9,8.7,76,8.38,75,11.4,300.0,324.9,301.5
846.8,1618,13.0,8.6,75,8.32,75,11.4,300.1,324.8,301.6
846.3,1623,13.0,8.6,75,8.32,75,11.3,300.1,324.9,301.7
845.8,1628,13.0,8.6,75,8.34,75,11.1,300.2,325.0,301.7
845.3,1633,13.0,8.6,75,8.35,75,11.0,300.2,325.1,301.7
844.8,1638,13.0,8.6,75,8.33,75,10.9,300.2,325.0,301.7
844.3,1644,12.9,8.6,75,8.31,75,10.8,300.2,325.0,301.7
843.8,1649,12.9,8.5,75,8.28,75,10.6,300.3,324.9,301.8
843.3,1654,12.9,8.4,74,8.23,75,10.5,300.3,324.8,301.8
842.8,1658,12.9,8.3,74,8.18,74,10.3,300.3,324.7,301.8
842.4,1663,12.8,8.3,74,8.17,74,10.2,300.3,324.7,301.8
841.9,1667,12.8,8.3,74,8.21,74,10.1,300.4,324.9,301.9
841.5,1671,12.8,8.5,75,8.29,74,9.9,300.4,325.1,301.9
841.2,1675,12.8,8.6,76,8.34,73,9.8,300.4,325.2,301.9
840.8,1679,12.7,8.6,76,8.36,73,9.7,300.4,325.3,301.9
840.4,1682,12.7,8.6,76,8.35,72,9.6,300.4,325.3,301.9
840.0,1686,12.7,8.5,76,8.34,72,9.5,300.4,325.3,301.9
839.6,1690,12.7,8.5,76,8.32,72,9.4,300.4,325.2,301.9
839.2,1694,12.6,8.4,75,8.29,71,9.3,300.5,325.2,302.0
838.8,1698,12.6,8.3,75,8.23,71,9.2,300.5,325.0,302.0
838.4,1702,12.6,8.1,74,8.14,71,9.2,300.5,324.8,302.0
