PRES,HGHT,TEMP,DWPT,RELH,MIXR,DRCT,SPED,THTA,THTE,THTV
1012.5,31,19.2,18.0,93,12.97,261,2.5,291.3,328.1,293.6
1012.1,34,19.7,18.5,93,13.34,323,1.2,291.8,329.7,294.2
1011.5,39,20.2,18.8,92,13.64,340,1.4,292.4,331.2,294.8
1010.8,45,21.1,19.2,89,14.02,345,1.6,293.3,333.4,295.8
1009.8,54,21.4,19.2,87,13.96,345,1.7,293.8,333.7,296.2
1009.2,59,21.5,19.0,86,13.82,345,1.9,293.8,333.4,296.3
1008.7,64,21.5,19.0,86,13.83,346,2.0,293.9,333.5,296.3
1008.0,69,21.4,19.1,86,13.92,347,2.2,293.9,333.8,296.4
1007.4,75,21.5,19.3,87,14.12,348,2.4,294.0,334.5,296.5
1006.7,80,21.6,19.5,88,14.27,350,2.5,294.2,335.1,296.7
1006.1,85,21.6,19.6,88,14.37,351,2.7,294.2,335.5,296.8
1005.5,91,21.6,19.6,88,14.46,352,2.9,294.3,335.8,296.9
1004.9,96,21.7,19.7,88,14.49,354,3.1,294.4,336.0,296.9
1004.3,101,21.6,19.6,88,14.44,355,3.2,294.4,335.8,296.9
1003.7,107,21.5,19.6,89,14.41,356,3.4,294.4,335.7,296.9
1003.1,112,21.5,19.6,89,14.47,357,3.6,294.4,335.9,296.9
1002.4,117,21.5,19.7,90,14.56,358,3.8,294.4,336.2,297.0
1001.8,123,21.4,19.7,90,14.57,359,3.9,294.4,336.2,297.0
1001.1,129,21.4,19.8,90,14.64,360,4.1,294.5,336.5,297.1
1000.5,134,21.5,19.9,90,14.75,1,4.2,294.6,337.0,297.2
1000.0,139,21.5,19.9,90,14.77,1,4.2,294.7,337.1,297.3
999.9,140,21.6,19.9,90,14.77,2,4.4,294.7,337.1,297.3
999.2,145,21.5,19.8,90,14.68,2,4.5,294.7,336.9,297.3
998.6,151,21.5,19.7,89,14.60,3,4.6,294.8,336.8,297.4
998.0,156,21.6,19.7,89,14.59,4,4.7,294.9,336.9,297.5
997.4,161,21.6,19.6,88,14.57,4,4.8,295.0,336.9,297.6
996.8,166,21.6,19.5,88,14.48,5,4.9,295.1,336.7,297.6
996.2,172,21.7,19.4,87,14.42,5,5.0,295.1,336.7,297.7
995.6,177,21.7,19.4,87,14.41,5,5.1,295.2,336.7,297.8
994.9,183,21.7,19.4,87,14.42,6,5.1,295.3,336.9,297.9
994.3,188,21.7,19.4,87,14.41,6,5.2,295.3,336.9,297.9
993.7,194,21.7,19.4,87,14.40,6,5.2,295.4,336.9,297.9
993.0,199,21.6,19.4,87,14.40,6,5.2,295.4,336.9,297.9
992.4,205,21.6,19.4,87,14.39,6,5.3,295.4,336.9,297.9
991.8,210,21.6,19.3,87,14.39,6,5.3,295.4,336.9,298.0
991.1,216,21.5,19.3,87,14.37,6,5.3,295.4,336.9,298.0
990.5,221,21.5,19.2,87,14.32,6,5.3,295.4,336.7,298.0
989.9,227,21.5,19.1,86,14.20,6,5.3,295.5,336.4,298.0
989.3,232,21.5,18.9,85,14.06,5,5.3,295.6,336.1,298.1
988.7,237,21.6,18.8,84,13.96,5,5.3,295.7,336.0,298.2
988.2,242,21.7,18.8,84,13.96,5,5.3,295.8,336.1,298.3
987.6,247,21.7,18.9,84,14.06,4,5.2,295.9,336.5,298.4
987.1,252,21.6,19.0,85,14.18,4,5.2,295.9,336.8,298.4
986.5,256,21.6,19.1,86,14.21,4,5.2,295.9,336.9,298.4
986.0,261,21.5,19.0,86,14.20,3,5.2,295.9,336.9,298.4
985.5,266,21.5,19.0,86,14.20,3,5.2,295.9,336.9,298.4
985.0,270,21.5,19.0,86,14.21,3,5.3,295.9,336.9,298.4
984.4,275,21.4,19.1,87,14.30,2,5.3,295.9,337.2,298.4
983.9,280,21.4,19.2,88,14.42,2,5.3,295.9,337.5,298.4
983.3,285,21.3,19.3,88,14.49,1,5.3,295.9,337.7,298.4
982.7,290,21.2,19.3,89,14.51,1,5.4,295.8,337.7,298.4
982.1,295,21.2,19.3,89,14.50,1,5.4,295.8,337.7,298.4
981.6,300,21.1,19.3,89,14.50,1,5.4,295.8,337.7,298.4
981.0,306,21.1,19.3,89,14.50,1,5.5,295.9,337.7,298.4
980.4,311,21.1,19.3,89,14.49,360,5.5,295.9,337.7,298.4
979.8,316,21.0,19.2,90,14.46,360,5.6,295.9,337.6,298.4
979.3,321,21.0,19.2,90,14.45,360,5.7,295.9,337.6,298.4
978.7,326,20.9,19.2,90,14.41,360,5.7,295.9,337.5,298.4
978.2,330,20.9,19.1,90,14.39,360,5.8,295.9,337.4,298.4
977.7,335,20.8,19.1,90,14.39,360,5.9,295.9,337.4,298.4
977.1,340,20.8,19.1,90,14.39,360,6.0,295.9,337.4,298.4
976.6,345,20.8,19.1,90,14.42,360,6.0,295.9,337.5,298.5
976.0,350,20.7,19.1,90,14.42,360,6.1,295.9,337.6,298.5
975.5,355,20.7,19.1,91,14.42,360,6.2,295.9,337.6,298.5
974.9,360,20.7,19.1,91,14.41,360,6.3,295.9,337.6,298.5
974.3,365,20.6,19.0,91,14.37,360,6.3,296.0,337.5,298.5
973.7,370,20.6,19.0,90,14.32,360,6.4,296.0,337.4,298.6
973.2,375,20.6,19.0,90,14.31,360,6.5,296.0,337.4,298.6
972.6,380,20.6,18.9,90,14.30,360,6.5,296.1,337.4,298.6
972.1,385,20.5,18.9,90,14.28,360,6.6,296.1,337.3,298.6
971.6,389,20.5,18.9,91,14.28,360,6.7,296.1,337.3,298.6
971.1,394,20.5,18.9,91,14.30,360,6.7,296.1,337.4,298.6
970.6,398,20.4,18.9,91,14.34,360,6.8,296.1,337.5,298.6
970.1,402,20.4,19.0,92,14.39,360,6.8,296.1,337.7,298.6
969.6,406,20.3,19.0,92,14.39,360,6.9,296.1,337.7,298.6
969.2,411,20.3,18.9,92,14.35,360,6.9,296.1,337.6,298.6
968.7,415,20.3,18.9,92,14.34,360,6.9,296.1,337.6,298.7
968.2,420,20.2,18.9,92,14.34,360,7.0,296.1,337.6,298.7
967.6,424,20.2,18.9,92,14.36,1,7.0,296.1,337.6,298.7
967.1,430,20.2,18.9,92,14.35,1,7.0,296.1,337.6,298.7
966.5,435,20.2,18.8,92,14.31,1,7.0,296.2,337.6,298.7
965.9,440,20.1,18.8,92,14.28,1,7.0,296.2,337.5,298.7
965.3,446,20.1,18.7,92,14.19,1,7.0,296.2,337.3,298.7
964.7,451,20.1,18.5,91,14.07,1,7.1,296.3,337.0,298.8
964.0,457,20.1,18.4,90,13.93,1,7.1,296.3,336.7,298.8
963.4,462,20.1,18.3,89,13.84,2,7.1,296.4,336.5,298.9
962.8,467,20.1,18.2,89,13.81,2,7.1,296.4,336.4,298.9
962.2,473,20.1,18.2,89,13.84,2,7.0,296.5,336.5,298.9
961.6,478,20.0,18.3,90,13.88,2,7.0,296.5,336.7,298.9
961.0,484,20.0,18.3,90,13.89,2,7.0,296.5,336.7,298.9
960.4,489,19.9,18.2,90,13.84,2,7.0,296.4,336.5,298.9
959.8,495,19.9,18.2,90,13.81,2,7.0,296.5,336.5,298.9
959.3,500,19.8,18.2,90,13.81,2,7.0,296.5,336.5,298.9
958.7,505,19.8,18.2,90,13.82,2,7.0,296.5,336.5,298.9
958.1,510,19.7,18.2,91,13.83,2,6.9,296.5,336.5,299.0
957.6,515,19.7,18.2,91,13.83,2,6.9,296.5,336.6,299.0
957.1,519,19.7,18.1,91,13.82,2,6.9,296.6,336.6,299.0
956.5,524,19.7,18.1,91,13.82,2,6.9,296.6,336.6,299.0
956.0,529,19.6,18.1,91,13.81,2,6.8,296.6,336.6,299.0
955.5,533,19.6,18.1,91,13.79,2,6.8,296.6,336.5,299.0
955.0,538,19.6,18.1,91,13.81,2,6.7,296.6,336.6,299.0
954.5,542,19.5,18.1,92,13.85,1,6.7,296.6,336.7,299.0
954.0,547,19.5,18.1,92,13.87,1,6.6,296.6,336.8,299.0
953.5,552,19.4,18.1,92,13.88,1,6.6,296.6,336.8,299.0
952.9,557,19.4,18.2,93,13.90,1,6.5,296.6,336.9,299.0
952.3,562,19.3,18.2,93,13.92,1,6.5,296.6,336.9,299.0
951.7,568,19.3,18.2,93,13.92,360,6.4,296.6,336.9,299.1
951.1,573,19.2,18.1,93,13.89,360,6.4,296.6,336.8,299.0
950.5,579,19.2,18.1,93,13.84,360,6.3,296.6,336.7,299.1
949.9,584,19.1,18.0,93,13.76,360,6.2,296.6,336.5,299.1
949.3,590,19.1,17.9,92,13.71,360,6.2,296.7,336.4,299.1
948.7,595,19.1,17.9,92,13.71,360,6.1,296.7,336.5,299.1
948.2,600,19.1,17.9,93,13.71,360,6.0,296.7,336.5,299.2
947.7,605,19.1,17.9,93,13.72,360,5.9,296.7,336.5,299.2
947.2,609,19.0,17.9,93,13.74,360,5.8,296.8,336.6,299.2
946.6,614,19.0,17.9,93,13.75,360,5.8,296.8,336.6,299.2
946.1,619,19.0,17.8,93,13.71,360,5.7,296.8,336.5,299.2
945.6,623,18.9,17.8,93,13.66,360,5.6,296.8,336.4,299.2
945.1,628,18.9,17.7,93,13.64,1,5.5,296.8,336.4,299.2
944.7,632,18.9,17.8,93,13.66,1,5.4,296.8,336.4,299.2
944.2,636,18.8,17.8,93,13.68,2,5.3,296.8,336.5,299.3
943.8,640,18.8,17.8,94,13.69,2,5.2,296.8,336.5,299.3
943.3,644,18.8,17.8,94,13.70,3,5.2,296.8,336.6,299.3
942.9,648,18.8,17.8,94,13.70,3,5.1,296.8,336.6,299.3
942.4,652,18.7,17.7,94,13.69,4,5.0,296.9,336.6,299.3
941.9,657,18.7,17.7,94,13.67,5,4.9,296.9,336.6,299.3
941.5,661,18.7,17.7,94,13.66,6,4.9,296.9,336.5,299.3
941.0,666,18.7,17.7,94,13.64,7,4.8,296.9,336.5,299.3
940.5,670,18.6,17.6,94,13.60,7,4.7,296.9,336.4,299.4
940.0,674,18.6,17.6,94,13.57,8,4.7,296.9,336.3,299.4
939.5,679,18.6,17.6,94,13.58,9,4.6,296.9,336.4,299.4
939.1,683,18.5,17.6,94,13.59,11,4.6,297.0,336.4,299.4
938.6,688,18.5,17.6,94,13.58,12,4.5,297.0,336.4,299.4
938.1,692,18.5,17.5,94,13.57,13,4.5,297.0,336.4,299.4
937.6,697,18.4,17.5,94,13.56,14,4.4,297.0,336.3,299.4
937.1,701,18.4,17.5,95,13.55,15,4.4,297.0,336.3,299.4
936.6,706,18.3,17.4,94,13.49,15,4.4,297.0,336.2,299.4
936.0,711,18.3,17.3,94,13.42,16,4.4,297.0,336.0,299.4
935.5,716,18.3,17.3,93,13.37,17,4.3,297.1,335.9,299.5
935.0,721,18.3,17.2,93,13.32,18,4.3,297.1,335.9,299.5
934.5,725,18.3,17.2,93,13.31,19,4.3,297.2,335.8,299.5
934.0,730,18.3,17.2,93,13.30,20,4.3,297.2,335.8,299.5
933.4,735,18.3,17.1,93,13.29,20,4.3,297.2,335.8,299.6
933.0,739,18.2,17.1,93,13.26,21,4.3,297.2,335.7,299.6
932.5,744,18.2,17.0,93,13.22,22,4.2,297.2,335.7,299.6
932.0,748,18.2,17.0,93,13.17,22,4.2,297.2,335.5,299.6
931.5,753,18.2,16.9,92,13.10,23,4.2,297.3,335.4,299.6
931.0,757,18.2,16.8,91,13.02,23,4.2,297.3,335.2,299.7
930.6,761,18.2,16.7,91,12.95,24,4.1,297.4,335.1,299.8
930.1,765,18.3,16.6,90,12.92,24,4.1,297.5,335.1,299.8
929.7,770,18.3,16.6,90,12.91,25,4.1,297.6,335.1,299.9
929.2,774,18.3,16.6,90,12.92,25,4.0,297.6,335.2,299.9
928.7,779,18.2,16.7,91,12.96,25,4.0,297.6,335.3,299.9
928.2,783,18.2,16.7,91,12.95,26,3.9,297.6,335.3,299.9
927.7,788,18.2,16.6,91,12.94,27,3.9,297.6,335.3,299.9
927.1,793,18.1,16.6,91,12.93,27,3.8,297.6,335.3,299.9
926.6,798,18.1,16.6,91,12.92,28,3.8,297.6,335.3,299.9
926.0,804,18.0,16.6,91,12.91,28,3.7,297.6,335.3,299.9
925.4,809,18.0,16.6,91,12.91,29,3.6,297.6,335.3,299.9
925.0,813,17.9,16.5,92,12.91,29,3.6,297.6,335.3,300.0
924.8,814,17.9,16.5,92,12.91,30,3.6,297.7,335.3,300.0
924.3,820,17.9,16.5,92,12.89,30,3.5,297.6,335.2,300.0
923.6,825,17.8,16.5,92,12.87,31,3.5,297.7,335.2,300.0
923.0,831,17.8,16.4,92,12.82,32,3.4,297.7,335.0,300.0
922.4,837,17.8,16.3,91,12.74,33,3.4,297.7,334.8,300.0
921.8,842,17.8,16.3,91,12.72,33,3.4,297.8,334.9,300.0
921.2,848,17.8,16.3,91,12.74,34,3.3,297.8,335.0,300.1
920.7,853,17.7,16.2,91,12.69,35,3.3,297.8,334.9,300.1
920.1,859,17.7,16.1,90,12.57,36,3.3,297.9,334.5,300.1
919.5,864,17.7,15.9,89,12.42,37,3.3,297.9,334.2,300.2
918.9,869,17.8,15.7,87,12.27,37,3.3,298.0,333.9,300.2
918.4,875,17.8,15.6,87,12.21,38,3.3,298.1,333.8,300.3
917.8,880,17.8,15.6,87,12.23,38,3.3,298.1,333.9,300.3
917.2,885,17.7,15.6,88,12.28,39,3.3,298.1,334.0,300.3
916.6,891,17.7,15.7,88,12.29,39,3.3,298.1,334.1,300.3
916.1,896,17.6,15.6,88,12.29,39,3.3,298.2,334.1,300.4
915.5,901,17.6,15.6,88,12.28,39,3.3,298.2,334.1,300.4
915.0,907,17.5,15.6,89,12.29,40,3.3,298.2,334.1,300.4
914.4,912,17.5,15.7,89,12.33,40,3.4,298.2,334.2,300.4
913.9,917,17.5,15.8,90,12.41,40,3.4,298.2,334.5,300.4
913.4,921,17.4,15.8,90,12.45,40,3.4,298.2,334.6,300.4
912.8,926,17.4,15.8,90,12.46,40,3.4,298.2,334.7,300.5
912.3,931,17.4,15.7,90,12.43,39,3.4,298.3,334.6,300.5
911.8,936,17.4,15.7,90,12.38,39,3.5,298.3,334.5,300.5
911.3,941,17.3,15.6,90,12.34,39,3.5,298.3,334.4,300.5
910.8,945,17.3,15.6,90,12.33,39,3.5,298.3,334.4,300.5
910.3,950,17.3,15.6,90,12.32,39,3.5,298.3,334.4,300.6
909.9,954,17.3,15.6,90,12.31,38,3.5,298.4,334.3,300.6
909.4,959,17.3,15.5,89,12.27,38,3.5,298.4,334.3,300.6
908.9,963,17.3,15.5,89,12.24,38,3.5,298.5,334.3,300.6
908.4,968,17.3,15.4,89,12.20,38,3.5,298.5,334.2,300.7
907.9,973,17.3,15.3,89,12.17,38,3.5,298.5,334.1,300.7
907.4,977,17.2,15.3,88,12.13,38,3.5,298.5,334.1,300.7
906.9,982,17.2,15.3,88,12.11,38,3.4,298.6,334.0,300.7
906.4,987,17.2,15.2,88,12.07,38,3.4,298.6,334.0,300.8
905.9,991,17.2,15.2,88,12.04,38,3.4,298.6,333.9,300.8
905.4,996,17.1,15.1,88,12.02,38,3.4,298.6,333.8,300.8
904.9,1001,17.1,15.1,88,12.02,39,3.4,298.7,333.9,300.8
904.4,1006,17.1,15.1,88,12.03,39,3.3,298.7,333.9,300.8
903.9,1011,17.0,15.1,88,12.03,39,3.3,298.7,333.9,300.8
903.3,1016,17.0,15.1,89,12.05,40,3.3,298.7,334.0,300.8
902.7,1022,16.9,15.1,89,12.04,40,3.2,298.7,334.0,300.8
902.2,1027,16.9,15.1,89,12.01,41,3.2,298.7,333.9,300.8
901.6,1032,16.8,15.0,89,12.01,42,3.2,298.7,333.9,300.8
901.0,1038,16.8,15.0,89,12.00,42,3.1,298.7,333.8,300.8
900.5,1043,16.7,15.0,90,11.99,43,3.1,298.7,333.8,300.8
900.0,1048,16.7,15.0,90,12.00,44,3.0,298.7,333.8,300.8
899.4,1053,16.6,15.0,90,12.00,45,3.0,298.7,333.9,300.8
898.9,1058,16.6,15.0,90,12.02,46,3.0,298.7,333.9,300.8
898.3,1063,16.5,15.0,91,12.03,47,2.9,298.7,334.0,300.9
897.8,1069,16.5,15.0,91,12.04,48,2.9,298.7,334.0,300.8
897.2,1074,16.4,15.0,91,12.03,49,2.9,298.7,333.9,300.8
896.7,1079,16.4,15.0,91,12.01,50,2.8,298.7,333.9,300.9
896.2,1084,16.4,14.9,91,11.96,51,2.8,298.7,333.8,300.9
895.6,1089,16.4,14.8,90,11.91,52,2.8,298.8,333.7,300.9
895.1,1094,16.4,14.7,90,11.85,53,2.7,298.9,333.6,301.0
894.6,1099,16.4,14.7,90,11.81,54,2.7,298.9,333.5,301.0
894.1,1104,16.4,14.6,89,11.79,54,2.7,298.9,333.5,301.0
893.5,1109,16.4,14.6,89,11.78,55,2.7,299.0,333.6,301.1
893.0,1114,16.4,14.6,89,11.80,56,2.6,299.1,333.7,301.2
892.5,1119,16.4,14.7,90,11.83,57,2.6,299.1,333.8,301.2
892.0,1124,16.3,14.6,90,11.83,58,2.6,299.1,333.8,301.2
891.4,1129,16.3,14.6,90,11.81,58,2.6,299.1,333.8,301.2
890.9,1134,16.2,14.6,90,11.81,59,2.6,299.1,333.8,301.2
890.4,1139,16.2,14.6,90,11.80,59,2.6,299.1,333.7,301.2
889.9,1144,16.2,14.6,90,11.79,60,2.6,299.1,333.7,301.2
889.3,1149,16.1,14.6,91,11.80,60,2.6,299.1,333.8,301.2
888.9,1154,16.1,14.6,91,11.84,60,2.6,299.1,333.9,301.2
888.4,1159,16.0,14.6,91,11.87,61,2.6,299.1,334.0,301.3
887.9,1163,16.0,14.6,91,11.85,61,2.6,299.2,334.0,301.3
887.4,1168,16.0,14.6,91,11.83,62,2.6,299.2,333.9,301.3
887.0,1172,16.0,14.5,91,11.79,62,2.6,299.2,333.8,301.3
886.5,1176,16.0,14.5,91,11.76,62,2.6,299.2,333.8,301.4
886.1,1180,16.0,14.4,91,11.74,63,2.6,299.3,333.8,301.4
885.7,1185,16.0,14.4,90,11.71,63,2.6,299.3,333.7,301.4
885.2,1189,16.0,14.3,90,11.68,63,2.5,299.3,333.7,301.5
884.8,1193,15.9,14.3,90,11.65,64,2.5,299.4,333.6,301.5
884.4,1197,15.9,14.2,90,11.61,64,2.5,299.4,333.5,301.5
883.9,1201,15.9,14.2,89,11.56,64,2.5,299.5,333.5,301.5
883.5,1205,15.9,14.1,89,11.56,65,2.5,299.5,333.5,301.6
883.1,1210,15.9,14.1,89,11.56,65,2.5,299.5,333.5,301.6
882.6,1214,15.8,14.1,90,11.56,65,2.4,299.5,333.5,301.6
882.2,1219,15.8,14.0,89,11.50,65,2.4,299.5,333.3,301.6
881.7,1223,15.8,14.0,89,11.45,65,2.4,299.5,333.2,301.6
881.2,1228,15.8,13.9,89,11.40,65,2.3,299.5,333.1,301.6
880.6,1233,15.7,13.9,89,11.38,64,2.3,299.6,333.1,301.6
880.1,1239,15.7,13.8,89,11.37,63,2.2,299.6,333.1,301.6
879.5,1244,15.7,13.8,89,11.35,62,2.2,299.6,333.0,301.6
878.9,1250,15.6,13.7,89,11.32,61,2.1,299.6,332.9,301.6
878.4,1255,15.6,13.7,88,11.26,60,2.1,299.6,332.8,301.6
877.9,1260,15.5,13.6,88,11.23,58,2.0,299.6,332.7,301.6
877.4,1265,15.5,13.6,89,11.22,56,2.0,299.6,332.7,301.6
876.9,1270,15.4,13.6,89,11.23,54,2.0,299.6,332.7,301.6
876.4,1275,15.4,13.6,89,11.24,51,1.9,299.6,332.8,301.7
875.9,1279,15.4,13.6,89,11.27,48,1.9,299.6,332.9,301.7
875.4,1284,15.3,13.7,90,11.30,46,1.9,299.6,332.9,301.7
874.9,1289,15.3,13.7,90,11.32,43,1.9,299.7,333.0,301.7
874.4,1293,15.2,13.7,90,11.32,40,1.9,299.7,333.0,301.7
874.0,1298,15.2,13.6,90,11.28,37,2.0,299.7,332.9,301.7
873.5,1303,15.2,13.5,90,11.22,35,2.0,299.7,332.7,301.7
873.0,1307,15.1,13.4,90,11.17,33,2.0,299.7,332.6,301.7
872.5,1312,15.1,13.4,89,11.12,31,2.1,299.7,332.5,301.7
872.1,1316,15.1,13.3,89,11.05,29,2.1,299.7,332.3,301.7
871.7,1320,15.0,13.1,88,10.94,28,2.2,299.7,332.0,301.7
871.3,1324,15.0,12.9,87,10.81,27,2.2,299.7,331.6,301.7
870.9,1328,15.0,12.7,86,10.67,27,2.2,299.8,331.3,301.7
870.5,1332,15.0,12.6,85,10.59,26,2.3,299.8,331.1,301.7
870.1,1335,15.0,12.6,85,10.56,26,2.3,299.8,331.0,301.7
869.7,1339,15.0,12.5,85,10.56,27,2.4,299.8,331.0,301.7
869.3,1343,14.9,12.5,85,10.54,27,2.4,299.8,331.0,301.7
868.9,1347,14.9,12.5,85,10.52,28,2.4,299.9,330.9,301.8
868.5,1351,14.9,12.5,85,10.54,29,2.4,299.9,331.0,301.8
868.1,1355,14.9,12.6,86,10.59,30,2.4,299.9,331.2,301.8
867.7,1359,14.9,12.6,87,10.64,31,2.5,299.9,331.3,301.8
867.2,1363,14.8,12.7,87,10.69,32,2.5,299.9,331.5,301.9
866.8,1368,14.8,12.7,88,10.74,34,2.5,299.9,331.7,301.9
866.3,1372,14.8,12.8,88,10.77,35,2.5,300.0,331.8,301.9
865.9,1377,14.8,12.7,88,10.74,37,2.5,300.0,331.7,301.9
865.4,1381,14.7,12.7,87,10.70,38,2.5,300.0,331.6,301.9
865.0,1385,14.7,12.6,87,10.66,40,2.5,300.0,331.5,301.9
864.5,1390,14.7,12.6,87,10.65,41,2.5,300.0,331.5,302.0
864.1,1394,14.6,12.5,87,10.63,43,2.4,300.1,331.5,302.0
863.6,1399,14.6,12.5,87,10.60,44,2.4,300.1,331.4,302.0
863.2,1403,14.6,12.4,87,10.54,46,2.4,300.1,331.2,302.0
862.7,1408,14.6,12.3,86,10.50,47,2.4,300.1,331.2,302.0
862.2,1412,14.6,12.3,86,10.49,48,2.4,300.1,331.2,302.0
861.8,1417,14.5,12.3,87,10.50,49,2.3,300.2,331.2,302.1
861.3,1422,14.5,12.3,87,10.52,51,2.3,300.2,331.3,302.1
860.9,1426,14.5,12.3,87,10.50,52,2.3,300.2,331.2,302.1
860.4,1431,14.5,12.2,86,10.44,53,2.2,300.2,331.1,302.1
859.9,1435,14.5,12.2,86,10.42,54,2.2,300.3,331.1,302.2
859.5,1440,14.4,12.2,87,10.48,55,2.2,300.3,331.3,302.2
859.0,1444,14.4,12.3,87,10.53,56,2.1,300.3,331.4,302.2
858.6,1449,14.3,12.3,88,10.53,57,2.1,300.3,331.4,302.2
858.1,1453,14.3,12.3,88,10.53,58,2.1,300.3,331.4,302.2
857.7,1458,14.3,12.3,88,10.53,60,2.1,300.3,331.5,302.2
857.2,1462,14.3,12.3,88,10.53,61,2.0,300.4,331.5,302.3
856.7,1467,14.3,12.3,88,10.53,62,2.0,300.4,331.6,302.3
856.2,1472,14.3,12.3,88,10.53,64,2.0,300.4,331.6,302.3
855.7,1477,14.3,12.2,87,10.48,65,2.0,300.5,331.5,302.4
855.1,1483,14.3,12.1,87,10.41,66,2.0,300.5,331.4,302.4
854.6,1488,14.2,12.0,86,10.34,68,1.9,300.6,331.2,302.5
854.0,1494,14.2,11.9,86,10.29,69,1.9,300.6,331.1,302.5
853.5,1499,14.2,11.8,85,10.24,70,1.9,300.7,331.0,302.5
852.9,1504,14.2,11.8,85,10.22,71,1.9,300.7,331.0,302.6
852.4,1509,14.2,11.8,85,10.22,72,1.9,300.8,331.1,302.6
851.9,1515,14.2,11.8,85,10.24,73,1.9,300.8,331.2,302.6
851.4,1520,14.2,11.7,85,10.23,73,2.0,300.8,331.2,302.7
850.9,1525,14.1,11.7,85,10.20,73,2.0,300.8,331.1,302.7
850.4,1530,14.1,11.7,85,10.19,74,2.0,300.9,331.1,302.7
850.0,1534,14.1,11.6,85,10.18,74,2.0,300.9,331.1,302.7
849.9,1535,14.0,11.6,85,10.17,74,2.0,300.8,331.0,302.7
849.3,1540,14.0,11.6,85,10.15,73,2.0,300.9,331.0,302.7
848.8,1546,14.0,11.6,85,10.13,73,2.0,300.9,331.0,302.7
848.2,1551,14.0,11.5,85,10.10,72,2.0,300.9,331.0,302.8
847.7,1556,13.9,11.4,85,10.06,72,2.0,301.0,330.8,302.8
847.2,1562,13.9,11.4,85,10.04,71,2.0,301.0,330.8,302.8
846.6,1567,13.9,11.4,85,10.06,69,2.0,301.0,330.9,302.8
846.1,1572,13.9,11.4,85,10.08,68,2.1,301.0,331.0,302.9
845.6,1578,13.8,11.5,86,10.10,67,2.1,301.1,331.1,302.9
845.1,1583,13.8,11.5,86,10.12,66,2.1,301.1,331.2,302.9
844.5,1588,13.8,11.5,86,10.12,64,2.1,301.1,331.2,302.9
844.0,1593,13.7,11.4,86,10.08,63,2.1,301.1,331.1,303.0
843.6,1598,13.7,11.3,86,10.05,62,2.2,301.1,331.0,303.0
843.1,1603,13.7,11.3,86,10.06,60,2.2,301.1,331.0,303.0
842.6,1607,13.6,11.4,86,10.08,59,2.2,301.2,331.1,303.0
842.2,1611,13.6,11.4,86,10.09,58,2.3,301.2,331.1,303.0
841.8,1616,13.6,11.4,87,10.11,58,2.3,301.2,331.2,303.0
841.4,1620,13.5,11.4,87,10.13,57,2.3,301.2,331.3,303.0
840.9,1624,13.5,11.4,87,10.13,56,2.4,301.2,331.3,303.0
840.5,1629,13.5,11.4,87,10.12,56,2.4,301.2,331.3,303.1
840.0,1633,13.5,11.4,87,10.11,56,2.5,301.2,331.3,303.1
839.5,1638,13.4,11.4,87,10.11,56,2.5,301.3,331.3,303.1
839.0,1644,13.4,11.3,87,10.08,56,2.6,301.3,331.3,303.1
838.5,1649,13.4,11.2,87,9.99,57,2.6,301.3,331.0,303.1
837.9,1654,13.4,10.9,85,9.84,57,2.7,301.3,330.6,303.1
837.4,1660,13.4,10.6,83,9.63,58,2.7,301.4,330.1,303.1
836.9,1665,13.3,10.3,82,9.45,59,2.8,301.4,329.6,303.2
836.4,1670,13.3,10.1,81,9.31,60,2.8,301.5,329.3,303.2
835.9,1675,13.3,10.0,80,9.25,61,2.9,301.5,329.1,303.2
835.4,1680,13.3,9.9,80,9.20,61,2.9,301.6,329.0,303.2
835.0,1684,13.3,9.8,79,9.16,62,3.0,301.6,329.0,303.3
834.5,1689,13.3,10.0,80,9.26,63,3.0,301.6,329.3,303.3
834.0,1694,13.3,10.3,82,9.47,64,3.0,301.7,329.9,303.4
833.6,1698,13.2,10.7,84,9.72,65,3.1,301.7,330.7,303.4
833.1,1703,13.2,10.9,86,9.90,66,3.1,301.7,331.2,303.5
832.6,1708,13.2,11.0,87,9.98,67,3.1,301.7,331.4,303.5
832.1,1713,13.1,11.1,88,10.03,68,3.1,301.7,331.6,303.5
831.6,1718,13.1,11.1,88,10.04,69,3.2,301.7,331.6,303.6
831.1,1723,13.1,11.1,87,10.01,69,3.2,301.8,331.6,303.6
830.6,1729,13.1,11.0,87,9.97,70,3.2,301.8,331.5,303.6
830.0,1734,13.1,11.0,87,9.97,70,3.2,301.9,331.6,303.7
829.5,1740,13.0,11.0,87,9.99,70,3.2,301.9,331.7,303.7
828.9,1746,13.0,10.9,87,9.95,70,3.1,301.9,331.6,303.7
828.3,1752,13.0,10.8,86,9.87,70,3.1,302.0,331.4,303.8
827.7,1758,13.0,10.6,85,9.76,70,3.1,302.0,331.2,303.8
827.1,1763,13.0,10.5,85,9.66,70,3.1,302.1,330.9,303.8
826.6,1769,12.9,10.3,84,9.59,69,3.1,302.1,330.7,303.8
826.0,1775,12.9,10.3,84,9.55,69,3.0,302.1,330.6,303.9
825.5,1780,12.9,10.2,84,9.53,68,3.0,302.1,330.6,303.9
825.0,1786,12.8,10.3,84,9.55,67,3.0,302.1,330.7,303.9
824.4,1791,12.8,10.3,85,9.58,65,2.9,302.2,330.8,303.9
823.9,1797,12.8,10.2,85,9.55,64,2.9,302.2,330.7,303.9
823.4,1802,12.8,10.2,84,9.54,63,2.9,302.3,330.8,304.0
822.8,1808,12.8,10.2,84,9.56,61,2.9,302.3,330.9,304.1
822.3,1813,12.7,10.2,84,9.54,59,2.9,302.3,330.8,304.1
821.8,1818,12.7,10.0,84,9.45,58,2.9,302.3,330.6,304.0
