PRES,HGHT,TEMP,DWPT,RELH,MIXR,DRCT,SPED,THTA,THTE,THTV
1011.4,31,20.1,18.4,90,13.29,256,2.9,292.3,330.1,294.6
1010.9,34,20.7,18.2,86,13.10,234,1.5,292.9,330.3,295.2
1010.3,40,21.4,18.4,83,13.27,225,1.3,293.7,331.7,296.1
1009.6,46,22.6,18.6,78,13.51,220,1.3,294.9,333.8,297.3
1009.0,51,23.1,18.5,76,13.41,218,1.4,295.5,334.2,297.8
1008.4,57,23.1,18.4,74,13.28,217,1.5,295.6,333.9,297.9
1007.8,62,23.1,18.3,74,13.26,216,1.5,295.6,333.9,298.0
1007.2,67,23.1,18.4,75,13.36,214,1.6,295.7,334.3,298.0
1006.6,72,23.1,18.5,75,13.44,212,1.6,295.7,334.5,298.1
1005.9,78,23.1,18.6,76,13.50,209,1.7,295.7,334.7,298.1
1005.3,83,23.0,18.6,76,13.51,207,1.7,295.7,334.8,298.1
1004.7,89,23.0,18.6,76,13.56,204,1.8,295.8,335.0,298.2
1004.1,94,23.0,18.7,76,13.61,202,1.8,295.8,335.2,298.2
1003.5,99,23.0,18.6,76,13.59,199,1.8,295.8,335.1,298.3
1002.9,104,22.9,18.6,77,13.58,197,1.9,295.8,335.1,298.3
1002.3,110,22.9,18.6,77,13.60,194,1.9,295.8,335.2,298.3
1001.7,115,22.8,18.6,77,13.59,191,1.9,295.8,335.1,298.2
1001.1,120,22.8,18.6,77,13.60,188,1.9,295.8,335.1,298.3
1000.6,125,22.8,18.6,78,13.64,185,2.0,295.9,335.3,298.3
1000.0,129,22.7,18.6,78,13.65,185,2.0,295.9,335.3,298.3
999.4,135,22.7,18.6,78,13.63,179,2.0,295.9,335.3,298.3
998.8,140,22.7,18.6,78,13.66,176,2.1,295.9,335.4,298.3
998.2,145,22.6,18.7,78,13.70,173,2.1,295.9,335.5,298.3
997.6,150,22.6,18.7,79,13.69,170,2.1,295.9,335.5,298.3
997.0,156,22.5,18.6,79,13.69,167,2.2,295.9,335.5,298.3
996.4,161,22.4,18.7,79,13.71,164,2.2,295.9,335.5,298.3
995.8,167,22.4,18.6,79,13.71,161,2.3,295.9,335.5,298.3
995.2,172,22.4,18.6,79,13.71,158,2.3,295.9,335.6,298.4
994.6,176,22.3,18.6,79,13.69,155,2.4,295.9,335.5,298.4
994.1,181,22.3,18.6,79,13.69,153,2.4,296.0,335.6,298.4
993.5,186,22.3,18.6,80,13.71,150,2.5,296.0,335.7,298.4
993.0,191,22.3,18.7,80,13.75,147,2.5,296.0,335.8,298.5
992.4,196,22.3,18.7,80,13.79,145,2.6,296.1,336.0,298.5
991.8,201,22.3,18.7,80,13.80,143,2.6,296.1,336.0,298.6
991.2,206,22.2,18.7,80,13.80,141,2.7,296.1,336.0,298.6
990.6,212,22.2,18.7,80,13.81,139,2.7,296.1,336.1,298.6
990.0,217,22.2,18.6,80,13.77,137,2.8,296.1,336.0,298.6
989.4,223,22.1,18.5,80,13.67,135,2.8,296.2,335.7,298.6
988.7,228,22.1,18.4,79,13.60,134,2.9,296.2,335.6,298.6
988.1,234,22.1,18.3,79,13.55,132,3.0,296.3,335.5,298.7
987.5,239,22.1,18.3,79,13.52,131,3.0,296.3,335.5,298.7
986.8,245,22.1,18.3,79,13.49,130,3.1,296.3,335.4,298.7
986.2,250,22.0,18.2,79,13.49,130,3.2,296.3,335.4,298.7
985.6,256,21.9,18.2,79,13.48,129,3.2,296.3,335.4,298.7
985.0,261,21.9,18.2,80,13.48,129,3.3,296.3,335.4,298.7
984.5,266,21.9,18.2,80,13.47,129,3.4,296.3,335.4,298.7
983.9,271,21.8,18.2,80,13.45,129,3.4,296.4,335.3,298.8
983.4,276,21.8,18.1,80,13.41,129,3.5,296.4,335.2,298.7
982.8,281,21.8,18.1,79,13.38,129,3.5,296.4,335.2,298.8
982.2,286,21.7,18.1,80,13.39,129,3.6,296.4,335.2,298.8
981.7,291,21.7,18.1,80,13.41,130,3.7,296.4,335.2,298.8
981.1,295,21.6,18.1,80,13.40,130,3.7,296.4,335.2,298.8
980.6,300,21.6,18.0,80,13.40,131,3.8,296.4,335.2,298.8
980.1,305,21.5,18.1,81,13.44,132,3.9,296.4,335.3,298.8
979.6,309,21.5,18.1,81,13.49,132,3.9,296.4,335.5,298.8
979.1,314,21.5,18.1,81,13.49,133,4.0,296.4,335.5,298.8
978.6,318,21.4,18.1,81,13.44,134,4.1,296.4,335.3,298.8
978.1,322,21.4,18.0,81,13.41,135,4.1,296.4,335.2,298.8
977.7,326,21.4,18.0,81,13.40,135,4.2,296.4,335.2,298.8
977.2,330,21.3,18.0,81,13.40,136,4.2,296.4,335.2,298.8
976.8,334,21.3,18.0,82,13.40,137,4.3,296.4,335.2,298.8
976.4,338,21.2,18.0,82,13.40,137,4.3,296.4,335.2,298.8
975.9,342,21.2,18.0,82,13.41,138,4.4,296.4,335.3,298.8
975.4,346,21.2,18.0,82,13.42,138,4.4,296.4,335.3,298.8
974.9,350,21.1,18.0,82,13.43,139,4.4,296.4,335.3,298.8
974.4,355,21.1,18.0,82,13.43,139,4.4,296.4,335.4,298.8
973.9,360,21.1,18.0,83,13.47,140,4.4,296.4,335.5,298.8
973.3,365,21.0,18.1,83,13.51,140,4.4,296.5,335.6,298.9
972.7,370,21.0,18.1,83,13.52,141,4.4,296.4,335.6,298.8
972.1,376,20.9,18.0,84,13.48,141,4.4,296.4,335.5,298.8
971.5,381,20.8,17.9,83,13.43,141,4.3,296.4,335.3,298.8
970.9,386,20.8,17.9,83,13.40,142,4.3,296.4,335.2,298.8
970.4,391,20.7,17.9,84,13.40,142,4.2,296.4,335.3,298.8
969.8,396,20.7,17.9,84,13.40,143,4.2,296.4,335.3,298.8
969.3,401,20.7,17.9,84,13.39,143,4.1,296.4,335.2,298.8
968.8,405,20.6,17.8,84,13.39,143,4.0,296.4,335.2,298.8
968.3,409,20.6,17.9,84,13.42,144,3.9,296.4,335.3,298.8
967.8,414,20.5,17.9,85,13.43,144,3.8,296.4,335.4,298.8
967.4,418,20.5,17.9,85,13.44,145,3.7,296.4,335.4,298.8
966.9,423,20.4,17.9,85,13.44,145,3.6,296.4,335.4,298.8
966.4,427,20.4,17.9,86,13.48,145,3.5,296.4,335.5,298.8
965.9,431,20.4,17.9,86,13.51,146,3.4,296.4,335.6,298.8
965.5,435,20.3,18.0,86,13.53,146,3.4,296.4,335.6,298.8
965.0,439,20.3,17.9,87,13.53,146,3.3,296.4,335.6,298.8
964.6,443,20.2,17.9,86,13.49,146,3.2,296.4,335.5,298.8
964.1,447,20.2,17.9,86,13.47,146,3.1,296.4,335.4,298.8
963.7,451,20.2,17.8,87,13.46,146,3.0,296.4,335.4,298.8
963.3,455,20.1,17.9,87,13.49,146,2.9,296.4,335.5,298.8
962.9,458,20.1,17.9,87,13.50,146,2.9,296.4,335.5,298.8
962.5,462,20.0,17.9,87,13.49,145,2.8,296.4,335.5,298.8
962.0,466,20.0,17.8,87,13.46,145,2.8,296.4,335.4,298.8
961.6,470,20.0,17.8,87,13.45,144,2.7,296.4,335.4,298.8
961.2,474,19.9,17.8,88,13.47,143,2.7,296.4,335.5,298.8
960.7,478,19.9,17.8,88,13.50,142,2.7,296.4,335.5,298.8
960.3,482,19.9,17.8,88,13.51,141,2.7,296.4,335.6,298.8
959.8,486,19.8,17.8,88,13.51,140,2.7,296.4,335.6,298.8
959.3,490,19.8,17.8,89,13.53,139,2.7,296.4,335.6,298.8
958.8,495,19.8,17.8,89,13.53,138,2.8,296.4,335.6,298.8
958.3,499,19.7,17.8,89,13.49,136,2.8,296.4,335.5,298.8
957.8,504,19.7,17.7,88,13.41,135,2.9,296.4,335.3,298.8
957.3,509,19.6,17.6,88,13.33,134,3.0,296.5,335.1,298.8
956.7,514,19.6,17.5,88,13.30,133,3.0,296.5,335.0,298.8
956.2,518,19.5,17.5,88,13.29,132,3.1,296.5,335.0,298.8
955.7,523,19.5,17.5,88,13.28,131,3.2,296.5,335.0,298.8
955.2,528,19.5,17.5,88,13.30,130,3.3,296.5,335.0,298.8
954.7,532,19.4,17.5,89,13.32,130,3.4,296.5,335.1,298.8
954.2,537,19.4,17.6,89,13.37,129,3.5,296.5,335.2,298.8
953.7,541,19.3,17.6,90,13.41,129,3.6,296.5,335.3,298.9
953.2,546,19.3,17.6,90,13.44,128,3.7,296.5,335.4,298.9
952.7,550,19.2,17.6,90,13.45,128,3.8,296.5,335.4,298.9
952.2,555,19.2,17.6,91,13.46,127,3.9,296.5,335.5,298.9
951.6,560,19.2,17.6,91,13.46,127,4.0,296.5,335.5,298.9
951.0,566,19.1,17.6,91,13.45,127,4.1,296.5,335.4,298.9
950.4,571,19.0,17.6,91,13.40,127,4.2,296.5,335.3,298.9
949.8,577,19.0,17.5,91,13.33,126,4.3,296.5,335.1,298.8
949.1,583,18.9,17.4,91,13.26,126,4.4,296.5,334.9,298.8
948.5,589,18.9,17.3,90,13.17,126,4.5,296.5,334.7,298.8
947.8,595,18.8,17.1,90,13.08,126,4.6,296.5,334.4,298.8
947.2,600,18.8,17.1,90,13.04,125,4.6,296.5,334.3,298.8
946.5,606,18.8,17.1,90,13.07,125,4.7,296.5,334.5,298.9
945.9,612,18.7,17.1,91,13.12,125,4.7,296.5,334.6,298.9
945.3,618,18.7,17.1,91,13.07,125,4.8,296.5,334.4,298.9
944.7,623,18.6,16.9,90,12.92,125,4.8,296.5,334.0,298.8
944.1,629,18.6,16.7,89,12.80,124,4.9,296.6,333.7,298.9
943.5,634,18.6,16.7,89,12.75,124,4.9,296.6,333.6,298.9
942.8,640,18.5,16.6,89,12.71,124,4.9,296.6,333.5,298.9
942.2,645,18.5,16.5,88,12.63,124,4.9,296.6,333.3,298.9
941.6,651,18.4,16.4,88,12.53,124,4.9,296.6,333.0,298.9
941.0,657,18.4,16.3,87,12.45,124,4.9,296.6,332.8,298.9
940.4,662,18.3,16.2,87,12.42,124,4.9,296.7,332.7,298.9
939.8,667,18.3,16.2,87,12.41,123,4.9,296.7,332.7,298.9
939.3,673,18.3,16.1,87,12.35,123,4.9,296.7,332.5,298.9
938.7,678,18.3,16.0,87,12.26,123,4.9,296.7,332.3,298.9
938.2,682,18.2,15.9,86,12.19,123,4.8,296.7,332.1,298.9
937.7,687,18.2,15.8,86,12.14,123,4.8,296.8,332.0,298.9
937.2,692,18.2,15.8,86,12.11,123,4.8,296.8,332.0,298.9
936.7,696,18.1,15.7,86,12.09,123,4.7,296.8,331.9,298.9
936.1,701,18.1,15.7,86,12.06,123,4.7,296.8,331.8,298.9
935.6,706,18.1,15.6,86,12.00,123,4.6,296.8,331.7,298.9
935.1,711,18.0,15.5,85,11.93,123,4.6,296.8,331.5,298.9
934.6,715,18.0,15.3,84,11.80,123,4.5,296.8,331.2,298.9
934.0,720,18.0,15.2,84,11.68,123,4.4,296.9,330.9,299.0
933.5,726,18.0,15.1,83,11.60,123,4.4,296.9,330.7,299.0
932.9,731,18.0,14.9,82,11.51,123,4.3,297.0,330.5,299.0
932.3,736,18.0,14.7,81,11.38,123,4.2,297.0,330.2,299.0
931.7,742,18.0,14.6,81,11.28,123,4.2,297.0,329.9,299.1
931.1,748,17.9,14.5,81,11.25,123,4.1,297.1,329.8,299.1
930.5,753,17.9,14.5,81,11.23,123,4.0,297.1,329.8,299.1
929.9,759,17.8,14.4,81,11.17,123,4.0,297.1,329.6,299.0
929.3,765,17.8,14.3,80,11.06,122,3.9,297.1,329.3,299.1
928.6,770,17.8,14.1,79,10.99,122,3.9,297.2,329.2,299.1
928.0,776,17.8,14.2,80,11.02,122,3.8,297.2,329.3,299.2
927.4,782,17.7,14.2,80,11.07,122,3.8,297.2,329.5,299.2
926.8,787,17.7,14.3,80,11.10,122,3.8,297.2,329.6,299.2
926.2,793,17.6,14.3,81,11.13,122,3.8,297.2,329.7,299.2
925.5,799,17.6,14.3,81,11.16,122,3.7,297.2,329.7,299.2
925.0,804,17.5,14.4,82,11.20,122,3.7,297.2,329.9,299.2
924.9,805,17.5,14.4,82,11.21,123,3.8,297.2,329.9,299.2
924.2,811,17.5,14.4,82,11.26,123,3.8,297.2,330.1,299.2
923.5,818,17.4,14.4,83,11.26,123,3.8,297.2,330.1,299.3
922.8,824,17.4,14.3,82,11.18,124,3.8,297.3,329.9,299.3
922.2,830,17.3,14.2,82,11.08,124,3.8,297.3,329.6,299.3
921.5,836,17.3,14.0,81,10.96,125,3.9,297.3,329.3,299.3
920.8,843,17.3,13.8,80,10.84,125,3.9,297.3,329.0,299.3
920.2,848,17.3,13.7,80,10.79,126,4.0,297.4,328.9,299.3
919.6,854,17.2,13.7,80,10.79,126,4.0,297.4,328.9,299.3
919.0,860,17.2,13.7,80,10.76,127,4.1,297.4,328.8,299.3
918.4,865,17.1,13.6,80,10.69,128,4.2,297.4,328.7,299.3
917.9,870,17.1,13.5,79,10.66,128,4.2,297.4,328.6,299.3
917.3,875,17.1,13.5,80,10.69,129,4.3,297.5,328.7,299.4
916.8,880,17.0,13.6,80,10.74,129,4.3,297.5,328.8,299.4
916.3,885,17.0,13.7,81,10.79,130,4.4,297.5,329.0,299.4
915.7,890,16.9,13.6,81,10.78,130,4.4,297.5,329.0,299.4
915.2,895,16.9,13.6,81,10.73,130,4.5,297.5,328.8,299.4
914.6,901,16.8,13.5,81,10.67,131,4.5,297.5,328.7,299.4
914.0,906,16.8,13.3,80,10.58,131,4.5,297.5,328.4,299.4
913.4,912,16.8,13.1,79,10.45,131,4.6,297.5,328.1,299.4
912.8,917,16.7,13.0,79,10.37,132,4.6,297.5,327.9,299.4
912.3,922,16.7,13.0,79,10.38,132,4.6,297.6,327.9,299.4
911.7,928,16.7,13.0,79,10.40,132,4.6,297.6,328.0,299.5
911.1,934,16.7,13.0,79,10.38,132,4.6,297.6,328.0,299.5
910.4,939,16.6,12.9,79,10.33,132,4.6,297.7,327.9,299.5
909.8,945,16.6,12.8,78,10.28,133,4.6,297.7,327.8,299.5
909.2,951,16.5,12.7,78,10.21,133,4.5,297.7,327.6,299.5
908.6,957,16.5,12.6,78,10.14,133,4.5,297.7,327.4,299.5
908.0,962,16.5,12.5,77,10.09,133,4.5,297.7,327.3,299.5
907.4,968,16.4,12.5,78,10.09,133,4.5,297.7,327.3,299.5
906.8,973,16.4,12.6,78,10.13,134,4.4,297.8,327.4,299.6
906.2,979,16.4,12.6,78,10.16,134,4.4,297.8,327.6,299.6
905.7,984,16.3,12.6,78,10.15,134,4.4,297.8,327.5,299.6
905.1,990,16.3,12.5,78,10.11,135,4.4,297.8,327.4,299.6
904.5,995,16.2,12.4,78,10.07,135,4.3,297.8,327.3,299.6
904.0,1000,16.2,12.4,78,10.06,136,4.3,297.8,327.3,299.6
903.4,1005,16.2,12.4,78,10.05,136,4.3,297.8,327.3,299.6
902.9,1010,16.1,12.4,79,10.07,137,4.3,297.8,327.4,299.7
902.4,1015,16.1,12.4,79,10.10,138,4.3,297.9,327.5,299.7
901.9,1020,16.0,12.4,79,10.11,138,4.3,297.8,327.5,299.7
901.4,1025,16.0,12.4,79,10.12,139,4.3,297.9,327.5,299.7
900.9,1030,16.0,12.4,80,10.12,140,4.3,297.9,327.5,299.7
900.4,1034,15.9,12.4,80,10.11,140,4.3,297.9,327.5,299.7
899.8,1039,15.9,12.4,80,10.10,141,4.3,297.9,327.5,299.7
899.3,1044,15.8,12.4,80,10.12,141,4.4,297.9,327.6,299.7
898.8,1049,15.8,12.5,80,10.15,142,4.4,297.9,327.7,299.7
898.3,1054,15.8,12.5,81,10.20,142,4.4,297.9,327.8,299.7
897.7,1059,15.7,12.5,81,10.23,143,4.4,297.9,327.9,299.7
897.2,1064,15.7,12.5,81,10.17,143,4.4,297.9,327.7,299.7
896.7,1069,15.6,12.3,81,10.08,143,4.4,297.9,327.4,299.7
896.2,1074,15.6,12.1,80,9.97,144,4.4,297.9,327.2,299.7
895.6,1079,15.6,12.0,79,9.89,144,4.4,298.0,327.0,299.7
895.1,1084,15.6,11.9,79,9.84,144,4.4,298.0,326.9,299.8
894.6,1089,15.6,11.9,79,9.80,143,4.4,298.0,326.8,299.8
894.1,1094,15.5,11.8,78,9.76,143,4.4,298.1,326.7,299.8
893.6,1098,15.5,11.7,78,9.73,143,4.3,298.1,326.7,299.8
893.1,1103,15.5,11.7,78,9.69,143,4.3,298.1,326.6,299.8
892.5,1109,15.5,11.6,78,9.63,142,4.3,298.1,326.5,299.9
891.9,1114,15.5,11.5,77,9.58,142,4.3,298.2,326.4,299.9
891.3,1120,15.4,11.4,77,9.55,141,4.2,298.2,326.3,299.9
890.7,1126,15.4,11.4,77,9.56,141,4.2,298.2,326.3,299.9
890.1,1132,15.3,11.4,78,9.58,140,4.2,298.2,326.4,299.9
889.5,1138,15.3,11.4,78,9.58,139,4.2,298.2,326.4,299.9
888.9,1143,15.2,11.4,78,9.57,139,4.2,298.2,326.4,300.0
888.3,1149,15.2,11.3,78,9.53,138,4.1,298.3,326.3,300.0
887.7,1155,15.2,11.2,77,9.43,138,4.1,298.3,326.0,300.0
887.1,1160,15.1,11.0,76,9.34,137,4.1,298.3,325.8,300.0
886.5,1166,15.1,10.9,76,9.25,137,4.1,298.3,325.6,300.0
886.0,1171,15.1,10.7,75,9.15,137,4.1,298.4,325.3,300.0
885.4,1177,15.1,10.5,74,9.05,136,4.1,298.4,325.1,300.0
884.8,1182,15.1,10.4,74,9.01,136,4.1,298.5,325.0,300.1
884.2,1188,15.0,10.4,74,8.96,136,4.1,298.5,324.9,300.1
883.6,1194,15.0,10.3,73,8.92,136,4.1,298.5,324.8,300.1
883.1,1199,15.0,10.3,74,8.94,136,4.1,298.5,324.9,300.2
882.5,1205,15.0,10.5,75,9.05,137,4.1,298.6,325.3,300.2
881.9,1211,14.9,10.6,76,9.15,137,4.1,298.6,325.6,300.2
881.3,1216,14.8,10.7,76,9.22,137,4.1,298.6,325.8,300.2
880.7,1222,14.8,10.8,77,9.29,138,4.1,298.6,326.0,300.3
880.1,1227,14.7,11.0,78,9.40,139,4.1,298.6,326.3,300.3
879.6,1233,14.7,11.1,79,9.49,139,4.1,298.6,326.5,300.3
879.0,1238,14.6,11.2,80,9.54,140,4.2,298.6,326.7,300.3
878.4,1244,14.6,11.2,80,9.58,141,4.2,298.6,326.8,300.3
877.9,1249,14.6,11.2,80,9.56,142,4.2,298.6,326.8,300.3
877.3,1254,14.5,11.1,80,9.52,143,4.2,298.7,326.7,300.4
876.8,1259,14.5,11.1,80,9.50,144,4.2,298.7,326.7,300.4
876.3,1264,14.5,11.1,80,9.50,145,4.2,298.7,326.7,300.4
875.8,1269,14.4,11.1,80,9.52,146,4.2,298.7,326.7,300.4
875.3,1274,14.4,11.1,81,9.55,146,4.3,298.7,326.8,300.4
874.7,1280,14.4,11.2,81,9.57,147,4.3,298.7,326.9,300.4
874.2,1285,14.3,11.1,81,9.56,148,4.3,298.7,326.9,300.5
873.6,1290,14.3,11.1,81,9.53,149,4.3,298.8,326.8,300.5
873.0,1296,14.3,10.9,80,9.44,149,4.3,298.8,326.6,300.5
872.4,1302,14.2,10.7,79,9.30,150,4.3,298.8,326.3,300.5
871.8,1308,14.2,10.4,78,9.15,150,4.3,298.9,325.9,300.5
871.2,1314,14.2,10.2,77,9.02,150,4.3,298.9,325.6,300.6
870.6,1320,14.2,10.1,76,8.95,150,4.3,299.0,325.4,300.6
870.0,1325,14.2,10.1,76,8.97,150,4.3,299.0,325.5,300.6
869.4,1331,14.2,10.3,77,9.09,150,4.3,299.1,325.9,300.7
868.9,1336,14.2,10.6,79,9.28,150,4.3,299.1,326.5,300.8
868.3,1342,14.1,10.8,80,9.40,149,4.3,299.1,326.9,300.8
867.8,1347,14.1,10.7,80,9.34,149,4.3,299.1,326.7,300.8
867.3,1351,14.1,10.4,78,9.19,148,4.3,299.2,326.4,300.9
866.8,1356,14.1,10.2,77,9.03,148,4.2,299.3,326.0,300.9
866.3,1361,14.1,9.9,76,8.88,147,4.2,299.3,325.6,300.9
865.8,1366,14.1,9.7,74,8.74,146,4.2,299.4,325.2,300.9
865.3,1371,14.1,9.4,73,8.57,146,4.2,299.4,324.8,300.9
864.8,1376,14.1,8.9,71,8.30,145,4.2,299.4,324.0,300.9
864.3,1381,14.1,8.2,68,7.93,144,4.2,299.5,323.0,300.9
863.7,1386,14.2,7.7,65,7.67,143,4.2,299.6,322.4,301.0
863.2,1392,14.2,7.7,65,7.67,143,4.2,299.7,322.5,301.0
862.7,1397,14.1,8.0,66,7.80,142,4.2,299.7,322.9,301.1
862.1,1402,14.1,8.2,68,7.96,142,4.2,299.7,323.4,301.1
861.6,1407,14.0,8.7,70,8.22,141,4.3,299.7,324.1,301.2
861.1,1412,14.0,9.2,73,8.51,141,4.3,299.7,324.9,301.2
860.6,1417,13.9,9.5,75,8.68,141,4.3,299.6,325.3,301.2
860.2,1421,13.8,9.5,75,8.69,141,4.3,299.6,325.4,301.2
859.7,1426,13.9,9.2,74,8.53,141,4.3,299.7,325.0,301.2
859.3,1430,13.9,8.6,70,8.18,141,4.3,299.7,324.1,301.2
858.9,1434,13.9,7.6,66,7.67,142,4.3,299.8,322.7,301.2
858.4,1439,14.0,6.6,61,7.15,142,4.3,300.0,321.3,301.3
858.0,1443,14.1,6.1,59,6.92,142,4.3,300.1,320.8,301.3
857.5,1448,14.1,6.2,59,6.95,143,4.3,300.1,320.9,301.4
857.0,1452,14.0,6.4,60,7.03,144,4.3,300.1,321.2,301.4
856.5,1457,14.0,6.7,61,7.18,145,4.3,300.1,321.6,301.4
856.0,1462,13.9,7.2,64,7.44,145,4.3,300.1,322.3,301.5
855.6,1467,13.9,8.0,67,7.87,146,4.3,300.1,323.6,301.5
855.1,1472,13.8,8.8,72,8.35,147,4.3,300.1,324.9,301.6
854.6,1476,13.8,9.5,76,8.77,148,4.3,300.1,326.1,301.7
854.1,1481,13.7,10.0,78,9.06,149,4.3,300.1,327.0,301.7
853.7,1485,13.7,10.2,80,9.19,150,4.3,300.1,327.3,301.7
853.2,1490,13.6,10.3,80,9.26,151,4.3,300.1,327.5,301.7
852.8,1494,13.6,10.4,81,9.33,151,4.3,300.0,327.7,301.7
852.4,1498,13.5,10.4,82,9.36,152,4.3,300.0,327.8,301.7
852.0,1502,13.5,10.5,82,9.38,153,4.3,300.0,327.8,301.7
851.6,1506,13.5,10.5,82,9.38,154,4.3,300.1,327.9,301.8
851.1,1511,13.4,10.4,82,9.36,154,4.3,300.1,327.8,301.8
850.7,1515,13.4,10.4,82,9.33,155,4.3,300.1,327.8,301.8
850.2,1520,13.4,10.3,81,9.30,156,4.3,300.2,327.7,301.8
850.0,1522,13.4,10.2,81,9.26,156,4.3,300.2,327.7,301.9
849.7,1524,13.4,10.2,81,9.22,156,4.3,300.2,327.6,301.9
849.2,1529,13.4,10.0,80,9.11,157,4.3,300.3,327.3,301.9
848.7,1534,13.4,9.8,79,8.99,157,4.3,300.3,327.0,301.9
848.2,1539,13.4,9.6,78,8.89,158,4.4,300.4,326.8,302.0
847.7,1545,13.4,9.6,78,8.87,158,4.4,300.4,326.8,302.0
847.2,1550,13.4,9.6,78,8.91,159,4.4,300.4,326.9,302.0
846.6,1555,13.3,9.6,78,8.91,159,4.4,300.5,327.0,302.1
846.1,1561,13.3,9.5,78,8.87,160,4.5,300.5,326.8,302.1
845.5,1567,13.3,9.4,77,8.78,161,4.5,300.5,326.6,302.1
844.9,1573,13.3,9.2,76,8.67,161,4.5,300.6,326.4,302.2
844.3,1579,13.3,9.0,75,8.56,162,4.6,300.6,326.1,302.2
843.6,1585,13.3,8.8,74,8.47,162,4.6,300.7,326.0,302.3
843.0,1591,13.3,8.7,74,8.42,163,4.7,300.8,326.0,302.3
842.4,1597,13.3,8.6,73,8.36,163,4.7,300.9,325.8,302.4
841.9,1603,13.3,8.4,72,8.26,164,4.8,300.9,325.6,302.4
841.3,1609,13.3,8.2,71,8.16,164,4.8,300.9,325.3,302.4
840.7,1614,13.3,8.0,70,8.02,165,4.9,301.0,324.9,302.4
840.2,1620,13.3,7.6,69,7.82,165,4.9,301.0,324.4,302.4
839.6,1625,13.3,7.1,66,7.57,166,5.0,301.1,323.8,302.5
839.1,1631,13.3,6.7,64,7.36,166,5.1,301.1,323.2,302.5
838.5,1636,13.2,6.5,64,7.28,167,5.1,301.2,323.0,302.5
838.0,1641,13.2,6.4,63,7.20,167,5.2,301.2,322.8,302.5
837.5,1647,13.2,6.1,62,7.07,167,5.2,301.2,322.5,302.5
837.0,1652,13.2,5.8,61,6.95,168,5.2,301.3,322.2,302.5
836.5,1657,13.2,5.8,61,6.95,168,5.3,301.3,322.2,302.6
836.0,1662,13.2,6.3,63,7.17,168,5.3,301.3,322.9,302.6
835.5,1667,13.1,6.8,66,7.46,168,5.3,301.3,323.7,302.7
835.0,1672,13.0,6.9,66,7.49,168,5.3,301.3,323.8,302.7
834.5,1677,13.0,6.5,65,7.31,168,5.3,301.3,323.3,302.6
834.0,1682,13.0,6.1,63,7.08,168,5.3,301.4,322.7,302.7
833.5,1687,13.0,5.7,61,6.92,168,5.3,301.5,322.3,302.7
833.0,1692,13.1,5.5,60,6.84,168,5.2,301.5,322.2,302.8
832.5,1697,13.1,5.3,59,6.71,168,5.2,301.6,321.8,302.8
832.1,1701,13.1,4.8,57,6.51,168,5.1,301.6,321.3,302.8
831.6,1706,13.1,4.5,56,6.36,168,5.0,301.7,320.9,302.9
831.2,1710,13.1,4.4,56,6.31,167,5.0,301.7,320.8,302.9
830.8,1714,13.0,4.4,56,6.31,167,4.9,301.8,320.9,302.9
830.4,1719,13.0,4.3,55,6.27,167,4.8,301.8,320.8,302.9
829.9,1723,13.0,4.0,54,6.17,167,4.7,301.8,320.5,302.9
829.5,1727,13.0,3.9,54,6.11,167,4.6,301.9,320.4,303.0
829.1,1732,13.0,4.0,54,6.15,166,4.5,301.9,320.5,303.0
828.6,1736,12.9,4.1,55,6.21,166,4.5,301.9,320.7,303.0
828.2,1741,12.9,4.2,55,6.23,166,4.4,301.9,320.8,303.0
827.8,1745,12.9,4.3,56,6.30,165,4.3,301.9,321.0,303.0
827.3,1749,12.8,4.6,57,6.43,165,4.2,301.9,321.3,303.0
826.9,1754,12.8,4.8,58,6.53,164,4.1,301.9,321.6,303.0
826.5,1758,12.7,4.8,59,6.55,164,4.1,301.8,321.7,303.0
826.1,1762,12.7,4.8,59,6.53,163,4.0,301.9,321.6,303.0
825.6,1767,12.6,4.7,59,6.52,163,4.0,301.9,321.6,303.1
825.1,1772,12.6,4.7,59,6.51,162,4.0,301.9,321.6,303.1
824.6,1777,12.6,4.6,58,6.48,161,3.9,301.9,321.5,303.1
824.1,1782,12.5,4.6,58,6.46,160,3.9,301.9,321.5,303.1
823.6,1788,12.5,4.6,59,6.49,160,4.0,301.9,321.6,303.1
823.1,1793,12.4,4.9,60,6.60,159,4.0,301.9,321.9,303.1
822.6,1798,12.4,5.2,62,6.77,158,4.0,301.9,322.4,303.1
822.1,1803,12.3,5.6,63,6.94,157,4.1,301.9,322.8,303.1
821.6,1808,12.2,5.8,65,7.04,156,4.2,301.9,323.1,303.1
821.1,1813,12.2,5.9,65,7.11,155,4.2,301.9,323.3,303.2
820.7,1817,12.1,6.0,66,7.16,154,4.3,301.8,323.4,303.2
820.2,1822,12.1,6.0,66,7.18,153,4.5,301.8,323.5,303.2
819.7,1827,12.0,6.1,67,7.22,152,4.6,301.8,323.6,303.2
819.3,1832,12.0,6.2,68,7.29,151,4.7,301.8,323.8,303.2
818.8,1837,11.9,6.5,69,7.42,150,4.9,301.8,324.2,303.2
818.3,1842,11.9,6.8,71,7.60,149,5.0,301.8,324.7,303.2
817.7,1847,11.8,7.2,73,7.79,148,5.2,301.8,325.2,303.2
817.2,1853,11.8,7.5,75,8.00,147,5.4,301.8,325.8,303.3
816.7,1858,11.7,8.0,78,8.26,147,5.5,301.8,326.5,303.3
