PRES,HGHT,TEMP,DWPT,RELH,MIXR,DRCT,SPED,THTA,THTE,THTV
1018.9,31,23.6,17.6,69,12.52,60,8.0,295.2,331.3,297.4
1018.1,37,23.4,17.7,70,12.63,62,6.3,295.0,331.5,297.3
1017.4,43,23.2,17.7,71,12.62,64,5.9,294.9,331.3,297.2
1016.7,49,23.1,17.6,71,12.53,65,6.1,294.8,330.9,297.0
1015.7,58,22.8,17.3,71,12.32,65,6.5,294.6,330.1,296.8
1014.9,65,22.6,17.2,71,12.21,66,7.0,294.5,329.7,296.7
1014.1,72,22.6,17.1,71,12.15,66,7.5,294.5,329.5,296.7
1013.6,76,22.5,16.9,71,12.07,66,7.9,294.5,329.3,296.6
1012.9,82,22.4,16.8,71,12.00,67,8.3,294.5,329.0,296.6
1012.1,89,22.4,16.7,70,11.91,67,8.7,294.5,328.8,296.6
1011.4,95,22.2,16.4,70,11.69,67,9.0,294.4,328.1,296.5
1010.6,102,22.1,16.4,70,11.65,68,9.3,294.4,327.9,296.4
1009.9,108,22.0,16.4,70,11.68,68,9.7,294.4,328.0,296.4
1009.1,115,21.9,16.3,71,11.64,69,10.0,294.3,327.8,296.3
1008.3,122,21.8,16.3,71,11.62,69,10.2,294.3,327.7,296.3
1007.5,128,21.7,16.2,71,11.60,69,10.5,294.3,327.6,296.3
1006.8,135,21.7,16.2,71,11.58,70,10.7,294.2,327.6,296.3
1006.0,142,21.6,16.1,71,11.54,70,10.9,294.2,327.4,296.3
1005.2,149,21.5,16.1,71,11.55,70,11.1,294.2,327.5,296.3
1004.4,155,21.5,16.2,72,11.58,71,11.2,294.3,327.6,296.3
1003.6,162,21.4,16.1,72,11.55,71,11.4,294.2,327.5,296.3
1002.8,169,21.3,16.1,72,11.51,71,11.5,294.2,327.4,296.3
1002.0,176,21.3,16.1,72,11.54,72,11.6,294.2,327.5,296.3
1001.2,183,21.2,16.1,73,11.58,72,11.7,294.2,327.6,296.3
1000.4,190,21.1,16.1,73,11.60,72,11.8,294.2,327.6,296.3
1000.0,193,21.1,16.1,73,11.60,72,11.8,294.2,327.6,296.3
999.6,197,21.1,16.1,73,11.60,72,11.8,294.2,327.6,296.3
998.7,205,21.0,16.1,74,11.62,72,11.9,294.3,327.7,296.3
997.9,212,20.9,16.1,74,11.63,72,11.9,294.3,327.7,296.3
997.0,220,20.8,16.1,74,11.61,72,12.0,294.2,327.7,296.3
996.1,227,20.8,16.0,74,11.56,72,12.0,294.2,327.5,296.3
995.2,235,20.7,16.0,74,11.54,72,12.0,294.2,327.4,296.3
994.4,242,20.6,16.0,75,11.57,72,12.0,294.2,327.5,296.3
993.5,250,20.6,16.1,75,11.63,72,12.0,294.2,327.7,296.3
992.7,257,20.5,16.1,76,11.69,72,12.0,294.2,327.9,296.3
991.9,264,20.4,16.2,77,11.73,72,12.0,294.2,328.0,296.3
991.0,271,20.3,16.2,77,11.73,72,12.0,294.2,328.0,296.3
990.2,279,20.3,16.2,77,11.75,72,12.0,294.2,328.1,296.3
989.4,285,20.2,16.2,78,11.76,71,12.0,294.3,328.1,296.3
988.7,292,20.1,16.1,78,11.73,71,12.0,294.2,328.0,296.3
988.0,298,20.1,16.1,78,11.72,71,12.0,294.2,328.0,296.3
987.3,304,20.0,16.1,78,11.76,71,12.0,294.2,328.1,296.3
986.6,310,20.0,16.2,79,11.80,71,11.9,294.3,328.2,296.3
985.9,316,19.9,16.2,79,11.81,70,11.9,294.3,328.2,296.3
985.2,322,19.9,16.1,79,11.76,70,11.9,294.3,328.1,296.3
984.5,328,19.8,16.1,79,11.75,70,12.0,294.3,328.0,296.3
983.8,335,19.7,16.1,80,11.79,70,12.0,294.2,328.2,296.3
983.1,341,19.7,16.1,80,11.78,69,12.0,294.3,328.1,296.3
982.3,348,19.6,15.9,79,11.67,69,12.0,294.2,327.8,296.3
981.6,354,19.5,15.8,79,11.59,69,12.0,294.2,327.5,296.3
980.8,361,19.5,15.8,80,11.61,69,12.0,294.2,327.6,296.3
980.1,367,19.4,15.9,80,11.64,69,12.0,294.2,327.7,296.3
979.4,374,19.3,15.8,80,11.61,69,12.0,294.2,327.6,296.3
978.7,380,19.3,15.8,80,11.59,68,12.1,294.2,327.6,296.3
978.0,386,19.2,15.8,80,11.60,68,12.1,294.2,327.6,296.3
977.3,392,19.2,15.8,81,11.61,68,12.1,294.2,327.6,296.3
976.7,397,19.1,15.8,81,11.60,68,12.1,294.2,327.6,296.3
976.1,403,19.0,15.7,81,11.59,68,12.2,294.2,327.6,296.3
975.4,409,19.0,15.7,81,11.58,68,12.2,294.2,327.5,296.3
974.8,414,18.9,15.7,82,11.59,68,12.2,294.2,327.6,296.3
974.1,420,18.9,15.7,82,11.61,68,12.3,294.2,327.6,296.3
973.5,425,18.8,15.7,82,11.63,68,12.3,294.2,327.7,296.3
972.9,431,18.8,15.7,83,11.63,68,12.3,294.2,327.7,296.3
972.3,436,18.7,15.7,83,11.59,67,12.3,294.2,327.5,296.3
971.7,442,18.6,15.6,82,11.53,67,12.3,294.2,327.4,296.2
971.1,447,18.6,15.5,82,11.51,67,12.3,294.2,327.3,296.2
970.5,452,18.5,15.6,83,11.58,67,12.3,294.2,327.5,296.2
969.9,457,18.5,15.7,84,11.65,68,12.3,294.2,327.7,296.3
969.3,462,18.5,15.7,84,11.67,68,12.3,294.2,327.8,296.3
968.8,467,18.4,15.6,84,11.61,68,12.3,294.2,327.6,296.3
968.2,472,18.4,15.5,84,11.53,68,12.3,294.2,327.4,296.3
967.6,478,18.3,15.4,83,11.43,68,12.3,294.2,327.1,296.2
967.1,483,18.2,15.3,83,11.39,68,12.2,294.2,326.9,296.2
966.5,488,18.2,15.3,83,11.38,68,12.2,294.2,326.9,296.2
965.9,493,18.1,15.3,83,11.37,68,12.2,294.2,326.9,296.2
965.3,498,18.1,15.3,84,11.37,69,12.1,294.2,326.9,296.2
964.7,503,18.0,15.3,84,11.37,69,12.1,294.2,326.9,296.2
964.1,509,18.0,15.2,84,11.36,69,12.1,294.2,326.9,296.2
963.5,514,17.9,15.2,84,11.34,70,12.0,294.2,326.8,296.2
962.9,519,17.9,15.2,84,11.32,70,12.0,294.2,326.8,296.2
962.3,525,17.8,15.2,85,11.34,70,11.9,294.2,326.8,296.2
961.7,530,17.8,15.2,85,11.36,71,11.9,294.2,326.8,296.2
961.1,536,17.7,15.2,85,11.38,71,11.9,294.2,326.9,296.2
960.5,541,17.6,15.3,86,11.43,71,11.8,294.2,327.0,296.2
959.9,546,17.6,15.3,87,11.49,72,11.8,294.2,327.2,296.2
959.3,551,17.6,15.4,87,11.55,72,11.8,294.2,327.4,296.2
958.7,557,17.5,15.5,88,11.60,72,11.7,294.2,327.6,296.2
958.1,562,17.5,15.5,88,11.64,73,11.7,294.2,327.7,296.3
957.5,568,17.4,15.5,88,11.64,73,11.7,294.2,327.7,296.3
956.9,574,17.4,15.5,89,11.62,74,11.7,294.2,327.6,296.3
956.2,579,17.3,15.4,88,11.58,74,11.7,294.2,327.5,296.2
955.6,585,17.3,15.4,89,11.58,74,11.7,294.2,327.5,296.2
954.9,591,17.2,15.4,89,11.62,75,11.7,294.2,327.6,296.3
954.2,597,17.2,15.4,90,11.62,75,11.7,294.2,327.6,296.3
953.6,603,17.1,15.4,90,11.62,75,11.7,294.2,327.6,296.3
952.9,609,17.0,15.3,90,11.57,76,11.7,294.2,327.5,296.2
952.2,615,17.0,15.2,89,11.48,76,11.7,294.2,327.2,296.2
951.5,621,16.9,15.1,89,11.45,76,11.8,294.2,327.1,296.2
950.8,628,16.9,15.2,90,11.47,76,11.8,294.2,327.2,296.2
950.2,634,16.8,15.2,90,11.50,76,11.8,294.2,327.3,296.2
949.5,640,16.7,15.2,91,11.53,77,11.8,294.2,327.4,296.2
948.8,645,16.7,15.2,91,11.52,77,11.8,294.2,327.4,296.2
948.2,651,16.6,15.2,91,11.50,77,11.8,294.2,327.3,296.2
947.6,657,16.6,15.1,91,11.49,77,11.8,294.2,327.2,296.2
947.0,662,16.5,15.1,91,11.48,77,11.8,294.2,327.2,296.2
946.4,668,16.5,15.1,92,11.48,77,11.8,294.2,327.2,296.2
945.8,673,16.4,15.1,92,11.48,77,11.8,294.2,327.2,296.2
945.2,679,16.4,15.1,92,11.49,77,11.8,294.2,327.3,296.3
944.6,684,16.3,15.1,93,11.52,77,11.8,294.2,327.3,296.3
943.9,690,16.3,15.1,93,11.54,77,11.8,294.2,327.4,296.3
943.2,696,16.2,15.1,93,11.54,77,11.8,294.2,327.4,296.3
942.6,702,16.1,15.1,93,11.51,77,11.8,294.2,327.3,296.2
941.9,708,16.1,15.0,93,11.47,76,11.7,294.2,327.2,296.2
941.2,714,16.0,14.9,93,11.42,76,11.7,294.2,327.1,296.2
940.5,720,16.0,14.9,94,11.42,76,11.7,294.2,327.1,296.2
939.9,726,15.9,14.9,94,11.41,76,11.6,294.2,327.0,296.2
939.2,732,15.9,14.9,94,11.42,76,11.6,294.2,327.1,296.2
938.6,738,15.8,14.9,95,11.44,76,11.5,294.2,327.1,296.2
938.0,744,15.7,15.0,95,11.47,76,11.5,294.2,327.2,296.2
937.4,749,15.7,15.0,95,11.49,76,11.4,294.2,327.2,296.2
936.8,755,15.6,14.9,95,11.45,76,11.4,294.2,327.1,296.2
936.2,760,15.6,14.8,95,11.40,75,11.4,294.2,327.0,296.2
935.6,765,15.5,14.8,95,11.36,75,11.3,294.2,326.9,296.2
935.0,770,15.5,14.7,95,11.34,75,11.3,294.2,326.9,296.3
934.5,775,15.5,14.7,95,11.33,75,11.3,294.3,326.9,296.3
933.9,781,15.4,14.8,96,11.39,75,11.2,294.3,327.0,296.3
933.4,786,15.4,14.8,97,11.42,75,11.2,294.2,327.1,296.3
932.8,791,15.3,14.8,97,11.44,75,11.2,294.2,327.1,296.3
932.2,797,15.3,14.8,97,11.41,75,11.2,294.2,327.1,296.3
931.5,802,15.2,14.6,96,11.28,75,11.2,294.3,326.7,296.3
930.9,808,15.2,14.3,94,11.07,75,11.2,294.3,326.1,296.2
930.3,814,15.2,14.1,93,10.93,75,11.3,294.3,325.8,296.2
929.7,819,15.1,14.0,93,10.90,75,11.3,294.3,325.7,296.3
929.1,825,15.1,14.1,94,10.93,75,11.3,294.3,325.8,296.3
928.5,830,15.0,14.0,93,10.86,75,11.4,294.3,325.6,296.3
927.9,836,15.0,13.8,93,10.75,76,11.4,294.3,325.3,296.2
927.3,841,14.9,13.8,93,10.74,76,11.5,294.4,325.3,296.3
926.7,847,14.9,13.9,93,10.80,76,11.5,294.4,325.5,296.3
926.1,852,14.9,13.9,94,10.85,76,11.6,294.4,325.7,296.3
925.6,857,14.8,13.9,95,10.87,76,11.6,294.4,325.7,296.3
925.0,862,14.8,13.9,95,10.89,76,11.8,294.4,325.8,296.3
924.5,867,14.7,13.8,95,10.82,76,11.8,294.4,325.6,296.3
924.0,871,14.7,13.7,94,10.75,76,11.8,294.4,325.4,296.3
923.5,876,14.7,13.6,94,10.68,76,11.9,294.4,325.2,296.3
923.0,880,14.6,13.3,92,10.49,76,12.0,294.5,324.7,296.3
922.6,885,14.7,13.0,90,10.28,76,12.0,294.5,324.2,296.3
922.1,889,14.7,12.8,88,10.11,76,12.1,294.6,323.8,296.4
921.6,893,14.7,12.7,88,10.03,76,12.1,294.6,323.6,296.4
921.1,898,14.7,12.6,87,10.01,76,12.2,294.7,323.6,296.4
920.6,902,14.7,12.6,87,9.99,76,12.2,294.7,323.6,296.5
920.1,907,14.6,12.5,87,9.94,76,12.3,294.7,323.5,296.5
919.6,911,14.6,12.3,86,9.84,76,12.3,294.7,323.2,296.5
919.1,916,14.6,12.1,85,9.68,75,12.3,294.8,322.8,296.5
918.6,921,14.6,11.8,83,9.50,75,12.4,294.8,322.4,296.5
918.0,926,14.6,11.6,82,9.41,75,12.4,294.9,322.2,296.6
917.5,931,14.6,11.6,82,9.39,75,12.4,294.9,322.2,296.6
916.9,936,14.6,11.6,82,9.41,75,12.4,294.9,322.2,296.6
916.3,942,14.5,11.6,83,9.41,75,12.4,295.0,322.2,296.6
915.8,947,14.5,11.6,83,9.39,75,12.4,295.0,322.2,296.6
915.2,953,14.5,11.5,83,9.37,74,12.4,295.0,322.2,296.6
914.6,958,14.4,11.5,83,9.36,74,12.4,295.0,322.2,296.7
914.0,963,14.4,11.5,83,9.33,74,12.3,295.0,322.1,296.7
913.5,968,14.3,11.4,83,9.32,74,12.3,295.0,322.1,296.7
913.0,973,14.3,11.4,83,9.33,74,12.3,295.0,322.1,296.7
912.4,978,14.3,11.4,83,9.33,74,12.3,295.0,322.1,296.7
911.9,983,14.2,11.4,83,9.30,74,12.2,295.1,322.1,296.7
911.4,988,14.2,11.3,83,9.29,74,12.2,295.1,322.0,296.7
910.8,993,14.2,11.3,83,9.27,74,12.2,295.1,322.0,296.8
910.3,998,14.2,11.3,83,9.25,74,12.1,295.1,322.0,296.8
909.7,1003,14.1,11.2,83,9.22,74,12.1,295.1,321.9,296.8
909.1,1009,14.1,11.1,82,9.19,74,12.1,295.2,321.9,296.8
908.6,1014,14.1,11.1,82,9.17,74,12.1,295.2,321.8,296.8
908.0,1019,14.0,11.1,82,9.15,74,12.0,295.2,321.8,296.8
907.5,1024,14.0,11.0,82,9.11,74,12.0,295.2,321.7,296.8
906.9,1029,14.0,10.9,82,9.08,74,12.0,295.2,321.6,296.8
906.3,1035,13.9,10.9,82,9.05,74,12.0,295.2,321.6,296.9
905.8,1040,13.9,10.9,82,9.05,74,12.0,295.2,321.6,296.9
905.2,1045,13.8,10.8,82,9.05,74,12.0,295.3,321.6,296.9
904.7,1050,13.8,10.8,82,9.04,74,12.0,295.3,321.6,296.9
904.2,1055,13.8,10.8,82,9.04,74,12.0,295.3,321.6,296.9
903.6,1060,13.7,10.8,82,9.04,75,12.0,295.3,321.6,296.9
903.1,1065,13.7,10.8,82,9.03,75,12.0,295.3,321.6,296.9
902.6,1069,13.7,10.7,82,8.99,75,12.0,295.4,321.5,297.0
902.1,1074,13.6,10.6,82,8.96,75,12.0,295.3,321.4,296.9
901.6,1079,13.6,10.5,82,8.90,75,12.1,295.4,321.3,296.9
901.0,1084,13.6,10.4,81,8.85,76,12.1,295.4,321.2,297.0
900.5,1090,13.6,10.4,81,8.82,76,12.2,295.5,321.1,297.0
899.9,1095,13.6,10.4,81,8.84,76,12.2,295.5,321.2,297.1
899.3,1101,13.5,10.4,82,8.87,76,12.3,295.5,321.3,297.1
898.7,1106,13.5,10.5,82,8.91,76,12.3,295.5,321.5,297.1
898.1,1112,13.5,10.5,82,8.93,77,12.4,295.6,321.5,297.1
897.5,1118,13.4,10.5,83,8.93,77,12.4,295.6,321.6,297.2
896.8,1124,13.4,10.5,83,8.94,77,12.5,295.6,321.6,297.2
896.2,1130,13.3,10.5,83,8.94,77,12.6,295.6,321.6,297.2
895.6,1136,13.3,10.5,83,8.94,78,12.6,295.6,321.6,297.2
894.9,1142,13.2,10.5,84,8.95,78,12.7,295.6,321.7,297.2
894.3,1148,13.2,10.5,84,8.93,78,12.8,295.6,321.6,297.2
893.6,1154,13.1,10.4,84,8.91,78,12.8,295.6,321.6,297.2
893.0,1160,13.1,10.4,84,8.90,79,12.9,295.6,321.6,297.2
892.4,1166,13.0,10.4,84,8.90,79,12.9,295.6,321.6,297.2
891.7,1172,13.0,10.4,84,8.89,79,13.0,295.6,321.5,297.2
891.1,1178,12.9,10.3,84,8.87,79,13.0,295.6,321.5,297.2
890.4,1184,12.9,10.3,84,8.84,79,13.0,295.7,321.4,297.2
889.8,1190,12.8,10.2,84,8.82,79,13.1,295.7,321.4,297.2
889.1,1197,12.8,10.2,84,8.79,80,13.1,295.7,321.3,297.3
888.5,1203,12.8,10.1,84,8.75,80,13.1,295.7,321.3,297.3
887.8,1209,12.7,10.0,83,8.71,80,13.1,295.8,321.2,297.3
887.2,1215,12.7,9.9,83,8.64,80,13.1,295.8,321.0,297.3
886.5,1221,12.7,9.8,82,8.58,80,13.1,295.9,320.9,297.4
885.9,1227,12.7,9.7,82,8.56,80,13.0,295.9,320.9,297.4
885.3,1233,12.6,9.7,82,8.58,80,13.0,295.9,320.9,297.4
884.7,1239,12.6,9.7,83,8.59,80,13.0,295.9,321.0,297.4
884.0,1245,12.5,9.7,83,8.58,80,13.0,295.9,321.0,297.5
883.4,1251,12.5,9.7,83,8.59,80,12.9,295.9,321.0,297.5
882.7,1257,12.4,9.7,84,8.59,80,12.9,295.9,321.0,297.4
882.1,1263,12.4,9.6,83,8.55,80,12.8,295.9,320.9,297.4
881.5,1269,12.3,9.5,83,8.48,80,12.8,295.9,320.7,297.4
880.9,1275,12.3,9.3,82,8.40,80,12.7,296.0,320.5,297.5
880.3,1281,12.3,9.2,82,8.34,80,12.7,296.0,320.4,297.5
879.7,1286,12.2,9.2,82,8.32,80,12.6,296.0,320.4,297.5
879.1,1292,12.2,9.2,82,8.33,80,12.6,296.0,320.4,297.5
878.5,1297,12.2,9.2,82,8.33,80,12.5,296.1,320.4,297.5
878.0,1302,12.1,9.1,82,8.29,80,12.5,296.1,320.3,297.6
877.4,1308,12.1,9.0,81,8.24,80,12.5,296.1,320.2,297.6
876.8,1313,12.1,8.9,81,8.21,80,12.4,296.1,320.2,297.6
876.2,1319,12.1,8.9,81,8.20,80,12.4,296.2,320.2,297.6
875.7,1324,12.0,8.9,81,8.17,80,12.4,296.2,320.1,297.6
875.1,1330,12.0,8.8,81,8.12,80,12.3,296.2,320.0,297.6
874.5,1335,12.0,8.6,80,8.06,80,12.3,296.2,319.9,297.7
874.0,1341,12.0,8.5,79,8.01,79,12.3,296.3,319.8,297.7
873.4,1346,12.0,8.5,80,8.02,79,12.3,296.4,319.9,297.8
872.8,1352,12.0,8.7,81,8.14,79,12.3,296.4,320.3,297.9
872.2,1358,12.0,9.0,82,8.26,79,12.2,296.5,320.7,297.9
871.6,1364,11.9,9.0,82,8.29,79,12.2,296.5,320.8,297.9
870.9,1370,11.8,9.0,83,8.28,79,12.2,296.4,320.7,297.9
870.3,1376,11.8,8.9,83,8.26,79,12.3,296.4,320.6,297.9
869.6,1383,11.7,8.9,83,8.24,79,12.3,296.5,320.6,297.9
869.0,1389,11.6,8.8,83,8.22,78,12.3,296.4,320.5,297.9
868.3,1395,11.6,8.8,83,8.21,78,12.3,296.5,320.5,297.9
867.7,1401,11.5,8.8,83,8.20,78,12.3,296.5,320.5,297.9
867.1,1407,11.5,8.8,83,8.20,78,12.3,296.5,320.5,297.9
866.4,1413,11.4,8.7,83,8.19,77,12.4,296.5,320.5,297.9
865.8,1419,11.4,8.7,84,8.19,77,12.4,296.5,320.5,297.9
865.2,1425,11.3,8.7,84,8.19,77,12.4,296.5,320.5,297.9
864.6,1431,11.3,8.7,84,8.22,77,12.5,296.5,320.6,298.0
863.9,1437,11.2,8.8,85,8.27,76,12.5,296.5,320.7,298.0
863.3,1443,11.2,8.8,86,8.29,76,12.6,296.5,320.8,298.0
862.7,1449,11.1,8.8,86,8.29,76,12.6,296.5,320.8,298.0
862.1,1455,11.0,8.9,86,8.30,75,12.7,296.5,320.8,298.0
861.5,1461,11.0,8.9,87,8.33,75,12.8,296.5,320.9,298.0
860.9,1467,10.9,8.9,87,8.34,75,12.8,296.5,320.9,298.0
860.3,1473,10.9,8.9,88,8.37,75,12.9,296.5,321.0,298.0
859.8,1478,10.8,8.9,88,8.38,75,12.9,296.5,321.1,298.0
859.2,1483,10.8,9.0,88,8.40,75,13.0,296.5,321.1,298.0
858.7,1489,10.8,9.0,89,8.41,75,13.1,296.5,321.2,298.0
858.1,1494,10.7,9.0,89,8.40,74,13.1,296.6,321.2,298.1
857.6,1499,10.7,8.9,89,8.38,74,13.2,296.6,321.1,298.1
857.1,1504,10.6,8.8,88,8.32,74,13.2,296.6,321.0,298.1
856.6,1509,10.6,8.7,88,8.24,74,13.3,296.6,320.7,298.0
856.0,1514,10.6,8.6,88,8.22,75,13.3,296.6,320.7,298.1
855.5,1519,10.5,8.6,88,8.24,75,13.4,296.6,320.7,298.1
855.0,1524,10.5,8.6,88,8.25,75,13.4,296.6,320.8,298.1
854.5,1530,10.4,8.7,89,8.29,75,13.4,296.6,320.9,298.1
854.0,1535,10.4,8.8,90,8.34,75,13.5,296.6,321.0,298.1
853.4,1539,10.3,8.8,90,8.34,75,13.5,296.6,321.0,298.1
852.9,1544,10.3,8.7,90,8.30,75,13.5,296.6,320.9,298.1
852.4,1549,10.2,8.6,90,8.26,75,13.5,296.6,320.8,298.1
852.0,1554,10.2,8.5,89,8.22,75,13.5,296.6,320.7,298.1
851.5,1559,10.2,8.5,89,8.19,75,13.5,296.6,320.6,298.1
850.9,1564,10.1,8.5,90,8.19,75,13.5,296.6,320.6,298.1
850.4,1569,10.1,8.4,90,8.19,76,13.5,296.6,320.6,298.1
850.0,1573,10.0,8.4,90,8.19,76,13.5,296.6,320.6,298.1
849.9,1574,10.0,8.4,90,8.19,76,13.5,296.6,320.7,298.1
849.4,1579,10.0,8.5,91,8.25,76,13.5,296.7,320.8,298.1
848.9,1584,10.0,8.6,91,8.29,76,13.4,296.7,321.0,298.1
848.4,1589,9.9,8.6,92,8.29,76,13.4,296.7,321.0,298.1
847.9,1594,9.9,8.6,92,8.29,76,13.4,296.7,321.0,298.1
847.4,1599,9.8,8.6,92,8.29,76,13.4,296.7,321.0,298.2
846.8,1604,9.8,8.6,92,8.30,76,13.4,296.7,321.0,298.2
846.3,1610,9.7,8.6,92,8.29,76,13.3,296.7,321.0,298.2
845.7,1615,9.7,8.5,93,8.29,76,13.3,296.7,321.0,298.2
845.2,1620,9.6,8.5,93,8.28,76,13.3,296.7,321.0,298.2
844.6,1626,9.6,8.5,93,8.25,76,13.3,296.7,320.9,298.2
844.1,1632,9.5,8.4,93,8.25,76,13.3,296.7,320.9,298.2
843.5,1637,9.5,8.4,93,8.25,76,13.2,296.7,320.9,298.2
842.9,1643,9.5,8.4,93,8.25,76,13.2,296.7,321.0,298.2
842.3,1649,9.4,8.5,94,8.27,76,13.2,296.7,321.0,298.2
841.6,1656,9.3,8.5,95,8.30,76,13.2,296.7,321.1,298.2
841.0,1662,9.3,8.5,95,8.31,76,13.2,296.7,321.1,298.2
840.4,1668,9.2,8.5,95,8.30,76,13.2,296.8,321.1,298.2
839.8,1674,9.2,8.4,95,8.25,77,13.2,296.8,321.0,298.3
839.2,1680,9.2,8.2,94,8.17,77,13.2,296.8,320.8,298.3
838.6,1686,9.2,8.1,93,8.09,77,13.2,296.9,320.7,298.3
838.0,1692,9.2,8.0,92,8.04,77,13.2,296.9,320.6,298.4
837.4,1697,9.2,7.9,92,8.01,77,13.2,297.0,320.5,298.4
836.8,1703,9.1,7.8,92,7.98,77,13.3,297.0,320.5,298.5
836.3,1708,9.1,7.8,91,7.96,77,13.3,297.1,320.5,298.5
835.7,1714,9.1,7.8,92,7.96,78,13.3,297.1,320.5,298.5
835.2,1719,9.1,7.8,92,7.96,78,13.3,297.1,320.5,298.5
834.7,1724,9.0,7.8,92,7.98,78,13.3,297.1,320.6,298.5
834.2,1729,9.0,7.8,93,8.01,78,13.3,297.1,320.7,298.5
833.7,1735,8.9,7.9,93,8.03,78,13.3,297.1,320.7,298.5
833.1,1740,8.9,7.9,93,8.03,78,13.3,297.1,320.7,298.5
832.6,1745,8.8,7.8,94,8.01,78,13.3,297.1,320.6,298.5
832.1,1750,8.7,7.8,93,7.98,79,13.3,297.1,320.6,298.5
831.5,1756,8.7,7.7,93,7.94,79,13.3,297.1,320.5,298.5
831.0,1761,8.7,7.6,93,7.89,79,13.3,297.1,320.3,298.5
830.5,1766,8.7,7.5,92,7.84,79,13.4,297.2,320.3,298.6
829.9,1772,8.7,7.4,92,7.82,79,13.4,297.2,320.2,298.6
829.4,1777,8.6,7.4,92,7.82,79,13.4,297.2,320.3,298.7
828.8,1783,8.6,7.4,92,7.84,79,13.4,297.3,320.4,298.7
828.3,1788,8.6,7.5,93,7.85,79,13.4,297.3,320.4,298.7
827.7,1794,8.6,7.5,93,7.87,79,13.4,297.3,320.5,298.8
827.1,1800,8.5,7.5,93,7.86,79,13.4,297.4,320.5,298.8
826.6,1805,8.5,7.4,93,7.85,79,13.4,297.4,320.5,298.8
826.0,1811,8.4,7.4,93,7.84,79,13.4,297.4,320.5,298.8
825.5,1816,8.4,7.4,93,7.83,78,13.4,297.4,320.5,298.8
824.9,1822,8.4,7.3,93,7.81,78,13.4,297.4,320.4,298.8
824.4,1827,8.3,7.3,93,7.79,78,13.4,297.4,320.4,298.8
823.9,1832,8.3,7.2,93,7.78,78,13.4,297.4,320.4,298.8
823.4,1837,8.2,7.2,93,7.78,78,13.5,297.5,320.4,298.8
822.9,1842,8.2,7.2,94,7.79,78,13.5,297.5,320.4,298.9
822.4,1848,8.2,7.2,94,7.76,78,13.5,297.5,320.3,298.9
821.8,1853,8.1,7.1,93,7.74,78,13.5,297.5,320.3,298.9
821.3,1858,8.1,7.1,93,7.71,78,13.5,297.5,320.2,298.9
820.7,1864,8.0,7.0,94,7.70,78,13.5,297.5,320.2,298.9
820.2,1870,8.0,7.1,94,7.73,78,13.5,297.5,320.3,298.9
819.6,1875,7.9,7.1,95,7.76,78,13.5,297.5,320.4,298.9
819.1,1881,7.9,7.1,95,7.77,78,13.5,297.5,320.4,298.9
818.5,1886,7.9,7.1,95,7.76,78,13.4,297.6,320.4,299.0
818.0,1891,7.8,7.1,95,7.74,78,13.4,297.6,320.4,299.0
817.5,1897,7.8,7.0,95,7.71,78,13.4,297.6,320.3,299.0
817.0,1902,7.7,7.0,95,7.70,78,13.4,297.6,320.3,299.0
816.5,1907,7.7,7.0,96,7.74,78,13.3,297.6,320.5,299.0
816.0,1912,7.7,7.2,97,7.82,78,13.3,297.6,320.7,299.0
815.4,1917,7.6,7.2,97,7.86,78,13.2,297.6,320.8,299.0
814.9,1923,7.6,7.2,97,7.84,78,13.2,297.6,320.8,299.1
814.4,1928,7.6,7.1,97,7.81,79,13.1,297.7,320.7,299.1
813.9,1933,7.5,7.1,97,7.77,79,13.1,297.7,320.6,299.1
813.4,1938,7.5,7.0,97,7.73,79,13.0,297.7,320.5,299.1
812.9,1944,7.5,6.8,96,7.66,79,12.9,297.7,320.3,299.1
812.3,1949,7.5,6.6,95,7.57,79,12.8,297.8,320.1,299.1
811.8,1955,7.4,6.4,93,7.47,79,12.7,297.8,319.9,299.2
811.2,1961,7.4,6.3,93,7.40,79,12.6,297.8,319.7,299.2
810.6,1967,7.4,6.1,92,7.33,79,12.6,297.9,319.5,299.2
810.0,1973,7.3,6.1,92,7.31,79,12.5,297.9,319.5,299.2
809.4,1978,7.3,6.0,92,7.29,79,12.4,297.9,319.4,299.2
808.9,1984,7.2,5.9,91,7.24,79,12.3,297.9,319.3,299.2
808.3,1990,7.2,5.9,91,7.21,79,12.2,298.0,319.3,299.3
807.8,1995,7.2,5.8,91,7.18,79,12.1,298.0,319.3,299.3
807.3,2000,7.3,5.7,90,7.13,79,12.0,298.1,319.2,299.4
806.8,2005,7.3,5.6,89,7.06,79,11.9,298.1,319.1,299.4
806.4,2010,7.3,5.4,88,7.01,79,11.8,298.2,319.0,299.5
805.9,2014,7.3,5.4,88,6.97,79,11.8,298.2,318.9,299.5
805.5,2019,7.2,5.3,88,6.97,79,11.7,298.3,319.0,299.5
805.1,2023,7.2,5.4,88,7.01,79,11.6,298.3,319.1,299.5
804.7,2027,7.2,5.5,89,7.04,79,11.6,298.3,319.1,299.5
804.2,2032,7.1,5.5,89,7.06,79,11.6,298.3,319.2,299.5
803.8,2036,7.1,5.5,90,7.07,80,11.5,298.3,319.3,299.5
803.4,2040,7.0,5.5,90,7.07,80,11.5,298.3,319.2,299.5
803.0,2045,7.0,5.5,90,7.06,80,11.5,298.3,319.2,299.5
802.5,2049,6.9,5.5,91,7.08,80,11.5,298.3,319.3,299.5
802.1,2054,6.9,5.5,91,7.10,80,11.6,298.3,319.3,299.5
801.6,2058,6.8,5.6,92,7.15,80,11.6,298.2,319.4,299.5
801.1,2063,6.7,5.7,93,7.19,80,11.7,298.2,319.5,299.5
800.6,2068,6.7,5.7,94,7.21,80,11.7,298.2,319.5,299.5
800.1,2074,6.6,5.7,94,7.21,80,11.8,298.1,319.5,299.4
