PRES,HGHT,TEMP,DWPT,RELH,MIXR,DRCT,SPED,THTA,THTE,THTV
1015.3,31,25.5,20.5,74,15.16,67,8.2,297.4,341.4,300.1
1014.6,36,25.6,20.6,74,15.27,61,5.1,297.5,341.9,300.2
1014.0,42,25.7,20.6,73,15.21,59,4.8,297.6,341.9,300.3
1013.5,46,25.7,20.4,73,15.07,58,4.9,297.7,341.6,300.4
1012.9,52,25.7,20.2,72,14.83,59,5.3,297.7,340.9,300.4
1012.0,59,25.6,19.9,71,14.62,59,5.7,297.7,340.3,300.3
1011.5,64,25.5,19.8,71,14.54,60,6.1,297.7,340.1,300.3
1010.9,69,25.5,19.8,71,14.56,60,6.4,297.7,340.1,300.3
1010.3,74,25.4,19.9,71,14.59,60,6.7,297.7,340.2,300.3
1009.8,79,25.4,19.8,71,14.59,61,7.0,297.7,340.2,300.3
1009.2,84,25.3,19.8,71,14.57,61,7.3,297.7,340.1,300.3
1008.7,88,25.3,19.8,72,14.57,62,7.5,297.7,340.2,300.3
1008.1,93,25.3,19.8,72,14.58,62,7.7,297.7,340.2,300.3
1007.5,98,25.2,19.8,72,14.58,63,8.0,297.7,340.2,300.3
1006.9,103,25.2,19.8,72,14.56,63,8.1,297.7,340.1,300.3
1006.4,109,25.1,19.7,72,14.50,64,8.3,297.7,339.9,300.3
1005.8,114,25.1,19.6,71,14.38,64,8.4,297.7,339.6,300.3
1005.2,119,25.0,19.3,71,14.19,65,8.6,297.7,339.1,300.3
1004.6,124,25.0,19.2,70,14.06,65,8.7,297.8,338.7,300.3
1004.0,130,25.0,19.3,71,14.14,66,8.7,297.8,339.0,300.3
1003.4,135,24.9,19.5,72,14.36,66,8.8,297.8,339.6,300.3
1002.8,140,24.8,19.6,73,14.50,67,8.8,297.7,340.0,300.3
1002.2,145,24.8,19.7,73,14.52,67,8.9,297.7,340.0,300.3
1001.6,151,24.7,19.7,74,14.54,68,8.9,297.7,340.1,300.3
1001.0,156,24.7,19.6,74,14.51,68,8.9,297.7,340.0,300.3
1000.3,161,24.6,19.5,73,14.39,69,8.9,297.7,339.7,300.3
1000.0,164,24.6,19.4,73,14.33,69,8.9,297.8,339.5,300.3
999.7,167,24.6,19.4,73,14.29,69,8.8,297.8,339.4,300.3
999.1,172,24.6,19.4,73,14.30,70,8.8,297.8,339.5,300.3
998.4,178,24.5,19.4,73,14.36,70,8.8,297.8,339.6,300.3
997.8,184,24.4,19.5,74,14.40,70,8.7,297.8,339.7,300.3
997.2,189,24.4,19.4,74,14.40,71,8.7,297.7,339.7,300.3
996.6,194,24.3,19.4,74,14.38,71,8.7,297.8,339.6,300.3
996.0,200,24.3,19.4,74,14.34,72,8.6,297.8,339.5,300.3
995.3,205,24.2,19.3,74,14.33,72,8.6,297.8,339.5,300.3
994.7,211,24.2,19.4,75,14.39,72,8.6,297.8,339.7,300.3
994.1,217,24.1,19.5,75,14.50,73,8.5,297.8,340.0,300.3
993.4,222,24.0,19.5,76,14.52,73,8.5,297.7,340.0,300.3
992.8,228,24.0,19.4,76,14.45,73,8.5,297.7,339.8,300.3
992.1,234,23.9,19.3,75,14.32,74,8.5,297.8,339.5,300.3
991.5,240,23.9,19.1,74,14.14,74,8.5,297.8,339.0,300.3
990.8,245,23.9,18.9,74,13.98,74,8.5,297.8,338.6,300.3
990.2,251,23.8,18.7,73,13.86,74,8.5,297.8,338.2,300.3
989.6,256,23.8,18.6,73,13.79,74,8.5,297.8,338.0,300.3
988.9,262,23.8,18.6,73,13.79,75,8.5,297.8,338.0,300.3
988.3,267,23.7,18.7,74,13.87,75,8.5,297.9,338.3,300.3
987.7,273,23.7,18.8,74,14.00,75,8.5,297.9,338.7,300.4
987.1,278,23.6,19.1,76,14.21,75,8.6,297.9,339.3,300.4
986.5,284,23.5,19.4,77,14.49,75,8.6,297.8,340.1,300.4
985.9,289,23.4,19.5,79,14.61,75,8.6,297.8,340.3,300.4
985.3,295,23.3,19.4,79,14.56,75,8.7,297.7,340.2,300.3
984.7,300,23.3,19.4,79,14.52,75,8.7,297.7,340.0,300.3
984.1,305,23.2,19.3,79,14.51,75,8.7,297.8,340.0,300.3
983.5,310,23.2,19.3,79,14.49,75,8.8,297.8,340.0,300.3
982.9,316,23.2,19.3,79,14.46,75,8.8,297.8,339.9,300.3
982.3,321,23.1,19.2,79,14.44,75,8.8,297.8,339.8,300.4
981.7,327,23.1,19.2,79,14.42,76,8.9,297.8,339.8,300.3
981.0,332,23.0,19.1,79,14.31,76,8.9,297.8,339.5,300.3
980.4,337,22.9,18.8,77,14.03,76,8.9,297.8,338.7,300.3
979.8,343,23.0,18.4,75,13.70,76,9.0,297.8,337.8,300.3
979.3,348,23.0,18.1,74,13.48,76,9.0,297.9,337.3,300.3
978.7,353,23.0,18.1,74,13.45,76,9.0,298.0,337.2,300.4
978.2,358,23.0,18.0,74,13.43,76,9.0,298.0,337.2,300.4
977.6,363,22.9,17.9,73,13.34,76,9.1,298.0,336.9,300.4
977.1,367,22.9,17.8,73,13.23,77,9.1,298.0,336.6,300.4
976.6,372,22.9,17.8,73,13.24,77,9.1,298.0,336.7,300.4
976.1,377,22.8,17.9,74,13.31,77,9.1,298.0,336.9,300.4
975.6,381,22.8,18.1,75,13.48,77,9.1,298.0,337.4,300.5
975.1,385,22.7,18.3,76,13.72,77,9.2,298.0,338.0,300.5
974.6,389,22.6,18.4,77,13.78,77,9.2,298.0,338.2,300.4
974.2,394,22.6,18.3,77,13.71,78,9.2,298.0,338.0,300.4
973.7,398,22.6,18.3,77,13.71,78,9.2,298.0,338.0,300.4
973.2,402,22.5,18.2,77,13.61,78,9.2,298.0,337.7,300.4
972.8,406,22.6,18.0,75,13.46,78,9.3,298.1,337.3,300.5
972.3,410,22.6,18.1,76,13.56,78,9.3,298.1,337.7,300.5
971.8,415,22.4,18.4,78,13.81,78,9.3,298.0,338.3,300.5
971.4,419,22.3,18.5,79,13.89,79,9.3,297.9,338.4,300.4
970.9,423,22.3,18.4,79,13.83,79,9.3,297.9,338.2,300.4
970.4,427,22.2,18.3,78,13.77,79,9.3,297.9,338.1,300.4
970.0,431,22.2,18.3,78,13.73,79,9.4,297.9,338.0,300.4
969.5,436,22.1,18.2,78,13.71,79,9.4,297.9,337.9,300.4
969.0,440,22.1,18.2,78,13.70,79,9.4,297.9,337.9,300.4
968.5,444,22.1,18.3,79,13.75,79,9.4,298.0,338.1,300.4
968.0,449,22.0,18.3,80,13.82,79,9.4,297.9,338.2,300.4
967.5,453,22.0,18.3,80,13.78,79,9.4,297.9,338.1,300.4
967.0,458,21.9,18.0,79,13.59,79,9.4,297.9,337.6,300.4
966.5,463,21.9,17.8,77,13.38,79,9.4,298.0,337.0,300.4
965.9,468,21.9,17.6,76,13.18,79,9.4,298.0,336.5,300.4
965.4,472,21.9,17.4,75,13.02,79,9.4,298.1,336.1,300.4
964.9,477,22.0,17.2,75,12.93,79,9.4,298.1,335.9,300.4
964.3,482,21.9,17.2,75,12.93,78,9.4,298.2,335.9,300.5
963.8,487,21.9,17.2,75,12.94,78,9.4,298.2,336.0,300.5
963.3,492,21.8,17.2,75,12.93,78,9.4,298.2,335.9,300.5
962.7,496,21.8,17.2,75,12.92,78,9.4,298.2,335.9,300.5
962.2,501,21.8,17.2,75,12.91,78,9.3,298.2,335.9,300.5
961.6,506,21.7,17.1,75,12.90,78,9.3,298.2,335.9,300.5
961.1,511,21.7,17.1,75,12.85,78,9.3,298.2,335.8,300.5
960.5,516,21.7,17.0,75,12.81,78,9.3,298.2,335.7,300.5
960.0,521,21.6,17.0,75,12.80,78,9.3,298.2,335.6,300.5
959.5,526,21.6,17.0,75,12.81,78,9.3,298.2,335.7,300.5
958.9,531,21.6,17.0,75,12.82,78,9.3,298.3,335.7,300.6
958.4,536,21.5,17.0,75,12.82,78,9.3,298.3,335.7,300.6
957.8,541,21.5,17.0,75,12.82,78,9.2,298.3,335.8,300.6
957.3,546,21.5,17.0,76,12.81,78,9.2,298.3,335.7,300.6
956.7,551,21.4,16.9,76,12.79,78,9.2,298.3,335.7,300.6
956.2,556,21.4,16.9,76,12.76,78,9.2,298.3,335.6,300.6
955.6,561,21.3,16.8,75,12.70,78,9.2,298.3,335.4,300.6
955.1,566,21.3,16.8,76,12.71,78,9.2,298.3,335.5,300.6
954.5,571,21.2,16.9,76,12.79,78,9.2,298.3,335.7,300.6
954.0,576,21.2,16.9,77,12.84,79,9.2,298.3,335.8,300.6
953.4,581,21.1,17.0,77,12.86,79,9.2,298.3,335.9,300.6
952.9,586,21.1,17.0,77,12.88,79,9.2,298.3,335.9,300.6
952.3,591,21.0,17.0,78,12.88,80,9.2,298.3,335.9,300.6
951.7,596,21.0,17.0,78,12.88,80,9.2,298.3,335.9,300.6
951.1,602,20.9,17.0,78,12.88,81,9.2,298.3,336.0,300.6
950.5,607,20.9,16.9,78,12.88,81,9.2,298.3,336.0,300.6
949.9,613,20.8,16.9,78,12.88,82,9.2,298.3,336.0,300.6
949.3,618,20.8,16.9,78,12.88,82,9.2,298.4,336.0,300.7
948.7,624,20.8,16.9,78,12.88,83,9.2,298.4,336.0,300.7
948.1,629,20.7,16.9,79,12.89,83,9.2,298.4,336.1,300.7
947.5,635,20.7,16.9,79,12.91,84,9.2,298.4,336.1,300.7
947.0,640,20.6,17.0,79,12.94,84,9.2,298.4,336.2,300.7
946.4,645,20.6,17.0,80,12.99,85,9.3,298.4,336.4,300.7
945.8,650,20.5,17.1,80,13.04,85,9.3,298.4,336.5,300.7
945.2,656,20.5,17.1,81,13.12,86,9.3,298.4,336.7,300.7
944.6,661,20.4,17.2,82,13.21,86,9.3,298.4,337.0,300.8
944.0,667,20.4,17.3,82,13.25,87,9.3,298.4,337.1,300.8
943.4,673,20.3,17.3,83,13.27,87,9.4,298.4,337.2,300.8
942.7,679,20.3,17.3,83,13.29,88,9.4,298.4,337.2,300.8
942.1,684,20.2,17.3,83,13.31,88,9.4,298.4,337.3,300.8
941.5,690,20.1,17.3,84,13.32,88,9.5,298.4,337.3,300.8
940.8,696,20.1,17.3,84,13.33,88,9.5,298.4,337.4,300.8
940.2,702,20.0,17.2,84,13.28,88,9.6,298.4,337.2,300.8
939.6,708,20.0,17.1,83,13.14,88,9.6,298.4,336.8,300.7
938.9,713,19.9,16.8,82,12.95,89,9.7,298.4,336.3,300.7
938.3,719,19.9,16.6,81,12.79,88,9.7,298.5,335.9,300.8
937.7,725,19.9,16.5,81,12.72,88,9.8,298.5,335.7,300.8
937.1,730,19.8,16.5,81,12.67,88,9.9,298.5,335.6,300.7
936.5,736,19.8,16.4,81,12.63,88,9.9,298.5,335.5,300.8
935.9,741,19.8,16.4,81,12.62,88,10.0,298.5,335.5,300.8
935.3,747,19.7,16.4,81,12.61,88,10.1,298.5,335.4,300.8
934.7,753,19.7,16.3,81,12.61,87,10.2,298.5,335.4,300.8
934.1,758,19.6,16.3,81,12.61,87,10.3,298.5,335.5,300.8
933.5,764,19.6,16.3,81,12.61,87,10.3,298.5,335.5,300.8
932.9,769,19.5,16.3,82,12.60,87,10.4,298.6,335.4,300.8
932.4,774,19.5,16.3,82,12.58,86,10.5,298.6,335.4,300.8
931.8,780,19.5,16.3,82,12.60,86,10.6,298.6,335.4,300.8
931.2,785,19.4,16.3,82,12.60,86,10.7,298.6,335.5,300.8
930.7,790,19.4,16.2,82,12.57,85,10.7,298.6,335.4,300.8
930.1,795,19.3,16.2,82,12.52,85,10.8,298.6,335.2,300.8
929.6,800,19.3,16.1,82,12.46,85,10.9,298.6,335.1,300.8
929.1,805,19.3,16.0,82,12.42,85,10.9,298.6,335.0,300.8
928.5,810,19.2,16.0,82,12.44,84,11.0,298.6,335.1,300.9
928.0,814,19.2,16.1,82,12.46,84,11.0,298.6,335.1,300.9
927.5,819,19.1,16.0,82,12.44,84,11.1,298.6,335.1,300.9
927.0,824,19.1,16.0,82,12.42,84,11.1,298.6,335.0,300.9
926.6,828,19.1,15.9,82,12.39,84,11.1,298.6,334.9,300.9
926.1,832,19.0,15.9,82,12.38,84,11.1,298.6,334.9,300.9
925.6,837,19.0,15.9,82,12.38,84,11.1,298.7,334.9,300.9
925.1,842,18.9,15.9,83,12.40,84,11.1,298.7,335.0,300.9
925.0,843,18.9,15.9,83,12.40,84,11.1,298.7,335.0,300.9
924.6,846,18.9,15.9,83,12.41,84,11.1,298.7,335.0,300.9
924.1,851,18.9,15.9,83,12.40,84,11.1,298.7,335.0,300.9
923.5,856,18.8,15.9,83,12.39,84,11.0,298.7,335.0,300.9
923.0,862,18.8,15.8,83,12.35,84,11.0,298.7,334.8,300.9
922.4,867,18.7,15.8,83,12.30,84,11.0,298.7,334.7,300.9
921.8,872,18.7,15.7,83,12.25,84,10.9,298.7,334.6,300.9
921.2,878,18.6,15.6,83,12.22,84,10.8,298.7,334.5,300.9
920.6,883,18.6,15.6,83,12.18,84,10.8,298.7,334.4,300.9
920.1,889,18.6,15.5,82,12.13,84,10.7,298.7,334.3,300.9
919.5,894,18.5,15.4,82,12.06,84,10.7,298.7,334.1,300.9
918.9,899,18.5,15.3,82,12.01,84,10.6,298.8,334.0,300.9
918.4,905,18.5,15.3,82,11.97,84,10.5,298.8,333.9,300.9
917.8,910,18.4,15.2,82,11.94,83,10.5,298.8,333.8,301.0
917.2,915,18.4,15.2,82,11.94,83,10.4,298.8,333.9,301.0
916.7,920,18.4,15.2,82,11.94,83,10.3,298.9,333.9,301.0
916.1,925,18.3,15.2,82,11.94,83,10.3,298.9,333.9,301.0
915.6,930,18.3,15.2,82,11.92,82,10.2,298.9,333.8,301.0
915.1,935,18.2,15.1,82,11.89,82,10.2,298.9,333.7,301.0
914.6,940,18.2,15.1,82,11.87,82,10.1,298.9,333.7,301.0
914.1,945,18.2,15.0,82,11.85,81,10.1,298.9,333.6,301.0
913.6,949,18.1,15.0,82,11.82,81,10.1,298.9,333.6,301.0
913.1,954,18.1,15.0,82,11.83,80,10.1,298.9,333.6,301.0
912.6,959,18.1,15.1,83,11.88,80,10.0,298.9,333.8,301.1
912.1,963,18.1,15.1,83,11.92,80,10.0,299.0,333.9,301.1
911.6,968,18.0,15.1,83,11.92,79,10.0,299.0,334.0,301.1
911.1,972,18.0,15.1,83,11.89,79,10.1,299.0,333.9,301.1
910.7,977,18.0,15.1,83,11.91,79,10.1,299.0,334.0,301.2
910.2,981,18.0,15.1,84,11.97,78,10.1,299.0,334.2,301.2
909.7,986,17.9,15.2,84,12.01,78,10.1,299.0,334.3,301.2
909.2,990,17.9,15.2,85,12.04,78,10.2,299.0,334.4,301.2
908.8,995,17.8,15.3,85,12.08,78,10.2,299.0,334.5,301.2
908.3,999,17.8,15.4,86,12.18,78,10.2,299.0,334.8,301.2
907.8,1004,17.7,15.5,87,12.30,78,10.3,299.0,335.1,301.2
907.3,1009,17.7,15.6,88,12.39,78,10.3,299.0,335.4,301.3
906.8,1014,17.6,15.6,88,12.42,78,10.4,299.0,335.5,301.3
906.2,1019,17.6,15.6,88,12.39,79,10.4,299.0,335.4,301.3
905.7,1024,17.6,15.6,88,12.36,79,10.4,299.1,335.3,301.3
905.2,1029,17.5,15.5,88,12.35,79,10.5,299.1,335.3,301.3
904.6,1034,17.5,15.5,88,12.35,80,10.5,299.1,335.3,301.3
904.0,1040,17.5,15.5,88,12.36,80,10.5,299.1,335.4,301.3
903.5,1045,17.4,15.5,88,12.33,80,10.6,299.1,335.3,301.3
902.9,1051,17.4,15.4,88,12.27,81,10.6,299.2,335.2,301.4
902.3,1056,17.4,15.3,88,12.23,81,10.6,299.2,335.1,301.4
901.7,1062,17.3,15.3,88,12.19,82,10.6,299.2,335.0,301.4
901.1,1067,17.3,15.3,88,12.19,82,10.6,299.2,335.0,301.4
900.5,1073,17.3,15.3,88,12.20,83,10.6,299.2,335.1,301.4
900.0,1078,17.2,15.3,89,12.23,83,10.6,299.2,335.1,301.4
899.4,1083,17.2,15.3,89,12.25,83,10.6,299.2,335.2,301.4
898.8,1089,17.1,15.3,89,12.24,84,10.6,299.2,335.2,301.4
898.3,1094,17.1,15.2,89,12.22,84,10.6,299.2,335.1,301.4
897.7,1099,17.0,15.2,89,12.17,84,10.6,299.2,335.0,301.4
897.2,1105,17.0,15.1,89,12.12,84,10.6,299.3,334.9,301.5
896.6,1110,17.0,15.1,88,12.09,84,10.5,299.3,334.8,301.5
896.1,1115,16.9,15.0,89,12.09,84,10.5,299.3,334.8,301.5
895.5,1121,16.9,15.1,89,12.10,84,10.5,299.3,334.9,301.5
894.9,1126,16.9,15.1,89,12.12,84,10.5,299.4,335.0,301.5
894.4,1131,16.8,15.1,89,12.13,84,10.4,299.4,335.0,301.5
893.8,1137,16.8,15.0,90,12.12,84,10.4,299.4,335.0,301.5
893.2,1142,16.7,15.0,90,12.10,84,10.4,299.4,334.9,301.5
892.7,1148,16.7,15.0,90,12.09,84,10.3,299.4,334.9,301.5
892.1,1153,16.6,15.0,90,12.10,83,10.3,299.4,334.9,301.5
891.5,1159,16.6,15.0,91,12.12,83,10.2,299.4,335.0,301.5
891.0,1164,16.5,15.0,91,12.15,83,10.2,299.4,335.1,301.5
890.4,1170,16.5,15.0,91,12.16,83,10.2,299.4,335.1,301.6
889.8,1175,16.4,15.0,91,12.14,83,10.1,299.4,335.0,301.6
889.3,1180,16.4,15.0,91,12.11,83,10.1,299.4,335.0,301.6
888.7,1185,16.3,14.9,91,12.10,83,10.0,299.4,335.0,301.6
888.2,1191,16.3,14.9,92,12.09,83,10.0,299.4,334.9,301.6
887.6,1196,16.2,14.9,92,12.09,83,10.0,299.4,334.9,301.6
887.1,1202,16.2,14.9,92,12.09,83,9.9,299.4,335.0,301.6
886.5,1207,16.2,14.9,92,12.12,83,9.9,299.4,335.0,301.6
886.0,1212,16.1,14.9,93,12.14,83,9.8,299.4,335.1,301.6
885.4,1217,16.1,14.9,93,12.14,83,9.7,299.4,335.1,301.6
884.9,1223,16.0,14.9,93,12.12,83,9.7,299.4,335.1,301.6
884.4,1228,16.0,14.9,93,12.10,83,9.6,299.4,335.0,301.6
883.9,1232,15.9,14.8,93,12.07,83,9.6,299.5,334.9,301.6
883.4,1237,15.9,14.8,93,12.04,84,9.5,299.5,334.9,301.7
882.9,1242,15.9,14.7,92,11.99,84,9.5,299.6,334.8,301.7
882.4,1247,16.0,14.6,92,11.95,84,9.4,299.7,334.8,301.8
881.9,1252,16.0,14.6,91,11.90,84,9.4,299.7,334.7,301.9
881.4,1257,16.0,14.5,91,11.86,85,9.3,299.8,334.7,301.9
880.8,1262,16.0,14.4,90,11.82,85,9.3,299.8,334.6,301.9
880.3,1267,16.0,14.4,90,11.77,85,9.2,299.8,334.5,302.0
879.7,1272,16.0,14.3,90,11.71,85,9.2,299.9,334.4,302.0
879.2,1278,16.0,14.2,89,11.63,85,9.2,300.0,334.3,302.1
878.6,1283,16.0,14.0,88,11.55,85,9.1,300.0,334.1,302.1
878.0,1289,16.0,14.0,88,11.49,85,9.1,300.1,334.0,302.1
877.4,1295,15.9,13.9,88,11.48,85,9.1,300.1,334.0,302.2
876.8,1300,15.9,13.9,88,11.50,85,9.0,300.1,334.0,302.2
876.3,1306,15.9,13.9,88,11.48,85,9.0,300.1,334.0,302.2
875.7,1312,15.9,13.9,88,11.46,85,9.0,300.2,334.1,302.3
875.1,1318,15.9,13.9,88,11.47,85,9.0,300.3,334.1,302.3
874.5,1323,15.9,13.9,88,11.46,85,8.9,300.3,334.2,302.4
873.9,1329,15.8,13.8,88,11.44,85,8.9,300.3,334.1,302.4
873.4,1334,15.8,13.8,88,11.47,85,8.9,300.3,334.2,302.4
872.8,1339,15.7,13.9,89,11.50,85,8.8,300.3,334.3,302.4
872.3,1344,15.7,13.9,89,11.52,85,8.8,300.3,334.4,302.4
871.8,1349,15.7,13.9,89,11.52,85,8.7,300.4,334.4,302.4
871.3,1354,15.6,13.9,89,11.52,85,8.7,300.4,334.4,302.4
870.8,1359,15.6,13.9,90,11.52,84,8.6,300.4,334.4,302.4
870.4,1364,15.5,13.9,90,11.53,84,8.5,300.4,334.4,302.4
869.9,1368,15.5,13.9,90,11.53,84,8.5,300.4,334.4,302.4
869.4,1372,15.5,13.9,90,11.53,84,8.4,300.4,334.4,302.5
869.0,1377,15.4,13.8,90,11.52,84,8.3,300.4,334.4,302.5
868.5,1381,15.4,13.8,90,11.51,83,8.2,300.4,334.4,302.5
868.1,1386,15.3,13.8,91,11.51,83,8.1,300.4,334.4,302.5
867.6,1390,15.3,13.8,91,11.51,82,8.0,300.4,334.4,302.5
867.1,1395,15.2,13.8,91,11.52,82,7.9,300.4,334.4,302.5
866.7,1400,15.2,13.8,91,11.52,82,7.8,300.4,334.4,302.4
866.2,1405,15.1,13.8,92,11.53,81,7.7,300.4,334.4,302.4
865.7,1409,15.1,13.8,92,11.52,81,7.6,300.4,334.4,302.5
865.2,1414,15.1,13.7,92,11.50,80,7.6,300.4,334.4,302.5
864.7,1419,15.0,13.7,92,11.46,80,7.5,300.4,334.3,302.5
864.3,1423,15.0,13.6,91,11.41,79,7.4,300.4,334.1,302.5
863.9,1427,15.0,13.6,91,11.37,78,7.4,300.4,334.0,302.5
863.5,1431,15.0,13.6,91,11.38,78,7.4,300.4,334.1,302.5
863.1,1435,14.9,13.6,92,11.40,77,7.3,300.4,334.1,302.5
862.7,1439,14.9,13.6,92,11.44,77,7.3,300.4,334.2,302.5
862.3,1443,14.8,13.6,92,11.45,76,7.3,300.4,334.3,302.5
861.9,1447,14.8,13.5,92,11.35,76,7.4,300.4,334.0,302.5
861.5,1451,14.8,13.1,90,11.10,75,7.4,300.5,333.3,302.5
861.1,1455,14.9,12.6,86,10.73,75,7.5,300.6,332.4,302.6
860.6,1459,15.1,12.3,83,10.47,75,7.5,300.9,332.0,302.8
860.2,1463,15.2,12.0,81,10.28,74,7.6,301.0,331.6,302.9
859.8,1467,15.3,11.8,79,10.16,74,7.7,301.2,331.4,303.0
859.3,1472,15.4,11.7,79,10.10,74,7.8,301.3,331.4,303.2
858.9,1476,15.4,11.7,78,10.12,74,7.8,301.4,331.5,303.2
858.4,1481,15.4,11.8,79,10.16,74,7.9,301.4,331.7,303.3
858.0,1485,15.4,11.7,79,10.15,74,8.0,301.4,331.6,303.3
857.5,1490,15.3,11.7,79,10.09,74,8.1,301.4,331.5,303.3
857.0,1495,15.3,11.5,78,10.03,74,8.2,301.5,331.3,303.3
856.6,1499,15.3,11.5,78,9.99,74,8.3,301.5,331.3,303.3
856.1,1504,15.3,11.5,78,9.98,74,8.4,301.6,331.3,303.4
855.7,1508,15.3,11.5,78,9.99,74,8.4,301.6,331.3,303.4
855.2,1513,15.3,11.5,78,10.03,74,8.5,301.6,331.4,303.4
854.8,1517,15.2,11.5,79,10.05,74,8.5,301.6,331.5,303.4
854.3,1522,15.2,11.5,79,10.06,74,8.6,301.6,331.5,303.4
853.9,1526,15.1,11.5,79,10.06,75,8.6,301.6,331.5,303.4
853.4,1531,15.1,11.5,79,10.05,75,8.6,301.6,331.5,303.4
853.0,1535,15.1,11.5,79,10.04,75,8.7,301.6,331.5,303.4
852.5,1539,15.0,11.5,79,10.03,75,8.7,301.6,331.5,303.4
852.1,1543,15.0,11.5,79,10.02,75,8.7,301.6,331.5,303.5
851.7,1547,15.0,11.4,79,10.02,75,8.6,301.6,331.5,303.5
851.3,1551,14.9,11.4,80,10.02,75,8.6,301.6,331.5,303.5
850.9,1555,14.9,11.4,80,10.02,75,8.6,301.6,331.5,303.5
850.5,1559,14.9,11.4,80,10.02,75,8.6,301.7,331.5,303.5
850.1,1564,14.9,11.4,80,10.03,75,8.5,301.7,331.6,303.5
850.0,1565,14.8,11.4,80,10.03,75,8.5,301.7,331.6,303.5
849.7,1568,14.8,11.4,80,10.03,75,8.5,301.7,331.6,303.5
849.2,1572,14.8,11.4,80,10.01,76,8.5,301.7,331.5,303.5
848.8,1577,14.7,11.4,80,10.00,76,8.4,301.7,331.5,303.5
848.3,1582,14.7,11.3,80,9.98,76,8.4,301.7,331.4,303.5
847.8,1586,14.7,11.3,80,9.97,76,8.4,301.7,331.4,303.5
847.4,1591,14.6,11.3,81,9.97,76,8.4,301.7,331.4,303.5
846.9,1596,14.6,11.3,81,9.99,77,8.4,301.7,331.4,303.5
846.4,1601,14.5,11.3,81,10.00,77,8.4,301.7,331.5,303.5
845.9,1606,14.5,11.3,81,10.01,77,8.4,301.7,331.5,303.5
845.4,1610,14.4,11.3,82,10.02,78,8.4,301.7,331.5,303.5
844.9,1615,14.4,11.3,82,10.04,78,8.4,301.7,331.6,303.5
844.5,1620,14.3,11.4,82,10.05,78,8.4,301.7,331.6,303.5
844.0,1625,14.3,11.3,83,10.05,79,8.4,301.7,331.6,303.5
843.5,1630,14.2,11.3,83,10.05,79,8.4,301.7,331.6,303.5
843.0,1635,14.2,11.3,83,10.05,79,8.5,301.7,331.6,303.5
842.5,1639,14.1,11.3,83,10.04,80,8.5,301.7,331.6,303.5
842.0,1645,14.1,11.3,83,10.04,80,8.5,301.7,331.6,303.5
841.5,1650,14.0,11.3,84,10.05,81,8.6,301.7,331.7,303.5
841.0,1655,14.0,11.3,84,10.06,81,8.6,301.7,331.7,303.5
840.4,1661,13.9,11.3,84,10.06,81,8.6,301.7,331.7,303.5
839.9,1666,13.9,11.3,84,10.04,82,8.6,301.7,331.6,303.5
839.3,1672,13.8,11.2,84,10.01,82,8.7,301.7,331.5,303.5
838.7,1678,13.8,11.2,84,10.02,82,8.7,301.7,331.6,303.5
838.2,1683,13.7,11.2,85,10.04,83,8.7,301.7,331.6,303.5
837.6,1689,13.7,11.2,85,10.04,83,8.7,301.7,331.6,303.5
837.1,1694,13.6,11.2,85,10.02,83,8.7,301.7,331.5,303.5
836.6,1699,13.5,11.1,85,9.97,83,8.7,301.7,331.4,303.5
836.0,1705,13.5,11.1,85,9.95,84,8.7,301.7,331.4,303.5
835.5,1710,13.5,11.1,85,9.95,84,8.6,301.7,331.4,303.5
835.0,1715,13.4,11.1,86,9.97,84,8.6,301.7,331.4,303.5
834.6,1720,13.4,11.1,86,9.99,85,8.6,301.7,331.4,303.5
834.1,1725,13.3,11.1,86,9.98,85,8.5,301.7,331.4,303.5
833.6,1729,13.3,11.0,86,9.96,85,8.5,301.7,331.4,303.5
833.2,1734,13.2,11.0,86,9.95,86,8.4,301.7,331.3,303.5
832.7,1738,13.2,11.0,87,9.95,86,8.4,301.7,331.4,303.5
832.3,1743,13.2,11.0,87,9.94,87,8.3,301.7,331.3,303.5
831.9,1747,13.1,11.0,87,9.94,87,8.3,301.7,331.3,303.5
831.5,1751,13.1,11.0,87,9.94,87,8.2,301.7,331.4,303.6
831.1,1755,13.1,10.9,87,9.93,88,8.1,301.8,331.4,303.6
830.7,1759,13.0,10.9,87,9.93,88,8.1,301.8,331.4,303.6
830.3,1763,13.0,10.9,87,9.92,89,8.0,301.8,331.3,303.6
829.9,1767,13.0,10.9,87,9.92,89,8.0,301.8,331.3,303.6
829.5,1771,12.9,10.9,88,9.93,90,8.0,301.8,331.3,303.6
829.1,1775,12.9,10.9,88,9.93,90,7.9,301.8,331.4,303.6
828.7,1779,12.8,10.9,88,9.94,90,7.9,301.8,331.4,303.6
828.2,1784,12.8,10.9,88,9.94,91,7.9,301.8,331.4,303.6
827.8,1788,12.8,10.9,88,9.93,91,7.9,301.8,331.4,303.6
827.4,1792,12.7,10.9,89,9.95,91,7.9,301.8,331.4,303.6
827.0,1797,12.7,10.9,89,9.96,91,8.0,301.7,331.4,303.6
826.5,1801,12.6,10.9,89,9.96,91,8.0,301.7,331.4,303.6
826.1,1806,12.6,10.9,89,9.95,91,8.1,301.7,331.4,303.6
825.7,1810,12.5,10.8,89,9.93,91,8.1,301.7,331.3,303.6
825.2,1814,12.5,10.8,90,9.93,91,8.2,301.8,331.3,303.6
824.8,1819,12.5,10.8,90,9.94,91,8.2,301.8,331.4,303.6
824.4,1823,12.4,10.9,90,9.96,91,8.3,301.8,331.5,303.6
