PRES,HGHT,TEMP,DWPT,RELH,MIXR,DRCT,SPED,THTA,THTE,THTV
1017.2,31,26.2,20.6,71,15.14,83,6.3,297.9,342.0,300.6
1016.4,38,26.0,20.9,74,15.50,70,4.9,297.8,342.9,300.5
1015.8,42,25.4,20.8,76,15.40,65,4.8,297.2,342.0,300.0
1015.2,48,25.1,20.7,76,15.30,63,5.0,297.0,341.4,299.7
1014.5,54,25.0,20.6,77,15.22,63,5.4,296.9,341.1,299.6
1014.0,59,24.9,20.5,76,15.15,63,5.7,296.9,340.9,299.6
1013.3,64,24.9,20.4,76,15.04,64,6.1,296.9,340.5,299.6
1012.7,70,24.8,20.2,76,14.92,64,6.4,296.9,340.1,299.5
1012.1,75,24.7,20.2,76,14.85,63,6.7,296.8,339.9,299.5
1011.5,80,24.6,20.0,76,14.73,63,6.9,296.8,339.5,299.4
1011.0,85,24.4,19.9,76,14.59,63,7.2,296.7,338.9,299.3
1010.4,90,24.4,19.9,76,14.59,63,7.4,296.7,338.9,299.3
1009.8,95,24.5,20.0,76,14.71,63,7.7,296.8,339.4,299.4
1009.1,101,24.6,20.1,76,14.83,63,7.9,296.9,340.0,299.6
1008.5,106,24.5,20.0,76,14.73,63,8.1,296.9,339.6,299.5
1007.8,112,24.3,19.8,76,14.56,62,8.2,296.8,339.0,299.4
1007.1,118,24.2,19.7,76,14.50,62,8.4,296.7,338.7,299.3
1006.4,125,24.1,19.7,77,14.52,62,8.5,296.7,338.8,299.3
1005.7,131,24.1,19.7,77,14.54,62,8.6,296.7,338.9,299.3
1004.9,137,24.0,19.7,77,14.51,62,8.7,296.8,338.9,299.3
1004.2,144,23.9,19.6,77,14.46,62,8.8,296.7,338.7,299.3
1003.5,150,23.9,19.5,77,14.38,61,8.8,296.7,338.4,299.3
1002.8,156,23.8,19.4,77,14.31,61,8.9,296.7,338.2,299.2
1002.0,163,23.7,19.4,77,14.25,61,8.9,296.7,338.0,299.2
1001.3,169,23.6,19.3,77,14.25,61,9.0,296.6,338.0,299.2
1000.6,175,23.6,19.4,78,14.34,61,9.0,296.6,338.2,299.2
1000.0,180,23.5,19.5,78,14.40,61,9.0,296.7,338.4,299.2
999.8,182,23.5,19.5,78,14.41,61,9.0,296.7,338.5,299.2
999.1,188,23.4,19.5,78,14.40,60,9.0,296.7,338.4,299.2
998.4,194,23.4,19.4,78,14.34,60,9.1,296.6,338.2,299.2
997.7,201,23.3,19.4,79,14.35,60,9.1,296.6,338.2,299.2
996.9,207,23.2,19.5,79,14.43,60,9.1,296.6,338.4,299.2
996.2,214,23.2,19.5,80,14.50,60,9.1,296.6,338.7,299.2
995.4,220,23.1,19.6,81,14.54,60,9.1,296.6,338.8,299.2
994.7,227,23.0,19.6,81,14.61,59,9.1,296.6,339.0,299.2
993.9,234,22.9,19.7,82,14.67,59,9.1,296.6,339.1,299.2
993.1,241,22.9,19.7,82,14.67,59,9.0,296.6,339.1,299.2
992.3,248,22.8,19.6,82,14.61,59,9.0,296.6,338.9,299.2
991.5,255,22.7,19.5,82,14.51,59,9.0,296.6,338.6,299.2
990.7,262,22.7,19.4,82,14.46,59,9.0,296.6,338.5,299.2
989.9,269,22.6,19.4,82,14.47,59,9.0,296.6,338.5,299.2
989.1,276,22.5,19.4,83,14.48,59,9.0,296.6,338.5,299.2
988.4,282,22.4,19.4,83,14.47,59,9.1,296.6,338.5,299.1
987.7,289,22.4,19.3,83,14.45,59,9.1,296.6,338.5,299.1
987.0,295,22.3,19.3,83,14.45,59,9.1,296.6,338.5,299.1
986.4,300,22.3,19.3,83,14.47,59,9.1,296.6,338.5,299.1
985.7,306,22.2,19.4,84,14.51,59,9.1,296.6,338.6,299.2
985.1,312,22.2,19.4,84,14.52,59,9.1,296.6,338.6,299.2
984.4,318,22.1,19.3,84,14.49,59,9.1,296.6,338.6,299.2
983.7,324,22.0,19.3,85,14.50,59,9.2,296.6,338.6,299.2
982.9,331,22.0,19.4,85,14.55,59,9.2,296.6,338.8,299.2
982.2,338,21.9,19.4,86,14.59,60,9.2,296.6,338.9,299.2
981.4,344,21.8,19.4,86,14.61,60,9.2,296.6,338.9,299.2
980.6,351,21.8,19.4,86,14.62,60,9.3,296.6,338.9,299.2
979.8,358,21.7,19.4,87,14.59,60,9.3,296.6,338.8,299.2
979.1,365,21.6,19.3,87,14.56,61,9.3,296.6,338.8,299.2
978.4,371,21.6,19.3,87,14.55,61,9.3,296.6,338.7,299.2
977.6,378,21.5,19.2,87,14.50,61,9.4,296.6,338.6,299.2
976.9,384,21.5,19.1,86,14.39,61,9.4,296.6,338.3,299.1
976.2,390,21.4,19.0,86,14.31,61,9.4,296.6,338.1,299.1
975.5,396,21.4,19.0,86,14.32,62,9.4,296.6,338.1,299.2
974.9,403,21.3,19.1,87,14.38,62,9.4,296.6,338.3,299.2
974.2,409,21.2,19.1,87,14.40,62,9.4,296.6,338.3,299.2
973.4,415,21.2,19.1,88,14.41,62,9.4,296.6,338.4,299.2
972.7,422,21.1,19.1,88,14.43,62,9.4,296.6,338.4,299.2
972.0,428,21.1,19.1,89,14.46,62,9.4,296.6,338.5,299.2
971.2,435,21.0,19.1,89,14.50,62,9.4,296.6,338.6,299.2
970.5,442,20.9,19.1,90,14.53,62,9.4,296.6,338.7,299.2
969.7,448,20.9,19.1,90,14.52,62,9.4,296.6,338.7,299.2
969.0,455,20.8,19.1,90,14.48,62,9.3,296.6,338.5,299.2
968.2,462,20.7,19.0,90,14.43,62,9.3,296.6,338.4,299.2
967.4,469,20.7,19.0,90,14.40,62,9.3,296.6,338.3,299.2
966.7,476,20.6,18.9,90,14.40,62,9.3,296.6,338.3,299.1
966.0,482,20.5,19.0,91,14.43,62,9.2,296.6,338.4,299.2
965.2,489,20.5,19.0,91,14.46,62,9.2,296.6,338.5,299.2
964.5,495,20.4,19.0,92,14.46,62,9.2,296.6,338.5,299.2
963.8,502,20.3,18.9,92,14.44,62,9.2,296.6,338.4,299.2
963.1,508,20.3,18.9,92,14.41,62,9.1,296.6,338.4,299.2
962.4,514,20.2,18.9,92,14.38,62,9.1,296.6,338.3,299.2
961.7,520,20.2,18.9,92,14.40,62,9.1,296.6,338.3,299.2
961.0,526,20.1,18.9,93,14.44,62,9.1,296.6,338.5,299.2
960.3,533,20.1,18.9,93,14.45,62,9.1,296.6,338.5,299.2
959.6,539,20.0,18.9,93,14.43,62,9.1,296.6,338.4,299.2
958.8,546,19.9,18.8,93,14.42,62,9.1,296.6,338.4,299.2
958.1,553,19.9,18.8,94,14.43,62,9.1,296.6,338.4,299.2
957.3,560,19.8,18.8,94,14.45,63,9.1,296.6,338.5,299.2
956.6,567,19.7,18.8,94,14.44,63,9.1,296.6,338.4,299.2
955.8,573,19.7,18.8,95,14.40,63,9.1,296.6,338.3,299.2
955.1,580,19.6,18.7,95,14.37,63,9.2,296.6,338.2,299.2
954.5,586,19.5,18.7,95,14.36,64,9.2,296.6,338.2,299.2
953.8,592,19.5,18.7,95,14.39,64,9.2,296.6,338.3,299.2
953.2,597,19.4,18.7,96,14.40,64,9.2,296.6,338.3,299.2
952.6,603,19.4,18.7,96,14.38,64,9.2,296.6,338.3,299.2
952.0,608,19.3,18.7,96,14.38,65,9.2,296.6,338.3,299.2
951.4,614,19.3,18.7,96,14.37,65,9.3,296.6,338.2,299.2
950.8,619,19.2,18.6,96,14.35,65,9.3,296.6,338.2,299.2
950.2,624,19.2,18.6,97,14.35,65,9.3,296.6,338.2,299.2
949.6,630,19.1,18.6,97,14.37,65,9.3,296.6,338.3,299.2
949.0,635,19.1,18.6,97,14.39,66,9.3,296.6,338.3,299.2
948.4,640,19.0,18.6,98,14.40,66,9.3,296.6,338.3,299.2
947.9,646,19.0,18.6,98,14.38,66,9.3,296.6,338.3,299.2
947.3,651,18.9,18.6,98,14.35,66,9.3,296.6,338.2,299.2
946.7,657,18.9,18.5,98,14.34,66,9.2,296.6,338.2,299.2
946.1,662,18.8,18.6,99,14.36,66,9.2,296.6,338.2,299.2
945.4,668,18.7,18.6,99,14.38,66,9.2,296.6,338.3,299.2
944.8,674,18.7,18.6,99,14.38,66,9.2,296.6,338.3,299.2
944.2,679,18.6,18.5,99,14.32,66,9.2,296.6,338.1,299.2
943.5,685,18.6,18.4,99,14.23,66,9.2,296.6,337.8,299.1
942.9,691,18.5,18.3,98,14.16,66,9.1,296.6,337.7,299.1
942.3,697,18.5,18.3,99,14.14,66,9.1,296.6,337.6,299.1
941.7,702,18.4,18.2,99,14.14,66,9.1,296.6,337.6,299.1
941.1,707,18.4,18.3,99,14.17,66,9.1,296.6,337.7,299.1
940.5,713,18.3,18.3,99,14.17,66,9.1,296.6,337.7,299.2
940.0,718,18.3,18.2,99,14.17,66,9.1,296.7,337.7,299.2
939.4,723,18.3,18.2,99,14.18,66,9.1,296.7,337.8,299.2
938.9,728,18.3,18.3,100,14.20,66,9.1,296.8,337.9,299.3
938.3,733,18.3,18.3,100,14.21,66,9.1,296.8,338.0,299.3
937.7,738,18.3,18.2,100,14.19,66,9.1,296.8,338.0,299.3
937.2,743,18.2,18.2,100,14.16,67,9.1,296.8,337.9,299.3
936.6,748,18.2,18.1,100,14.13,67,9.1,296.8,337.8,299.4
936.1,754,18.2,18.1,100,14.12,67,9.2,296.9,337.8,299.4
935.5,759,18.2,18.1,99,14.09,67,9.2,296.9,337.8,299.4
935.0,763,18.1,18.0,99,14.02,67,9.2,296.9,337.6,299.4
934.5,768,18.1,17.9,99,13.91,67,9.2,296.9,337.3,299.4
933.9,773,18.0,17.8,99,13.84,67,9.2,296.9,337.0,299.3
933.4,778,17.9,17.8,99,13.87,67,9.2,296.9,337.1,299.3
932.9,782,17.9,17.8,99,13.86,67,9.2,296.9,337.1,299.3
932.4,787,17.8,17.7,99,13.83,68,9.3,296.9,337.0,299.3
931.9,792,17.8,17.7,99,13.79,68,9.3,296.9,336.9,299.3
931.4,797,17.8,17.6,99,13.76,68,9.3,296.9,336.8,299.3
930.9,801,17.8,17.6,99,13.74,68,9.3,296.9,336.8,299.4
930.4,806,17.7,17.6,99,13.73,68,9.3,296.9,336.8,299.4
929.8,811,17.7,17.6,99,13.77,68,9.3,297.0,336.9,299.4
929.3,816,17.7,17.6,99,13.77,68,9.3,297.0,337.0,299.5
928.8,820,17.7,17.5,98,13.63,69,9.3,297.0,336.6,299.5
928.3,825,17.6,17.1,97,13.36,69,9.3,297.0,335.8,299.4
927.8,830,17.6,16.8,95,13.09,69,9.3,297.0,335.0,299.3
927.3,834,17.5,16.7,95,12.99,69,9.3,297.0,334.7,299.3
926.8,839,17.5,16.7,95,13.02,69,9.4,297.0,334.8,299.3
926.3,844,17.4,16.7,96,13.04,69,9.4,297.0,334.9,299.3
925.8,848,17.4,16.7,96,13.04,69,9.4,297.0,334.9,299.3
925.3,853,17.4,16.7,96,13.05,70,9.4,297.0,334.9,299.3
925.0,856,17.3,16.7,96,13.03,70,9.4,297.0,334.9,299.3
924.8,857,17.3,16.7,96,13.04,70,9.4,297.0,334.9,299.4
924.3,862,17.3,16.6,96,12.99,70,9.4,297.0,334.8,299.4
923.8,867,17.3,16.6,96,12.94,70,9.4,297.1,334.7,299.4
923.3,872,17.2,16.5,95,12.86,70,9.5,297.1,334.5,299.4
922.7,877,17.2,16.4,95,12.79,70,9.5,297.1,334.3,299.4
922.2,881,17.2,16.3,94,12.74,70,9.5,297.2,334.2,299.5
921.7,886,17.2,16.2,94,12.70,70,9.5,297.2,334.2,299.5
921.2,891,17.2,16.2,94,12.69,70,9.5,297.2,334.2,299.5
920.7,896,17.2,16.2,94,12.67,71,9.6,297.3,334.1,299.5
920.2,900,17.2,16.1,94,12.64,71,9.6,297.3,334.1,299.5
919.7,905,17.1,16.1,94,12.62,71,9.6,297.3,334.1,299.6
919.1,910,17.1,16.1,94,12.62,71,9.6,297.4,334.1,299.6
918.6,915,17.1,16.1,94,12.62,71,9.6,297.4,334.1,299.6
918.1,920,17.0,16.1,94,12.61,71,9.7,297.4,334.1,299.6
917.5,925,17.0,16.0,94,12.60,71,9.7,297.4,334.1,299.6
917.0,930,17.0,16.0,94,12.56,71,9.7,297.4,333.9,299.6
916.4,935,16.9,15.9,93,12.46,71,9.7,297.4,333.7,299.6
915.9,940,16.9,15.6,92,12.25,71,9.7,297.4,333.1,299.6
915.3,946,16.9,15.2,90,11.97,72,9.7,297.5,332.4,299.6
914.8,951,16.9,15.0,89,11.83,72,9.7,297.5,332.0,299.6
914.2,956,16.9,15.0,89,11.81,72,9.7,297.6,332.0,299.7
913.7,961,16.9,15.0,89,11.81,72,9.8,297.6,332.0,299.7
913.1,966,16.8,15.0,89,11.79,72,9.8,297.6,332.0,299.7
912.6,971,16.8,14.9,89,11.77,72,9.8,297.6,332.0,299.7
912.0,976,16.8,14.9,89,11.76,72,9.8,297.6,332.0,299.7
911.5,982,16.7,14.9,89,11.76,73,9.8,297.7,332.0,299.8
910.9,987,16.7,14.8,89,11.71,73,9.8,297.7,331.9,299.8
910.4,992,16.7,14.8,89,11.68,73,9.8,297.7,331.8,299.8
909.8,997,16.6,14.7,89,11.67,73,9.8,297.7,331.8,299.8
909.2,1003,16.6,14.7,89,11.68,73,9.8,297.7,331.8,299.8
908.6,1008,16.5,14.8,89,11.71,73,9.9,297.7,331.9,299.8
908.0,1014,16.5,14.8,90,11.76,73,9.9,297.7,332.0,299.8
907.5,1019,16.4,14.9,91,11.79,74,9.9,297.7,332.1,299.8
906.9,1025,16.4,14.9,91,11.82,74,10.0,297.7,332.2,299.8
906.3,1030,16.3,14.9,91,11.82,74,10.0,297.7,332.2,299.8
905.8,1035,16.3,14.9,91,11.81,74,10.1,297.7,332.2,299.9
905.2,1040,16.3,14.8,91,11.79,74,10.1,297.8,332.2,299.9
904.7,1046,16.3,14.8,91,11.75,74,10.2,297.8,332.2,299.9
904.1,1051,16.3,14.7,90,11.71,74,10.2,297.9,332.1,300.0
903.5,1056,16.2,14.7,90,11.69,74,10.3,297.9,332.0,300.0
902.9,1062,16.2,14.6,90,11.66,74,10.4,297.9,332.0,300.0
902.4,1068,16.1,14.5,90,11.60,74,10.5,297.9,331.8,300.0
901.8,1073,16.1,14.4,90,11.54,73,10.5,297.9,331.6,300.0
901.2,1079,16.1,14.3,89,11.46,73,10.6,297.9,331.5,300.0
900.6,1084,16.1,14.2,89,11.35,73,10.7,298.0,331.2,300.0
900.0,1090,16.0,14.1,88,11.29,73,10.8,298.0,331.0,300.0
899.4,1096,16.0,14.1,89,11.30,73,10.9,298.0,331.1,300.0
898.8,1101,15.9,14.1,89,11.31,73,11.0,298.0,331.1,300.0
898.2,1107,15.9,14.0,89,11.26,73,11.1,298.0,331.0,300.1
897.6,1113,15.9,13.8,88,11.13,73,11.2,298.1,330.6,300.1
897.0,1118,15.9,13.5,86,10.91,73,11.2,298.1,330.1,300.1
896.4,1124,15.9,13.2,84,10.67,73,11.3,298.2,329.5,300.1
895.9,1129,15.9,12.9,82,10.51,73,11.4,298.3,329.1,300.2
895.3,1134,16.0,12.8,82,10.44,73,11.4,298.4,329.0,300.3
894.8,1139,16.0,12.8,81,10.41,73,11.5,298.4,329.0,300.3
894.3,1144,16.0,12.8,81,10.41,73,11.6,298.5,329.1,300.3
893.8,1149,15.9,12.7,81,10.40,73,11.6,298.5,329.0,300.3
893.3,1154,15.9,12.7,81,10.35,73,11.6,298.5,328.9,300.4
892.8,1159,15.9,12.6,81,10.32,74,11.7,298.5,328.8,300.4
892.3,1163,15.8,12.6,81,10.31,74,11.7,298.5,328.8,300.4
891.8,1168,15.8,12.6,81,10.30,74,11.7,298.5,328.8,300.4
891.3,1172,15.8,12.5,81,10.29,74,11.7,298.6,328.8,300.4
890.8,1177,15.7,12.5,81,10.29,74,11.7,298.6,328.8,300.4
890.3,1182,15.7,12.5,82,10.31,75,11.7,298.6,328.8,300.4
889.8,1187,15.6,12.6,82,10.33,75,11.7,298.6,328.9,300.4
889.2,1192,15.6,12.6,82,10.35,75,11.8,298.6,329.0,300.4
888.7,1197,15.5,12.6,83,10.39,75,11.7,298.6,329.1,300.4
888.1,1203,15.5,12.7,83,10.44,75,11.7,298.6,329.2,300.5
887.5,1209,15.4,12.8,84,10.49,76,11.7,298.6,329.4,300.5
886.9,1214,15.4,12.8,85,10.53,76,11.7,298.6,329.5,300.5
886.3,1220,15.3,12.8,85,10.54,76,11.7,298.6,329.5,300.5
885.7,1226,15.3,12.8,85,10.56,76,11.7,298.6,329.6,300.5
885.1,1232,15.2,12.8,86,10.57,76,11.7,298.6,329.6,300.5
884.5,1238,15.1,12.8,86,10.58,76,11.7,298.6,329.6,300.5
883.9,1243,15.1,12.9,87,10.61,76,11.7,298.6,329.7,300.5
883.3,1249,15.0,12.9,87,10.67,76,11.7,298.6,329.9,300.5
882.7,1255,15.0,13.0,88,10.74,76,11.7,298.6,330.1,300.5
882.2,1260,14.9,13.1,89,10.81,76,11.7,298.6,330.3,300.5
881.6,1266,14.9,13.2,90,10.88,76,11.7,298.6,330.5,300.5
881.0,1271,14.8,13.3,91,10.96,76,11.7,298.6,330.7,300.6
880.5,1276,14.8,13.4,91,11.01,76,11.7,298.6,330.9,300.5
879.9,1282,14.7,13.4,92,11.02,76,11.7,298.6,330.9,300.6
879.4,1287,14.7,13.3,91,10.98,76,11.7,298.6,330.8,300.6
878.8,1292,14.7,13.2,91,10.90,76,11.7,298.6,330.6,300.6
878.3,1297,14.6,13.0,90,10.81,75,11.7,298.7,330.4,300.6
877.7,1303,14.6,12.9,89,10.71,75,11.7,298.7,330.2,300.6
877.2,1308,14.6,12.8,89,10.64,75,11.7,298.8,330.0,300.7
876.6,1314,14.6,12.7,88,10.61,75,11.6,298.8,330.0,300.7
875.9,1320,14.6,12.7,88,10.60,75,11.6,298.8,330.0,300.7
875.3,1327,14.6,12.6,88,10.56,75,11.6,298.9,329.9,300.8
874.6,1333,14.5,12.6,88,10.54,75,11.6,298.9,329.9,300.8
873.9,1340,14.5,12.6,88,10.55,75,11.6,298.9,330.0,300.8
873.2,1347,14.5,12.6,89,10.58,75,11.6,299.0,330.1,300.9
872.5,1354,14.4,12.6,89,10.60,74,11.6,299.0,330.1,300.9
871.8,1360,14.4,12.6,89,10.61,74,11.6,299.0,330.2,300.9
871.1,1367,14.3,12.6,90,10.62,74,11.6,299.0,330.2,300.9
870.5,1373,14.2,12.6,90,10.60,74,11.6,299.0,330.2,300.9
869.8,1380,14.2,12.6,90,10.57,74,11.6,299.0,330.1,300.9
869.2,1386,14.1,12.5,90,10.57,74,11.6,299.0,330.1,300.9
868.6,1392,14.1,12.5,90,10.56,74,11.6,299.0,330.1,300.9
868.0,1398,14.0,12.5,90,10.54,74,11.6,299.0,330.1,300.9
867.4,1403,14.0,12.5,90,10.53,74,11.6,299.1,330.0,300.9
866.8,1409,14.0,12.4,90,10.50,74,11.7,299.1,330.0,301.0
866.3,1414,13.9,12.3,90,10.44,73,11.7,299.1,329.8,301.0
865.7,1420,13.9,12.1,89,10.32,73,11.7,299.1,329.6,301.0
865.2,1425,13.9,12.0,88,10.21,73,11.7,299.2,329.3,301.0
864.6,1431,13.9,11.9,88,10.16,73,11.8,299.2,329.2,301.1
864.0,1436,13.9,11.9,88,10.17,73,11.8,299.3,329.2,301.1
863.4,1442,13.8,11.9,88,10.17,73,11.8,299.3,329.3,301.1
862.8,1448,13.8,11.8,88,10.12,73,11.9,299.3,329.1,301.1
862.3,1453,13.8,11.7,87,10.04,73,11.9,299.3,328.9,301.1
861.7,1459,13.7,11.6,87,9.98,73,11.9,299.4,328.8,301.2
861.1,1465,13.7,11.6,87,10.00,73,12.0,299.4,328.9,301.2
860.5,1470,13.7,11.7,88,10.07,72,12.0,299.4,329.1,301.2
860.0,1476,13.6,11.8,88,10.13,72,12.0,299.4,329.3,301.2
859.4,1481,13.6,11.8,89,10.15,72,12.1,299.4,329.4,301.2
858.9,1486,13.5,11.7,89,10.14,72,12.1,299.4,329.3,301.2
858.4,1491,13.5,11.6,89,10.07,72,12.1,299.4,329.1,301.2
857.9,1496,13.5,11.4,87,9.94,72,12.1,299.5,328.8,301.3
857.4,1501,13.5,11.2,86,9.82,72,12.1,299.5,328.5,301.3
856.9,1506,13.5,11.2,86,9.78,72,12.2,299.5,328.4,301.3
856.4,1511,13.4,11.2,86,9.80,72,12.2,299.6,328.5,301.3
855.9,1516,13.4,11.2,87,9.84,72,12.2,299.6,328.6,301.3
855.4,1521,13.4,11.3,87,9.86,71,12.2,299.6,328.7,301.4
854.9,1525,13.3,11.2,87,9.85,71,12.2,299.6,328.7,301.4
854.4,1530,13.3,11.2,87,9.84,71,12.2,299.6,328.7,301.4
853.9,1535,13.2,11.2,87,9.84,71,12.2,299.6,328.7,301.4
853.4,1540,13.2,11.2,88,9.84,71,12.2,299.6,328.7,301.4
853.0,1545,13.2,11.2,88,9.84,71,12.2,299.6,328.7,301.4
852.5,1550,13.1,11.2,88,9.85,71,12.2,299.6,328.7,301.4
852.0,1555,13.1,11.2,88,9.85,70,12.2,299.6,328.7,301.4
851.5,1559,13.1,11.2,88,9.86,70,12.2,299.7,328.8,301.4
851.0,1564,13.0,11.2,89,9.88,70,12.2,299.7,328.9,301.5
850.5,1569,13.0,11.2,89,9.90,70,12.2,299.7,328.9,301.5
850.0,1574,12.9,11.3,90,9.95,70,12.2,299.7,329.1,301.5
849.5,1579,12.9,11.4,90,10.01,70,12.2,299.7,329.3,301.5
849.0,1584,12.9,11.5,91,10.07,70,12.2,299.7,329.4,301.5
848.4,1590,12.8,11.5,92,10.10,69,12.2,299.7,329.5,301.5
847.9,1595,12.8,11.5,92,10.10,69,12.3,299.7,329.5,301.5
847.4,1600,12.7,11.5,92,10.11,69,12.3,299.7,329.6,301.5
846.9,1605,12.7,11.5,93,10.13,69,12.3,299.7,329.7,301.6
846.3,1611,12.6,11.6,93,10.16,69,12.3,299.7,329.7,301.6
845.8,1616,12.6,11.6,93,10.17,69,12.4,299.7,329.8,301.6
845.3,1621,12.6,11.5,93,10.14,69,12.4,299.8,329.7,301.6
844.7,1627,12.5,11.4,93,10.07,69,12.4,299.8,329.6,301.6
844.2,1632,12.5,11.3,92,9.99,69,12.5,299.8,329.4,301.6
843.6,1637,12.5,11.1,91,9.90,69,12.5,299.9,329.2,301.7
843.1,1643,12.5,11.0,91,9.84,69,12.5,299.9,329.0,301.7
842.6,1648,12.5,10.9,90,9.78,69,12.6,300.0,328.9,301.8
842.0,1654,12.5,10.8,89,9.71,69,12.6,300.0,328.8,301.8
841.5,1659,12.5,10.7,89,9.63,69,12.6,300.1,328.6,301.8
840.9,1665,12.5,10.6,88,9.56,69,12.7,300.1,328.4,301.8
840.4,1670,12.4,10.5,88,9.52,69,12.7,300.1,328.4,301.9
839.8,1676,12.4,10.4,88,9.50,69,12.7,300.2,328.3,301.9
839.2,1681,12.4,10.4,88,9.48,69,12.7,300.2,328.3,301.9
838.7,1687,12.4,10.4,88,9.47,69,12.8,300.2,328.3,301.9
838.2,1692,12.3,10.4,88,9.47,68,12.8,300.3,328.3,302.0
837.7,1697,12.3,10.3,88,9.46,68,12.8,300.3,328.3,302.0
837.2,1702,12.3,10.3,88,9.43,68,12.8,300.3,328.3,302.0
836.7,1707,12.3,10.2,87,9.38,68,12.8,300.3,328.2,302.0
836.2,1712,12.3,10.1,87,9.33,68,12.8,300.4,328.1,302.1
835.7,1717,12.3,10.1,86,9.32,68,12.8,300.4,328.1,302.1
835.2,1722,12.3,10.1,86,9.32,68,12.8,300.5,328.2,302.2
834.7,1727,12.2,10.1,87,9.31,67,12.8,300.5,328.2,302.2
834.2,1732,12.2,10.0,87,9.30,67,12.8,300.5,328.2,302.2
833.7,1737,12.2,10.1,87,9.34,67,12.8,300.5,328.3,302.2
833.1,1743,12.1,10.2,88,9.41,67,12.9,300.5,328.5,302.3
832.6,1748,12.1,10.3,89,9.48,67,12.9,300.6,328.7,302.3
832.0,1754,12.0,10.4,90,9.55,67,12.9,300.6,328.9,302.3
831.4,1760,12.0,10.4,90,9.56,67,12.9,300.6,328.9,302.3
830.9,1765,11.9,10.3,90,9.52,66,12.9,300.6,328.8,302.3
830.4,1770,11.9,10.2,89,9.46,66,12.9,300.6,328.7,302.3
829.9,1776,11.9,10.2,89,9.43,66,12.9,300.6,328.6,302.3
829.4,1780,11.8,10.2,90,9.44,66,13.0,300.6,328.7,302.3
828.9,1785,11.8,10.2,90,9.46,66,13.0,300.6,328.7,302.3
828.4,1790,11.7,10.2,90,9.45,66,13.0,300.6,328.7,302.3
827.9,1795,11.7,10.1,90,9.42,66,13.0,300.6,328.6,302.3
827.4,1801,11.7,10.0,90,9.38,66,13.1,300.6,328.5,302.3
826.9,1806,11.6,10.0,90,9.36,67,13.1,300.7,328.5,302.4
826.3,1812,11.6,10.0,90,9.36,67,13.2,300.7,328.5,302.4
825.8,1817,11.6,9.9,89,9.33,67,13.2,300.7,328.5,302.4
825.2,1823,11.6,9.7,88,9.22,67,13.3,300.8,328.2,302.5
824.6,1829,11.6,9.5,87,9.09,68,13.3,300.9,327.9,302.5
824.0,1835,11.6,9.4,86,9.03,68,13.4,300.9,327.8,302.6
823.5,1841,11.6,9.4,86,9.00,68,13.4,301.0,327.8,302.6
822.9,1846,11.6,9.3,86,8.99,69,13.5,301.0,327.8,302.7
822.4,1852,11.6,9.3,86,8.99,69,13.5,301.1,327.9,302.7
821.9,1857,11.5,9.3,86,9.01,69,13.6,301.1,327.9,302.7
821.4,1862,11.5,9.3,86,9.01,70,13.7,301.1,328.0,302.7
820.9,1867,11.5,9.3,87,8.99,70,13.7,301.1,327.9,302.8
820.4,1871,11.4,9.3,86,8.97,70,13.8,301.2,327.9,302.8
820.0,1876,11.4,9.2,86,8.95,71,13.9,301.2,327.9,302.8
819.6,1880,11.4,9.1,86,8.92,71,13.9,301.2,327.8,302.8
819.1,1885,11.4,9.1,86,8.88,72,14.0,301.2,327.7,302.8
818.7,1889,11.4,9.0,85,8.82,72,14.1,301.3,327.6,302.9
818.2,1894,11.4,8.8,84,8.72,72,14.1,301.3,327.4,302.9
817.7,1899,11.4,8.5,82,8.56,73,14.2,301.4,327.0,303.0
817.2,1904,11.5,8.2,80,8.35,73,14.2,301.5,326.5,303.0
816.7,1910,11.5,7.7,77,8.10,73,14.3,301.6,325.9,303.1
816.2,1915,11.6,7.2,74,7.84,73,14.3,301.8,325.3,303.2
815.6,1921,11.7,6.8,72,7.60,73,14.4,301.9,324.8,303.3
815.1,1926,11.8,6.4,70,7.42,74,14.4,302.1,324.4,303.4
814.6,1931,11.8,6.1,68,7.28,74,14.4,302.2,324.1,303.5
814.1,1937,11.9,5.8,66,7.12,74,14.5,302.2,323.7,303.5
813.6,1941,11.9,5.3,64,6.90,74,14.5,302.3,323.2,303.6
813.1,1946,11.9,4.8,62,6.65,74,14.5,302.4,322.6,303.6
812.7,1951,12.0,4.4,60,6.44,74,14.5,302.5,322.1,303.7
812.2,1956,12.0,4.1,59,6.33,74,14.5,302.6,321.8,303.7
811.8,1961,12.0,4.3,59,6.41,73,14.5,302.6,322.1,303.8
811.3,1965,12.0,5.0,62,6.74,73,14.5,302.7,323.1,303.9
810.8,1970,11.9,6.0,67,7.26,73,14.5,302.7,324.6,304.0
810.3,1976,11.8,7.1,73,7.85,73,14.5,302.6,326.3,304.0
809.8,1981,11.7,8.2,79,8.48,73,14.4,302.5,328.0,304.1
809.3,1986,11.6,9.0,84,8.97,73,14.4,302.5,329.4,304.1
808.8,1992,11.5,9.3,86,9.10,73,14.4,302.5,329.7,304.1
808.3,1997,11.5,9.1,85,9.02,72,14.4,302.5,329.5,304.1
807.7,2002,11.5,9.0,85,8.94,72,14.3,302.5,329.3,304.1
807.3,2007,11.5,8.8,84,8.86,72,14.3,302.5,329.1,304.2
806.8,2012,11.4,8.6,83,8.75,72,14.3,302.6,328.8,304.2
806.3,2017,11.4,8.4,81,8.59,72,14.2,302.6,328.4,304.2
805.9,2022,11.5,8.0,79,8.36,72,14.2,302.7,327.8,304.2
