PRES,HGHT,TEMP,DWPT,RELH,MIXR,DRCT,SPED,THTA,THTE,THTV
1010.3,31,26.6,18.0,59,12.94,224,10.8,298.9,336.8,301.2
1009.5,37,25.6,17.9,62,12.87,240,6.5,297.9,335.5,300.2
1009.4,39,25.3,17.8,63,12.82,243,6.4,297.6,335.0,299.9
1008.8,43,25.2,17.9,64,12.88,243,6.8,297.6,335.1,299.9
1008.2,49,25.1,17.9,64,12.90,243,7.3,297.6,335.2,299.9
1007.8,52,25.1,17.8,64,12.80,242,7.8,297.6,334.9,299.8
1007.2,57,25.0,17.6,63,12.70,241,8.3,297.6,334.6,299.8
1006.7,62,25.0,17.5,63,12.61,241,8.7,297.6,334.4,299.9
1006.2,66,24.9,17.6,64,12.67,241,9.0,297.6,334.5,299.8
1005.7,71,24.9,17.7,64,12.75,241,9.4,297.5,334.7,299.8
1005.2,75,24.8,17.7,64,12.77,240,9.7,297.5,334.8,299.8
1004.7,80,24.8,17.7,65,12.75,240,10.0,297.6,334.7,299.8
1004.2,84,24.8,17.6,65,12.74,240,10.3,297.6,334.7,299.8
1003.7,88,24.7,17.6,65,12.71,240,10.5,297.6,334.6,299.8
1003.2,92,24.7,17.3,64,12.51,240,10.7,297.6,334.1,299.8
1002.8,96,24.7,17.0,62,12.22,240,10.9,297.7,333.3,299.8
1002.3,101,24.8,16.8,61,12.08,240,11.0,297.8,333.0,299.9
1001.8,105,24.8,16.8,61,12.09,240,11.1,297.8,333.1,299.9
1001.3,109,24.7,16.9,62,12.15,240,11.2,297.8,333.3,300.0
1000.8,114,24.7,16.9,62,12.17,240,11.3,297.8,333.3,300.0
1000.3,118,24.7,16.9,62,12.17,241,11.3,297.8,333.4,300.0
1000.0,121,24.7,16.9,62,12.19,241,11.3,297.8,333.4,300.0
999.7,123,24.6,16.9,62,12.19,241,11.3,297.8,333.4,300.0
999.2,128,24.6,16.9,62,12.19,241,11.3,297.8,333.4,300.0
998.7,132,24.5,16.9,62,12.19,242,11.3,297.8,333.4,299.9
998.2,137,24.5,16.8,62,12.15,242,11.3,297.8,333.3,299.9
997.7,141,24.4,16.7,62,12.10,242,11.3,297.8,333.1,299.9
997.2,145,24.4,16.7,62,12.06,243,11.3,297.8,333.0,299.9
996.7,150,24.4,16.5,62,11.96,243,11.2,297.8,332.7,299.9
996.3,153,24.3,16.6,62,11.97,244,11.2,297.8,332.8,299.9
995.8,157,24.3,16.6,62,12.03,244,11.2,297.8,332.9,299.9
995.4,161,24.2,16.5,62,11.94,245,11.1,297.8,332.6,299.9
995.0,165,24.2,16.4,62,11.87,245,11.1,297.8,332.4,299.9
994.6,168,24.2,16.5,62,11.92,246,11.1,297.8,332.6,299.9
994.2,172,24.2,16.6,63,12.02,246,11.1,297.8,332.9,299.9
993.8,175,24.1,16.7,63,12.10,247,11.1,297.8,333.1,300.0
993.4,179,24.1,16.7,63,12.13,247,11.1,297.8,333.2,300.0
993.0,182,24.0,16.7,64,12.14,248,11.1,297.8,333.2,300.0
992.6,186,24.0,16.7,64,12.14,248,11.1,297.8,333.3,300.0
992.2,189,24.0,16.7,64,12.13,248,11.1,297.8,333.2,300.0
991.8,193,24.0,16.7,64,12.11,249,11.1,297.8,333.2,300.0
991.4,196,23.9,16.6,64,12.10,249,11.1,297.8,333.2,300.0
991.1,199,23.9,16.6,64,12.08,250,11.1,297.8,333.1,300.0
990.7,203,23.9,16.6,64,12.09,250,11.1,297.9,333.2,300.0
990.3,206,23.9,16.6,64,12.12,250,11.2,297.9,333.3,300.0
990.0,209,23.8,16.7,64,12.13,250,11.2,297.8,333.3,300.0
989.6,212,23.8,16.6,64,12.11,251,11.2,297.8,333.2,300.0
989.3,215,23.7,16.5,64,12.04,251,11.2,297.8,333.0,299.9
989.0,217,23.7,16.4,64,11.95,251,11.1,297.8,332.7,300.0
988.7,220,23.8,16.3,63,11.89,251,11.1,297.9,332.6,300.0
988.4,223,23.7,16.3,63,11.86,252,11.1,297.9,332.6,300.0
988.1,225,23.7,16.3,63,11.84,252,11.1,297.9,332.5,300.0
987.8,228,23.7,16.2,63,11.84,252,11.1,297.9,332.5,300.0
987.5,231,23.7,16.3,63,11.85,252,11.0,297.9,332.6,300.0
987.2,233,23.7,16.3,63,11.87,253,11.0,297.9,332.6,300.0
986.9,236,23.6,16.3,63,11.88,253,11.0,297.9,332.6,300.0
986.5,239,23.6,16.3,64,11.89,253,10.9,297.9,332.6,300.0
986.2,242,23.5,16.3,64,11.93,253,10.9,297.9,332.7,300.0
985.9,245,23.5,16.3,64,11.92,254,10.8,297.8,332.7,300.0
985.5,248,23.5,16.3,64,11.89,254,10.8,297.9,332.6,300.0
985.2,251,23.5,16.2,64,11.87,254,10.7,297.9,332.6,300.0
984.9,254,23.5,16.2,64,11.87,254,10.7,297.9,332.6,300.0
984.6,257,23.5,16.2,64,11.86,254,10.6,297.9,332.6,300.0
984.2,260,23.4,16.3,64,11.89,255,10.6,297.9,332.7,300.1
983.9,263,23.4,16.3,64,11.90,255,10.5,297.9,332.7,300.1
983.6,265,23.4,16.3,64,11.90,255,10.4,297.9,332.7,300.1
983.3,268,23.3,16.3,65,11.96,255,10.4,297.9,332.8,300.0
982.9,271,23.3,16.6,66,12.16,255,10.3,297.9,333.4,300.0
982.6,275,23.2,16.7,67,12.25,256,10.3,297.9,333.6,300.1
982.2,278,23.2,16.7,67,12.25,256,10.2,297.9,333.7,300.1
981.9,281,23.2,16.6,67,12.22,256,10.2,297.9,333.5,300.0
981.6,284,23.1,16.6,67,12.17,256,10.2,297.9,333.4,300.0
981.3,286,23.1,16.5,67,12.15,256,10.1,297.9,333.4,300.0
981.0,289,23.1,16.5,66,12.11,256,10.1,297.8,333.2,300.0
980.7,291,23.1,16.4,66,12.06,256,10.0,297.9,333.1,300.0
980.4,294,23.0,16.3,66,11.98,256,10.0,297.9,332.9,300.0
980.1,296,23.0,16.2,65,11.89,256,10.0,297.9,332.6,300.0
979.9,299,23.0,16.1,65,11.83,256,10.0,297.9,332.5,300.0
979.6,302,23.0,16.1,65,11.84,256,10.0,297.9,332.5,300.0
979.2,304,23.0,16.2,66,11.88,256,9.9,297.9,332.6,300.0
978.9,307,22.9,16.3,66,11.96,256,9.9,297.9,332.8,300.0
978.6,310,22.9,16.3,67,12.03,256,9.9,297.9,333.0,300.0
978.3,313,22.9,16.3,67,12.03,256,9.9,297.9,333.1,300.0
977.9,316,22.9,16.2,66,11.91,255,9.9,297.9,332.7,300.0
977.5,319,22.8,16.0,65,11.79,255,10.0,297.9,332.4,300.0
977.2,323,22.8,16.0,65,11.76,255,10.0,297.9,332.3,300.0
976.8,326,22.8,16.0,66,11.79,255,10.0,297.9,332.4,300.0
976.4,330,22.7,16.0,66,11.76,255,10.0,297.9,332.3,300.0
976.0,334,22.7,15.9,65,11.68,254,10.1,297.9,332.1,300.0
975.5,338,22.7,15.7,65,11.55,254,10.1,297.9,331.7,300.0
975.1,342,22.7,15.5,64,11.41,254,10.1,297.9,331.3,300.0
974.6,346,22.6,15.3,63,11.26,253,10.2,298.0,330.9,300.0
974.1,350,22.6,15.2,63,11.20,253,10.2,298.0,330.7,300.0
973.6,355,22.5,15.3,64,11.32,253,10.2,298.0,331.1,300.0
973.1,359,22.5,15.7,65,11.60,252,10.3,297.9,331.9,300.0
972.5,364,22.4,15.9,67,11.77,252,10.3,297.9,332.4,300.0
972.0,369,22.4,15.9,67,11.76,252,10.4,297.9,332.3,300.0
971.5,374,22.3,15.9,67,11.74,251,10.4,297.9,332.2,300.0
971.0,378,22.3,15.8,67,11.69,251,10.4,297.9,332.1,300.0
970.5,383,22.2,15.7,66,11.62,250,10.5,297.9,331.9,300.0
970.0,387,22.2,15.7,67,11.65,250,10.5,297.9,332.0,300.0
969.5,391,22.1,15.9,68,11.82,250,10.6,297.9,332.4,300.0
969.0,396,22.1,16.1,69,11.97,249,10.6,297.9,332.8,300.0
968.6,400,22.0,16.2,70,12.03,249,10.6,297.8,333.0,300.0
968.1,404,21.9,16.2,70,12.01,248,10.7,297.8,332.9,300.0
967.7,408,21.9,16.1,70,11.98,248,10.7,297.8,332.8,300.0
967.3,412,21.9,16.1,70,11.97,247,10.7,297.8,332.8,300.0
966.8,416,21.8,16.0,70,11.94,247,10.7,297.8,332.7,300.0
966.4,419,21.8,16.0,70,11.90,246,10.8,297.8,332.6,300.0
965.9,423,21.8,16.0,70,11.92,246,10.8,297.8,332.7,300.0
965.5,428,21.7,16.0,70,11.94,245,10.8,297.8,332.7,300.0
965.0,432,21.7,16.1,71,12.01,245,10.9,297.8,332.9,300.0
964.5,436,21.6,16.1,71,12.03,245,10.9,297.8,332.9,300.0
964.0,441,21.6,16.1,71,12.00,244,10.9,297.8,332.9,300.0
963.4,446,21.5,16.0,71,11.93,244,11.0,297.8,332.7,300.0
962.8,452,21.5,15.9,70,11.85,244,11.0,297.9,332.5,300.0
962.2,457,21.5,15.8,70,11.80,243,11.0,297.9,332.4,300.0
961.6,462,21.5,15.8,70,11.80,243,11.1,297.9,332.4,300.0
961.0,468,21.4,15.9,71,11.87,243,11.1,297.9,332.6,300.1
960.4,473,21.4,16.0,71,11.98,243,11.2,297.9,332.9,300.1
959.9,478,21.3,16.0,72,12.03,243,11.2,297.9,333.1,300.1
959.3,483,21.3,16.0,72,12.01,243,11.3,297.9,333.0,300.1
958.8,488,21.2,15.9,72,11.96,243,11.4,298.0,332.9,300.1
958.4,492,21.2,15.9,72,11.94,243,11.4,298.0,332.9,300.1
957.9,496,21.2,15.9,72,11.92,243,11.5,298.0,332.8,300.1
957.5,500,21.1,15.8,72,11.91,243,11.5,297.9,332.7,300.1
957.0,504,21.1,15.8,72,11.90,243,11.6,297.9,332.7,300.1
956.6,508,21.0,15.8,72,11.87,243,11.6,297.9,332.6,300.1
956.1,512,21.0,15.7,72,11.80,243,11.7,298.0,332.5,300.1
955.6,517,21.0,15.7,72,11.83,243,11.8,298.0,332.5,300.1
955.1,522,20.9,15.8,72,11.89,243,11.8,298.0,332.7,300.1
954.6,526,20.9,15.8,73,11.90,243,11.9,297.9,332.7,300.1
954.1,531,20.8,15.8,73,11.89,243,11.9,297.9,332.7,300.1
953.6,535,20.8,15.7,73,11.86,243,12.0,297.9,332.6,300.1
953.1,540,20.7,15.7,73,11.83,244,12.0,297.9,332.5,300.1
952.6,544,20.7,15.6,73,11.81,244,12.0,297.9,332.5,300.1
952.1,548,20.7,15.6,73,11.77,244,12.1,298.0,332.4,300.1
951.7,553,20.6,15.5,73,11.74,244,12.1,298.0,332.3,300.1
951.2,557,20.6,15.6,73,11.77,244,12.1,298.0,332.4,300.1
950.8,561,20.5,15.6,73,11.79,244,12.2,298.0,332.4,300.1
950.3,565,20.5,15.6,73,11.78,244,12.2,298.0,332.4,300.1
949.9,569,20.5,15.5,73,11.71,244,12.2,298.0,332.2,300.0
949.4,573,20.4,15.3,72,11.60,244,12.2,298.0,331.9,300.0
948.9,578,20.4,15.1,72,11.46,244,12.2,298.0,331.5,300.0
948.4,582,20.4,14.7,70,11.16,244,12.2,298.0,330.7,300.0
947.9,587,20.4,14.0,67,10.67,244,12.2,298.1,329.4,300.0
947.5,591,20.5,13.5,65,10.35,244,12.2,298.2,328.5,300.0
947.0,596,20.5,13.4,64,10.26,244,12.2,298.2,328.4,300.1
946.5,600,20.5,13.4,64,10.23,244,12.2,298.3,328.3,300.1
946.0,605,20.5,13.3,63,10.19,244,12.2,298.3,328.3,300.2
945.5,609,20.5,13.2,63,10.16,244,12.2,298.4,328.2,300.2
945.0,614,20.5,13.2,63,10.14,244,12.2,298.4,328.2,300.2
944.5,618,20.4,13.2,63,10.15,244,12.2,298.4,328.2,300.2
944.0,622,20.4,13.2,63,10.17,244,12.2,298.4,328.3,300.2
943.5,627,20.3,13.3,64,10.21,245,12.2,298.4,328.4,300.2
943.1,631,20.3,13.3,64,10.26,245,12.1,298.4,328.5,300.2
942.6,636,20.2,13.3,64,10.22,245,12.1,298.4,328.4,300.2
942.1,640,20.2,13.2,64,10.15,246,12.1,298.4,328.2,300.2
941.6,645,20.2,13.1,64,10.13,246,12.1,298.4,328.2,300.2
941.1,649,20.1,13.2,64,10.16,246,12.1,298.4,328.3,300.2
940.6,653,20.1,13.2,65,10.21,247,12.1,298.4,328.4,300.2
940.2,658,20.0,13.3,65,10.28,247,12.1,298.4,328.6,300.2
939.7,662,20.0,13.4,66,10.32,248,12.1,298.4,328.7,300.2
939.2,667,19.9,13.3,66,10.26,248,12.1,298.4,328.5,300.2
938.7,671,19.9,13.2,65,10.20,248,12.1,298.4,328.4,300.2
938.2,676,19.9,13.2,65,10.18,249,12.1,298.4,328.3,300.2
937.7,680,19.8,13.2,65,10.19,249,12.2,298.4,328.3,300.2
937.3,684,19.8,13.2,66,10.21,249,12.2,298.4,328.4,300.2
936.8,689,19.7,13.2,66,10.24,250,12.2,298.4,328.5,300.2
936.4,693,19.7,13.2,66,10.24,250,12.3,298.4,328.5,300.2
935.9,697,19.7,13.2,66,10.22,250,12.3,298.4,328.4,300.2
935.5,701,19.6,13.1,66,10.19,250,12.4,298.4,328.3,300.2
935.0,705,19.6,13.1,66,10.16,250,12.5,298.4,328.3,300.3
934.6,709,19.6,13.0,66,10.15,250,12.5,298.4,328.3,300.3
934.2,713,19.5,13.0,66,10.15,250,12.6,298.4,328.3,300.3
933.8,717,19.5,13.0,66,10.13,250,12.7,298.4,328.2,300.2
933.4,720,19.5,12.9,66,10.08,250,12.8,298.4,328.1,300.2
933.0,724,19.4,12.8,66,10.02,250,12.8,298.4,327.9,300.2
932.6,728,19.4,12.8,65,10.00,250,12.9,298.5,327.9,300.3
932.2,732,19.4,12.9,66,10.06,250,13.0,298.5,328.1,300.3
931.7,736,19.4,13.0,67,10.15,249,13.1,298.5,328.3,300.3
931.3,740,19.3,13.1,67,10.24,249,13.2,298.5,328.6,300.3
930.8,744,19.3,13.2,68,10.29,249,13.2,298.5,328.7,300.3
930.3,749,19.2,13.1,68,10.26,249,13.3,298.5,328.6,300.3
929.8,753,19.2,13.0,67,10.18,248,13.4,298.5,328.4,300.3
929.3,758,19.2,12.9,67,10.09,248,13.4,298.5,328.2,300.3
928.8,763,19.1,12.8,67,10.05,248,13.5,298.5,328.1,300.3
928.3,767,19.1,12.9,67,10.09,247,13.5,298.5,328.2,300.3
927.8,772,19.0,12.9,68,10.15,247,13.5,298.5,328.3,300.3
927.2,777,19.0,12.9,68,10.14,247,13.6,298.5,328.3,300.3
926.7,782,18.9,12.8,68,10.09,247,13.6,298.5,328.2,300.3
926.1,788,18.9,12.7,67,10.02,246,13.6,298.5,328.0,300.3
925.6,792,18.9,12.6,67,9.95,246,13.5,298.5,327.8,300.3
925.1,797,18.8,12.6,67,9.93,246,13.5,298.5,327.7,300.3
925.0,798,18.8,12.6,67,9.93,246,13.5,298.5,327.7,300.3
924.5,802,18.8,12.6,67,9.94,246,13.5,298.5,327.8,300.3
924.1,807,18.7,12.6,68,9.98,246,13.4,298.5,327.9,300.3
923.6,811,18.7,12.7,68,10.01,246,13.3,298.5,328.0,300.3
923.1,816,18.7,12.6,68,10.01,246,13.3,298.6,328.0,300.4
922.6,820,18.7,12.6,68,10.00,246,13.2,298.6,328.0,300.4
922.1,825,18.6,12.6,68,10.00,246,13.1,298.6,328.1,300.4
921.6,830,18.6,12.6,68,9.98,246,13.0,298.6,328.0,300.4
921.0,835,18.5,12.5,68,9.96,246,12.9,298.6,328.0,300.4
920.5,840,18.5,12.5,68,9.96,246,12.8,298.6,327.9,300.4
919.9,846,18.5,12.5,68,9.98,246,12.7,298.6,328.0,300.4
919.2,851,18.4,12.6,69,10.05,246,12.7,298.7,328.3,300.5
918.6,857,18.4,12.8,70,10.19,246,12.6,298.7,328.7,300.5
918.0,863,18.4,13.0,71,10.31,247,12.5,298.7,329.0,300.6
917.4,868,18.3,13.0,71,10.34,247,12.4,298.8,329.2,300.6
916.9,874,18.3,13.0,71,10.32,247,12.3,298.8,329.1,300.6
916.4,879,18.3,13.0,71,10.35,247,12.3,298.8,329.3,300.7
915.8,883,18.3,13.1,72,10.39,248,12.2,298.8,329.4,300.7
915.3,888,18.2,13.1,72,10.43,248,12.1,298.9,329.5,300.7
914.8,893,18.2,13.2,72,10.47,248,12.1,298.9,329.7,300.8
914.3,897,18.2,13.2,72,10.47,248,12.0,298.9,329.7,300.8
913.9,902,18.2,13.2,73,10.47,249,12.0,298.9,329.7,300.8
913.4,906,18.1,13.1,73,10.44,249,12.0,298.9,329.6,300.8
912.9,911,18.1,13.1,72,10.41,249,11.9,298.9,329.6,300.8
912.5,915,18.1,13.0,72,10.40,249,11.9,298.9,329.6,300.8
912.1,919,18.1,13.1,73,10.42,249,11.9,299.0,329.7,300.9
911.6,923,18.1,13.1,73,10.48,249,11.9,299.0,329.9,300.9
911.2,927,18.1,13.2,73,10.53,250,11.8,299.1,330.0,301.0
910.7,932,18.1,13.2,73,10.56,250,11.8,299.1,330.2,301.0
910.2,936,18.0,13.3,74,10.58,250,11.8,299.1,330.3,301.0
909.7,941,18.0,13.2,74,10.57,250,11.8,299.1,330.2,301.0
909.1,946,17.9,13.2,74,10.54,250,11.7,299.1,330.1,301.0
908.6,952,17.9,13.1,73,10.47,250,11.7,299.1,330.0,301.0
908.0,957,17.9,13.0,73,10.39,250,11.6,299.2,329.8,301.0
907.4,963,17.9,12.9,73,10.34,250,11.6,299.2,329.7,301.1
906.8,968,17.8,12.8,72,10.28,250,11.6,299.2,329.5,301.1
906.3,974,17.8,12.6,72,10.20,250,11.5,299.3,329.3,301.1
905.7,979,17.8,12.6,72,10.19,250,11.4,299.3,329.4,301.1
905.1,984,17.8,12.7,72,10.27,249,11.4,299.3,329.6,301.2
904.6,989,17.8,12.8,73,10.32,249,11.3,299.4,329.8,301.2
904.1,994,17.7,12.8,73,10.31,249,11.3,299.4,329.8,301.2
903.6,999,17.7,12.7,72,10.26,249,11.2,299.4,329.7,301.3
903.1,1004,17.7,12.6,72,10.19,249,11.1,299.4,329.5,301.3
902.6,1009,17.7,12.4,71,10.06,249,11.1,299.5,329.2,301.3
902.1,1013,17.7,12.1,70,9.89,249,11.0,299.6,328.8,301.3
901.6,1018,17.7,12.0,69,9.79,249,11.0,299.6,328.6,301.4
901.1,1022,17.7,11.9,69,9.78,249,10.9,299.7,328.6,301.4
900.6,1027,17.7,12.0,69,9.81,249,10.9,299.7,328.7,301.5
900.2,1031,17.7,12.0,70,9.86,249,10.9,299.7,328.8,301.5
899.7,1036,17.6,12.1,70,9.88,249,10.8,299.7,328.9,301.5
899.2,1041,17.6,12.0,70,9.86,249,10.8,299.7,328.9,301.5
898.7,1046,17.5,11.9,70,9.81,249,10.8,299.7,328.7,301.5
898.2,1051,17.5,11.8,69,9.75,250,10.8,299.7,328.6,301.5
897.6,1055,17.5,11.8,69,9.71,250,10.8,299.7,328.5,301.5
897.1,1060,17.4,11.7,69,9.67,250,10.8,299.7,328.3,301.5
896.7,1065,17.4,11.6,69,9.61,250,10.8,299.7,328.2,301.5
896.2,1069,17.4,11.6,69,9.59,250,10.8,299.8,328.2,301.5
895.8,1073,17.3,11.6,69,9.61,250,10.9,299.8,328.2,301.5
895.4,1077,17.3,11.6,69,9.63,250,10.9,299.8,328.3,301.5
895.0,1081,17.3,11.6,69,9.64,250,10.9,299.8,328.3,301.5
894.6,1084,17.2,11.6,70,9.63,250,10.9,299.7,328.2,301.5
894.3,1088,17.2,11.6,70,9.63,250,11.0,299.8,328.2,301.5
893.9,1091,17.2,11.6,70,9.63,250,11.0,299.8,328.3,301.5
893.5,1095,17.1,11.6,70,9.63,250,11.0,299.8,328.3,301.5
893.1,1098,17.1,11.6,70,9.63,250,11.1,299.8,328.3,301.5
892.7,1103,17.1,11.5,70,9.62,250,11.1,299.8,328.3,301.5
892.2,1107,17.0,11.5,70,9.61,250,11.1,299.8,328.2,301.5
891.7,1112,17.0,11.5,70,9.62,250,11.1,299.8,328.3,301.5
891.2,1117,16.9,11.5,70,9.60,250,11.2,299.8,328.2,301.5
890.7,1122,16.9,11.4,70,9.55,249,11.2,299.8,328.1,301.5
890.1,1127,16.8,11.3,70,9.49,249,11.2,299.8,327.9,301.5
889.6,1132,16.8,11.2,70,9.45,249,11.2,299.8,327.8,301.5
889.1,1137,16.8,11.2,70,9.43,249,11.2,299.8,327.8,301.5
888.6,1142,16.7,11.2,70,9.43,248,11.3,299.8,327.7,301.5
888.1,1147,16.7,11.1,70,9.40,248,11.3,299.8,327.7,301.5
887.6,1151,16.6,11.1,70,9.38,248,11.3,299.8,327.6,301.5
887.2,1156,16.6,11.1,70,9.37,247,11.3,299.8,327.6,301.5
886.7,1160,16.6,11.0,70,9.36,247,11.4,299.8,327.6,301.5
886.3,1164,16.5,11.0,70,9.35,246,11.4,299.8,327.5,301.5
885.8,1169,16.5,11.0,70,9.34,246,11.4,299.9,327.5,301.5
885.4,1173,16.5,11.0,70,9.34,246,11.5,299.9,327.5,301.5
885.0,1177,16.4,11.0,70,9.35,245,11.5,299.9,327.5,301.5
884.6,1181,16.4,11.0,70,9.36,245,11.5,299.9,327.6,301.6
884.1,1185,16.4,11.0,71,9.38,245,11.5,299.9,327.7,301.6
883.7,1189,16.3,11.0,71,9.39,244,11.6,299.9,327.7,301.6
883.3,1193,16.3,11.0,71,9.40,244,11.6,299.9,327.7,301.6
882.9,1197,16.3,11.0,71,9.40,243,11.6,299.9,327.7,301.6
882.5,1201,16.2,11.0,71,9.40,243,11.6,299.9,327.7,301.6
882.1,1205,16.2,11.0,71,9.39,243,11.6,299.9,327.7,301.6
881.7,1208,16.1,10.9,71,9.36,242,11.6,299.9,327.6,301.6
881.3,1212,16.1,10.9,71,9.32,242,11.6,299.9,327.5,301.6
880.9,1216,16.1,10.8,71,9.29,241,11.6,299.9,327.5,301.6
880.6,1219,16.1,10.8,71,9.29,241,11.6,299.9,327.4,301.6
880.2,1223,16.0,10.8,71,9.30,240,11.6,299.9,327.5,301.6
879.8,1227,16.0,10.8,71,9.29,240,11.6,299.9,327.5,301.6
879.4,1231,16.0,10.8,71,9.29,240,11.5,299.9,327.4,301.6
878.9,1235,15.9,10.8,71,9.28,239,11.5,300.0,327.5,301.6
878.5,1239,15.9,10.8,71,9.28,239,11.5,300.0,327.5,301.6
878.1,1243,15.9,10.8,72,9.29,238,11.4,300.0,327.5,301.7
877.7,1247,15.9,10.8,72,9.32,238,11.4,300.0,327.7,301.7
877.3,1251,15.9,10.9,72,9.35,237,11.3,300.1,327.8,301.7
876.9,1255,15.9,10.9,72,9.36,237,11.2,300.1,327.9,301.8
876.5,1259,15.9,10.9,72,9.36,236,11.2,300.1,327.9,301.8
876.0,1263,15.9,10.8,72,9.35,235,11.1,300.1,327.9,301.8
875.6,1267,15.8,10.8,72,9.31,235,11.0,300.2,327.8,301.8
875.2,1272,15.8,10.7,72,9.27,234,11.0,300.2,327.7,301.9
874.7,1276,15.8,10.6,71,9.22,234,10.9,300.2,327.6,301.9
874.3,1280,15.8,10.4,71,9.11,233,10.8,300.2,327.3,301.9
873.8,1285,15.8,10.2,69,8.96,233,10.8,300.3,326.9,301.9
873.3,1289,15.8,9.8,68,8.75,232,10.7,300.4,326.4,301.9
872.9,1294,15.9,9.6,66,8.60,232,10.6,300.5,326.1,302.0
872.4,1298,15.9,9.8,67,8.74,231,10.6,300.6,326.6,302.2
872.0,1302,16.0,10.3,69,9.08,231,10.6,300.6,327.7,302.3
871.6,1307,16.0,10.7,71,9.33,230,10.5,300.7,328.4,302.4
871.2,1311,16.0,10.7,71,9.34,230,10.5,300.7,328.5,302.4
870.7,1315,15.9,10.6,71,9.28,229,10.5,300.8,328.4,302.4
870.3,1319,15.9,10.6,70,9.23,229,10.5,300.8,328.2,302.4
869.9,1323,15.9,10.5,70,9.22,229,10.4,300.8,328.2,302.5
869.5,1327,15.9,10.5,70,9.22,229,10.4,300.8,328.3,302.5
869.1,1331,15.9,10.6,71,9.25,228,10.4,300.9,328.4,302.5
868.7,1335,15.9,10.6,71,9.28,228,10.4,300.9,328.5,302.6
868.3,1338,15.9,10.6,71,9.29,228,10.5,300.9,328.6,302.6
868.0,1342,15.9,10.6,71,9.26,228,10.5,301.0,328.5,302.6
867.6,1345,15.9,10.4,70,9.19,228,10.5,301.0,328.4,302.7
867.2,1349,15.9,10.4,70,9.14,228,10.5,301.0,328.3,302.7
866.9,1353,15.8,10.3,70,9.13,228,10.6,301.0,328.2,302.7
866.5,1356,15.8,10.4,70,9.15,228,10.6,301.0,328.3,302.7
866.1,1360,15.8,10.4,70,9.15,228,10.6,301.0,328.3,302.7
865.7,1364,15.8,10.2,70,9.08,229,10.7,301.1,328.1,302.7
865.2,1369,15.8,10.0,68,8.92,229,10.7,301.1,327.7,302.7
864.8,1373,15.8,9.8,68,8.81,229,10.7,301.1,327.4,302.7
864.3,1378,15.7,9.7,67,8.79,229,10.8,301.2,327.4,302.8
863.8,1383,15.7,9.7,68,8.81,229,10.8,301.2,327.4,302.8
863.3,1388,15.6,9.8,68,8.82,229,10.8,301.2,327.5,302.8
862.8,1393,15.6,9.8,68,8.85,229,10.8,301.2,327.6,302.8
862.3,1397,15.6,9.8,69,8.87,230,10.9,301.2,327.7,302.8
861.9,1402,15.5,9.8,69,8.87,230,10.9,301.2,327.7,302.8
861.4,1407,15.5,9.8,69,8.87,230,10.9,301.2,327.7,302.8
860.9,1411,15.5,9.8,69,8.89,230,10.9,301.2,327.8,302.9
860.5,1416,15.5,10.0,70,8.99,230,10.9,301.3,328.1,302.9
860.0,1420,15.5,10.3,72,9.21,230,10.9,301.3,328.8,303.0
859.5,1425,15.5,10.8,74,9.51,231,10.9,301.4,329.7,303.1
859.1,1430,15.5,11.0,75,9.67,231,10.8,301.4,330.2,303.2
858.6,1434,15.5,11.1,75,9.68,231,10.8,301.5,330.4,303.3
858.1,1440,15.6,11.0,74,9.64,231,10.8,301.6,330.4,303.4
857.5,1445,15.6,10.9,74,9.62,231,10.7,301.7,330.4,303.4
857.0,1450,15.6,10.9,74,9.60,231,10.7,301.7,330.4,303.5
856.4,1456,15.6,10.9,73,9.59,231,10.6,301.8,330.5,303.6
855.9,1461,15.6,10.8,73,9.56,231,10.5,301.9,330.4,303.6
855.4,1466,15.6,10.8,73,9.52,231,10.5,302.0,330.4,303.7
854.9,1471,15.7,10.7,72,9.49,231,10.4,302.0,330.4,303.8
854.4,1475,15.7,10.6,72,9.47,231,10.3,302.1,330.4,303.8
854.0,1480,15.6,10.6,72,9.47,231,10.2,302.1,330.4,303.8
853.6,1484,15.6,10.6,72,9.47,231,10.2,302.1,330.4,303.8
853.2,1488,15.5,10.7,73,9.49,231,10.1,302.1,330.4,303.8
852.8,1492,15.5,10.7,73,9.49,231,10.0,302.1,330.5,303.8
852.3,1496,15.5,10.6,73,9.47,231,9.9,302.1,330.4,303.8
851.9,1501,15.4,10.6,73,9.45,231,9.9,302.1,330.4,303.8
851.5,1505,15.4,10.5,73,9.41,231,9.8,302.1,330.3,303.8
851.0,1510,15.4,10.4,72,9.35,231,9.8,302.1,330.1,303.8
850.5,1514,15.4,10.3,72,9.30,231,9.7,302.2,330.0,303.9
850.0,1520,15.3,10.3,72,9.28,230,9.6,302.2,329.9,303.8
