PRES,HGHT,TEMP,DWPT,RELH,MIXR,DRCT,SPED,THTA,THTE,THTV
1013.1,31,27.4,21.9,72,16.59,52,5.5,299.4,348.1,302.4
1012.6,35,27.3,22.1,73,16.77,53,3.6,299.3,348.5,302.3
1012.0,40,26.2,21.8,77,16.51,54,3.4,298.3,346.5,301.3
1011.3,47,25.7,21.8,79,16.43,55,3.5,297.9,345.7,300.8
1010.5,53,25.6,21.7,79,16.42,56,3.8,297.9,345.7,300.8
1009.9,58,25.6,21.6,79,16.29,56,4.1,297.9,345.4,300.8
1009.1,65,25.5,21.4,78,16.11,57,4.4,297.9,344.9,300.8
1008.4,71,25.5,21.3,77,15.99,57,4.7,298.0,344.6,300.8
1007.8,77,25.6,21.2,77,15.97,58,4.9,298.1,344.6,300.9
1007.1,83,25.6,21.2,76,15.92,58,5.2,298.2,344.6,301.0
1006.5,88,25.6,21.1,76,15.83,59,5.4,298.2,344.4,301.1
1005.9,93,25.5,20.8,75,15.54,59,5.6,298.1,343.4,300.9
1005.4,98,25.4,20.8,75,15.52,59,5.9,298.1,343.4,300.9
1004.8,103,25.3,20.7,76,15.49,59,6.1,298.0,343.2,300.8
1004.3,108,25.0,20.6,76,15.35,60,6.3,297.8,342.5,300.6
1003.7,113,24.8,20.6,77,15.35,60,6.4,297.7,342.4,300.4
1003.1,118,24.7,20.6,78,15.38,60,6.6,297.6,342.4,300.4
1002.5,124,24.7,20.5,78,15.34,60,6.7,297.6,342.3,300.4
1001.9,129,24.6,20.5,78,15.29,60,6.8,297.6,342.1,300.4
1001.2,134,24.6,20.4,78,15.28,60,6.9,297.6,342.1,300.4
1000.6,140,24.6,20.4,78,15.29,60,7.0,297.6,342.2,300.4
1000.0,145,24.5,20.4,78,15.30,60,7.2,297.6,342.2,300.4
999.4,150,24.4,20.5,79,15.33,60,7.2,297.6,342.3,300.4
998.9,155,24.4,20.5,79,15.35,60,7.2,297.6,342.3,300.4
998.3,160,24.3,20.5,79,15.39,60,7.3,297.6,342.4,300.4
997.7,166,24.3,20.5,80,15.43,60,7.3,297.6,342.5,300.4
997.1,171,24.3,20.6,80,15.48,60,7.3,297.7,342.7,300.4
996.5,176,24.2,20.6,80,15.51,59,7.3,297.7,342.8,300.4
995.9,181,24.2,20.6,81,15.54,59,7.3,297.6,342.9,300.4
995.3,187,24.1,20.6,81,15.57,59,7.3,297.6,343.0,300.4
994.7,192,24.1,20.6,81,15.57,59,7.3,297.7,343.0,300.4
994.1,197,24.0,20.6,81,15.55,59,7.3,297.7,342.9,300.4
993.6,202,23.9,20.5,81,15.48,58,7.3,297.6,342.7,300.4
993.0,207,23.9,20.4,81,15.39,58,7.3,297.6,342.4,300.4
992.5,211,23.8,20.4,81,15.38,58,7.3,297.6,342.4,300.4
992.0,216,23.8,20.5,82,15.45,58,7.3,297.6,342.6,300.4
991.5,220,23.8,20.5,82,15.51,58,7.3,297.6,342.8,300.4
991.0,225,23.7,20.5,82,15.51,57,7.3,297.6,342.8,300.4
990.5,229,23.7,20.5,82,15.50,57,7.3,297.6,342.8,300.4
989.9,234,23.6,20.5,83,15.51,57,7.3,297.7,342.8,300.4
989.4,239,23.6,20.5,83,15.54,57,7.3,297.7,342.9,300.4
988.8,244,23.5,20.5,83,15.55,57,7.3,297.6,342.9,300.4
988.2,250,23.5,20.5,83,15.53,57,7.3,297.6,342.8,300.4
987.6,255,23.4,20.4,83,15.47,57,7.3,297.6,342.6,300.4
987.0,260,23.4,20.4,83,15.43,57,7.3,297.6,342.5,300.4
986.5,265,23.3,20.4,83,15.44,57,7.3,297.6,342.5,300.4
986.0,269,23.3,20.4,84,15.46,57,7.3,297.6,342.6,300.4
985.5,274,23.2,20.4,84,15.46,58,7.3,297.6,342.6,300.4
985.0,278,23.2,20.3,84,15.43,58,7.3,297.6,342.6,300.4
984.4,283,23.2,20.3,84,15.42,58,7.3,297.7,342.5,300.4
983.9,287,23.1,20.3,84,15.40,58,7.3,297.7,342.5,300.4
983.4,292,23.1,20.2,84,15.37,58,7.3,297.7,342.4,300.4
982.9,297,23.0,20.2,84,15.37,59,7.3,297.7,342.4,300.4
982.3,302,23.0,20.3,85,15.40,59,7.3,297.7,342.5,300.4
981.8,307,23.0,20.2,85,15.38,59,7.4,297.7,342.4,300.4
981.3,311,22.9,20.2,84,15.32,60,7.4,297.7,342.3,300.4
980.7,316,22.9,20.1,84,15.28,60,7.4,297.7,342.2,300.4
980.2,321,22.9,20.1,84,15.30,60,7.4,297.7,342.2,300.4
979.7,325,22.8,20.2,85,15.35,61,7.4,297.7,342.4,300.5
979.2,330,22.8,20.2,85,15.41,61,7.4,297.7,342.6,300.5
978.7,334,22.7,20.2,86,15.45,62,7.4,297.7,342.7,300.5
978.2,338,22.7,20.2,86,15.42,62,7.4,297.7,342.6,300.5
977.7,343,22.7,20.1,86,15.36,62,7.4,297.7,342.4,300.4
977.3,347,22.6,20.1,85,15.29,63,7.4,297.7,342.2,300.4
976.8,351,22.6,20.1,86,15.30,63,7.4,297.7,342.3,300.4
976.4,355,22.5,20.1,86,15.37,63,7.4,297.7,342.4,300.4
975.9,359,22.5,20.2,87,15.45,64,7.4,297.7,342.7,300.4
975.5,363,22.4,20.2,87,15.50,64,7.4,297.7,342.8,300.4
975.0,367,22.4,20.3,88,15.52,64,7.4,297.7,342.8,300.4
974.6,371,22.3,20.2,88,15.50,65,7.5,297.7,342.8,300.4
974.1,375,22.3,20.2,88,15.49,65,7.5,297.7,342.7,300.4
973.7,379,22.3,20.2,88,15.49,65,7.5,297.7,342.7,300.4
973.2,383,22.2,20.2,88,15.49,66,7.5,297.7,342.7,300.4
972.8,387,22.2,20.2,88,15.48,66,7.5,297.7,342.7,300.4
972.4,391,22.1,20.2,89,15.47,66,7.6,297.7,342.7,300.4
971.9,395,22.1,20.2,89,15.47,66,7.6,297.7,342.7,300.4
971.5,399,22.1,20.2,89,15.48,66,7.6,297.7,342.7,300.4
971.1,402,22.0,20.2,89,15.49,67,7.6,297.7,342.8,300.4
970.7,406,22.0,20.2,89,15.51,67,7.7,297.7,342.8,300.4
970.2,410,22.0,20.2,90,15.53,67,7.7,297.7,342.8,300.4
969.8,414,21.9,20.2,90,15.52,67,7.7,297.7,342.8,300.4
969.4,417,21.9,20.1,90,15.48,67,7.7,297.7,342.7,300.4
969.0,421,21.9,20.0,89,15.39,68,7.7,297.7,342.4,300.4
968.7,424,21.8,19.9,89,15.32,68,7.7,297.7,342.3,300.4
968.3,427,21.8,20.0,89,15.34,68,7.7,297.7,342.3,300.4
967.9,431,21.8,20.0,90,15.42,68,7.7,297.7,342.5,300.4
967.5,434,21.7,20.1,90,15.48,68,7.7,297.7,342.7,300.4
967.2,438,21.7,20.1,91,15.52,68,7.7,297.7,342.8,300.4
966.8,441,21.7,20.1,91,15.52,69,7.7,297.7,342.8,300.4
966.4,445,21.6,20.1,91,15.49,69,7.7,297.7,342.8,300.4
965.9,449,21.6,20.0,91,15.41,69,7.7,297.7,342.5,300.4
965.5,453,21.6,19.9,90,15.32,69,7.7,297.7,342.3,300.4
965.1,457,21.6,19.8,89,15.20,70,7.7,297.7,342.0,300.4
964.6,461,21.6,19.7,89,15.10,70,7.6,297.8,341.7,300.4
964.1,465,21.5,19.6,89,15.10,70,7.6,297.8,341.7,300.4
963.7,469,21.5,19.7,89,15.13,70,7.6,297.7,341.8,300.4
963.2,473,21.4,19.7,90,15.15,70,7.6,297.7,341.9,300.4
962.8,477,21.4,19.7,90,15.18,70,7.5,297.7,341.9,300.4
962.4,481,21.3,19.7,90,15.19,71,7.5,297.7,341.9,300.4
961.9,485,21.3,19.7,91,15.17,71,7.5,297.7,341.9,300.4
961.5,489,21.3,19.6,91,15.14,71,7.5,297.7,341.8,300.4
961.1,492,21.2,19.6,90,15.11,71,7.5,297.7,341.7,300.4
960.7,496,21.2,19.6,91,15.11,71,7.4,297.7,341.7,300.4
960.3,499,21.2,19.6,91,15.13,71,7.4,297.7,341.8,300.4
959.9,503,21.1,19.7,91,15.19,71,7.4,297.7,341.9,300.4
959.5,507,21.1,19.7,92,15.21,71,7.4,297.7,342.0,300.4
959.1,511,21.0,19.7,92,15.21,71,7.4,297.7,342.0,300.4
958.7,514,21.0,19.7,92,15.20,71,7.4,297.7,341.9,300.4
958.2,518,21.0,19.6,92,15.19,71,7.4,297.7,341.9,300.4
957.8,522,20.9,19.6,92,15.16,71,7.4,297.7,341.8,300.4
957.4,526,20.9,19.6,92,15.14,71,7.4,297.7,341.8,300.4
957.0,530,20.9,19.6,92,15.13,71,7.4,297.7,341.8,300.4
956.6,534,20.8,19.6,92,15.14,71,7.4,297.7,341.8,300.4
956.1,537,20.8,19.6,93,15.16,70,7.4,297.7,341.9,300.4
955.7,541,20.8,19.6,93,15.17,70,7.4,297.7,341.9,300.4
955.3,545,20.7,19.6,93,15.19,70,7.4,297.7,341.9,300.4
954.8,549,20.7,19.6,94,15.25,70,7.4,297.7,342.1,300.5
954.4,553,20.6,19.6,94,15.26,70,7.4,297.7,342.1,300.4
954.0,557,20.6,19.6,94,15.19,70,7.4,297.7,341.9,300.4
953.6,560,20.6,19.5,93,15.10,70,7.4,297.7,341.7,300.4
953.2,564,20.5,19.4,93,15.07,70,7.4,297.7,341.6,300.4
952.8,568,20.5,19.4,94,15.08,70,7.4,297.7,341.6,300.4
952.4,572,20.5,19.5,94,15.16,70,7.4,297.8,341.9,300.5
952.0,575,20.4,19.6,95,15.28,70,7.4,297.7,342.2,300.5
951.6,579,20.4,19.7,96,15.37,70,7.4,297.7,342.5,300.5
951.2,582,20.3,19.7,96,15.38,70,7.4,297.7,342.5,300.5
950.8,586,20.3,19.7,96,15.35,70,7.4,297.7,342.4,300.4
950.4,590,20.3,19.7,96,15.35,71,7.4,297.7,342.4,300.4
950.0,593,20.2,19.7,97,15.39,71,7.4,297.7,342.5,300.4
949.6,597,20.2,19.7,97,15.41,71,7.4,297.7,342.5,300.5
949.2,600,20.2,19.7,97,15.39,71,7.4,297.7,342.5,300.4
948.8,604,20.1,19.7,97,15.37,72,7.3,297.7,342.4,300.4
948.4,607,20.1,19.6,97,15.35,72,7.3,297.7,342.4,300.4
948.0,611,20.1,19.6,97,15.32,73,7.3,297.7,342.3,300.4
947.6,615,20.0,19.6,97,15.29,73,7.3,297.7,342.2,300.4
947.2,619,20.0,19.5,97,15.27,74,7.3,297.7,342.2,300.5
946.8,623,20.0,19.5,97,15.22,74,7.3,297.8,342.0,300.5
946.3,627,20.0,19.3,96,15.05,75,7.3,297.8,341.6,300.5
945.9,631,20.0,18.9,94,14.72,75,7.2,297.8,340.7,300.5
945.4,635,20.0,18.6,91,14.38,76,7.2,297.9,339.8,300.5
945.0,639,20.1,18.4,90,14.23,76,7.2,298.0,339.5,300.5
944.5,643,20.1,18.4,90,14.23,77,7.2,298.0,339.5,300.6
944.1,647,20.1,18.4,90,14.27,77,7.2,298.1,339.7,300.6
943.6,651,20.0,18.5,91,14.31,77,7.1,298.1,339.8,300.6
943.2,656,20.0,18.5,91,14.33,78,7.1,298.1,339.9,300.6
942.7,660,19.9,18.5,91,14.35,78,7.1,298.1,339.9,300.6
942.2,665,19.9,18.5,91,14.35,78,7.1,298.1,339.9,300.6
941.7,669,19.9,18.5,92,14.34,79,7.1,298.1,339.9,300.6
941.1,674,19.8,18.4,92,14.31,79,7.0,298.1,339.8,300.6
940.6,679,19.8,18.3,91,14.25,79,7.0,298.1,339.7,300.6
940.1,684,19.7,18.3,91,14.18,79,7.0,298.1,339.5,300.6
939.6,688,19.7,18.2,91,14.13,79,7.0,298.1,339.4,300.7
939.2,692,19.7,18.2,91,14.13,79,7.0,298.2,339.4,300.7
938.7,697,19.7,18.2,91,14.17,79,7.0,298.2,339.5,300.7
938.3,701,19.7,18.3,92,14.22,79,7.0,298.2,339.7,300.7
937.8,705,19.6,18.3,92,14.23,79,7.0,298.2,339.7,300.7
937.4,709,19.6,18.2,92,14.20,79,7.0,298.2,339.6,300.7
936.9,713,19.5,18.2,92,14.18,78,7.0,298.2,339.6,300.7
936.5,717,19.5,18.2,92,14.16,78,7.0,298.2,339.5,300.7
936.0,722,19.5,18.2,92,14.19,78,7.0,298.2,339.6,300.7
935.5,726,19.4,18.2,93,14.22,78,7.0,298.2,339.7,300.7
935.0,731,19.4,18.2,93,14.24,78,7.0,298.2,339.7,300.7
934.4,736,19.3,18.2,93,14.20,78,7.0,298.2,339.6,300.7
933.9,741,19.3,18.1,93,14.14,77,7.0,298.2,339.4,300.7
933.4,745,19.2,18.1,93,14.10,77,7.0,298.2,339.3,300.7
932.9,750,19.2,18.0,93,14.08,77,7.0,298.2,339.3,300.7
932.5,754,19.2,18.0,93,14.03,77,7.0,298.2,339.2,300.7
932.0,759,19.2,17.9,93,13.99,77,7.0,298.2,339.1,300.7
931.5,763,19.1,17.9,93,14.00,78,7.0,298.3,339.1,300.8
931.1,767,19.1,17.9,93,14.04,78,7.0,298.3,339.2,300.8
930.6,772,19.0,18.0,93,14.05,78,7.0,298.2,339.3,300.8
930.1,776,19.0,17.9,94,14.05,78,7.0,298.3,339.3,300.8
929.7,780,19.0,17.9,94,14.06,79,6.9,298.3,339.3,300.8
929.2,785,18.9,18.0,94,14.10,79,6.9,298.3,339.4,300.8
928.7,789,18.9,18.0,95,14.14,79,6.9,298.3,339.5,300.8
928.2,794,18.9,18.0,95,14.11,80,6.8,298.3,339.5,300.8
927.7,798,18.8,17.9,94,14.03,80,6.8,298.3,339.3,300.8
927.2,803,18.8,17.8,94,13.96,81,6.7,298.3,339.1,300.8
926.7,808,18.8,17.8,94,13.93,81,6.6,298.3,339.0,300.8
926.2,812,18.7,17.8,94,13.95,82,6.5,298.3,339.1,300.8
925.7,817,18.7,17.8,94,13.97,82,6.4,298.3,339.1,300.8
925.2,822,18.6,17.8,95,13.96,83,6.4,298.3,339.1,300.8
925.0,824,18.6,17.7,95,13.95,83,6.3,298.3,339.1,300.8
924.7,826,18.6,17.7,95,13.94,83,6.3,298.3,339.0,300.8
924.3,830,18.6,17.7,95,13.91,84,6.2,298.3,338.9,300.8
923.8,835,18.5,17.7,95,13.90,85,6.1,298.4,338.9,300.8
923.4,838,18.5,17.7,95,13.89,85,6.0,298.4,338.9,300.8
923.0,842,18.5,17.7,95,13.92,86,5.9,298.4,339.0,300.9
922.6,846,18.4,17.7,96,13.95,86,5.8,298.4,339.1,300.9
922.2,849,18.4,17.7,96,13.97,87,5.7,298.4,339.1,300.9
921.8,853,18.4,17.7,96,13.94,88,5.6,298.4,339.1,300.9
921.5,857,18.3,17.6,96,13.89,88,5.6,298.4,338.9,300.8
921.1,860,18.3,17.5,95,13.81,89,5.5,298.4,338.7,300.8
920.7,864,18.3,17.5,95,13.77,89,5.4,298.4,338.6,300.9
920.3,867,18.3,17.5,95,13.76,90,5.4,298.4,338.6,300.9
920.0,871,18.3,17.5,95,13.77,90,5.3,298.4,338.6,300.9
919.6,874,18.2,17.5,95,13.78,90,5.3,298.4,338.7,300.9
919.2,877,18.2,17.5,95,13.79,91,5.3,298.5,338.8,300.9
918.8,881,18.2,17.4,95,13.78,91,5.3,298.5,338.8,301.0
918.4,885,18.2,17.5,95,13.79,92,5.3,298.5,338.8,301.0
918.0,889,18.2,17.5,96,13.83,92,5.3,298.5,339.0,301.0
917.5,894,18.1,17.5,96,13.87,93,5.4,298.5,339.1,301.0
917.0,899,18.1,17.5,97,13.88,93,5.4,298.5,339.1,301.0
916.4,903,18.0,17.5,97,13.88,93,5.4,298.5,339.1,301.0
915.9,908,18.0,17.5,97,13.83,94,5.5,298.5,339.0,301.0
915.4,913,18.0,17.4,97,13.78,94,5.6,298.5,338.8,301.0
914.9,918,17.9,17.3,96,13.75,95,5.6,298.6,338.7,301.0
914.4,923,17.9,17.3,96,13.72,95,5.7,298.6,338.7,301.0
913.9,927,17.9,17.3,96,13.68,96,5.8,298.6,338.6,301.1
913.5,932,17.9,17.2,96,13.65,96,5.9,298.7,338.6,301.1
913.0,936,17.9,17.2,96,13.63,97,6.0,298.7,338.6,301.1
912.5,940,17.9,17.1,96,13.61,97,6.1,298.7,338.5,301.2
912.1,945,17.8,17.1,96,13.60,98,6.2,298.7,338.5,301.2
911.6,949,17.8,17.1,96,13.58,99,6.2,298.7,338.4,301.2
911.1,954,17.8,17.1,96,13.55,99,6.3,298.7,338.4,301.2
910.6,958,17.7,17.0,95,13.51,100,6.4,298.8,338.3,301.2
910.1,963,17.7,17.0,95,13.49,100,6.5,298.8,338.3,301.2
909.6,968,17.7,17.0,95,13.50,101,6.5,298.9,338.4,301.3
909.1,972,17.7,17.0,96,13.56,101,6.6,298.9,338.6,301.3
908.6,977,17.7,17.1,96,13.60,102,6.6,298.9,338.7,301.3
908.1,982,17.6,17.0,96,13.56,103,6.7,298.9,338.6,301.3
907.6,987,17.6,16.9,96,13.49,103,6.7,298.9,338.4,301.3
907.1,991,17.5,16.8,96,13.43,104,6.7,298.9,338.2,301.3
906.7,996,17.5,16.8,96,13.41,105,6.7,298.9,338.2,301.3
906.2,1000,17.5,16.8,96,13.42,105,6.7,298.9,338.2,301.3
905.8,1004,17.4,16.8,96,13.45,106,6.7,298.9,338.3,301.3
905.3,1008,17.4,16.8,96,13.44,107,6.7,298.9,338.3,301.3
904.9,1012,17.4,16.8,96,13.42,107,6.6,298.9,338.2,301.3
904.5,1016,17.4,16.8,96,13.39,108,6.6,299.0,338.2,301.4
904.1,1020,17.3,16.7,96,13.36,109,6.6,299.0,338.1,301.4
903.7,1024,17.3,16.7,96,13.34,109,6.6,299.0,338.1,301.4
903.3,1028,17.3,16.7,96,13.33,110,6.5,299.0,338.1,301.4
902.9,1032,17.3,16.6,96,13.32,111,6.5,299.0,338.1,301.4
902.4,1036,17.3,16.6,96,13.30,111,6.4,299.1,338.0,301.5
902.0,1040,17.2,16.6,96,13.30,112,6.4,299.1,338.0,301.5
901.6,1044,17.2,16.6,96,13.30,113,6.4,299.1,338.0,301.4
901.1,1048,17.2,16.6,96,13.27,113,6.4,299.1,338.0,301.5
900.6,1053,17.2,16.5,96,13.21,114,6.4,299.1,337.8,301.5
900.2,1057,17.2,16.4,95,13.13,114,6.4,299.2,337.7,301.5
899.7,1062,17.2,16.3,95,13.08,115,6.4,299.2,337.6,301.6
899.2,1066,17.2,16.3,95,13.08,115,6.4,299.3,337.6,301.6
898.7,1071,17.1,16.3,95,13.10,116,6.4,299.3,337.7,301.6
898.2,1076,17.1,16.3,95,13.12,116,6.4,299.3,337.8,301.6
897.7,1081,17.0,16.3,96,13.13,116,6.5,299.3,337.8,301.6
897.1,1086,17.0,16.3,96,13.13,116,6.5,299.3,337.8,301.6
896.5,1092,16.9,16.3,96,13.10,116,6.5,299.3,337.7,301.6
896.0,1097,16.9,16.2,96,13.06,116,6.6,299.3,337.6,301.6
895.4,1102,16.9,16.1,95,12.98,116,6.7,299.3,337.4,301.7
894.9,1108,16.9,16.1,95,12.94,116,6.7,299.3,337.3,301.7
894.4,1113,16.8,16.1,95,12.95,116,6.8,299.4,337.4,301.7
893.8,1118,16.8,16.1,96,12.98,115,6.9,299.4,337.5,301.7
893.3,1122,16.8,16.1,96,13.00,115,7.0,299.4,337.6,301.7
892.8,1127,16.7,16.1,96,13.00,114,7.1,299.4,337.6,301.7
892.3,1132,16.7,16.1,96,12.99,114,7.1,299.4,337.5,301.7
891.8,1137,16.6,16.1,96,12.99,114,7.2,299.4,337.5,301.7
891.4,1141,16.6,16.1,97,13.00,113,7.3,299.4,337.6,301.7
890.9,1146,16.5,16.1,97,13.01,113,7.4,299.4,337.6,301.7
890.4,1150,16.5,16.1,97,13.02,112,7.5,299.4,337.6,301.7
890.0,1155,16.4,16.1,98,13.04,112,7.6,299.4,337.7,301.7
889.5,1159,16.4,16.1,98,13.03,111,7.7,299.4,337.6,301.7
889.1,1164,16.4,16.0,98,13.00,111,7.8,299.4,337.6,301.7
888.6,1168,16.3,16.0,98,12.96,111,7.9,299.4,337.5,301.8
888.2,1172,16.3,15.9,97,12.92,110,7.9,299.4,337.4,301.8
887.7,1176,16.3,15.9,97,12.90,110,8.0,299.5,337.4,301.8
887.3,1180,16.3,15.9,97,12.88,110,8.1,299.5,337.3,301.8
886.9,1185,16.3,15.8,97,12.85,109,8.1,299.5,337.2,301.8
886.4,1189,16.3,15.7,97,12.79,109,8.2,299.5,337.1,301.8
886.0,1193,16.3,15.6,96,12.70,109,8.2,299.6,336.9,301.9
885.6,1197,16.3,15.5,95,12.64,109,8.3,299.7,336.8,301.9
885.2,1201,16.3,15.5,95,12.62,109,8.3,299.7,336.8,302.0
884.8,1205,16.3,15.5,95,12.61,109,8.3,299.8,336.9,302.0
884.4,1209,16.3,15.4,95,12.58,109,8.3,299.8,336.8,302.1
884.0,1213,16.3,15.4,94,12.55,108,8.3,299.8,336.7,302.1
883.6,1216,16.3,15.4,94,12.53,108,8.3,299.8,336.7,302.1
883.2,1220,16.2,15.4,94,12.52,108,8.2,299.8,336.7,302.1
882.8,1224,16.2,15.4,95,12.53,108,8.2,299.9,336.7,302.1
882.4,1227,16.2,15.4,95,12.54,108,8.2,299.8,336.7,302.1
882.0,1231,16.1,15.4,95,12.55,109,8.1,299.8,336.8,302.1
881.6,1235,16.1,15.4,95,12.55,109,8.1,299.9,336.8,302.1
881.2,1239,16.1,15.3,95,12.52,109,8.0,299.9,336.7,302.1
880.8,1243,16.1,15.2,95,12.45,109,7.9,299.9,336.5,302.1
880.3,1248,16.1,15.1,94,12.38,109,7.8,299.9,336.4,302.2
879.9,1252,16.1,15.1,94,12.33,109,7.8,300.0,336.3,302.2
879.4,1256,16.1,15.0,93,12.31,109,7.7,300.1,336.4,302.3
879.0,1261,16.1,15.0,93,12.31,109,7.6,300.1,336.4,302.3
878.6,1265,16.1,15.0,93,12.29,109,7.5,300.1,336.4,302.4
878.1,1269,16.1,14.9,93,12.23,109,7.4,300.2,336.2,302.4
877.7,1273,16.1,14.8,92,12.17,108,7.3,300.2,336.1,302.4
877.2,1278,16.1,14.8,92,12.14,108,7.2,300.3,336.1,302.5
876.8,1282,16.1,14.7,92,12.10,108,7.2,300.3,336.0,302.5
876.3,1287,16.1,14.7,91,12.08,108,7.1,300.4,336.0,302.5
875.8,1291,16.1,14.6,91,12.04,108,7.0,300.4,335.9,302.6
875.3,1296,16.1,14.6,91,11.99,108,7.0,300.4,335.8,302.6
874.8,1301,16.1,14.5,90,11.92,107,6.9,300.5,335.7,302.6
874.3,1306,16.1,14.3,89,11.79,107,6.8,300.5,335.4,302.7
873.8,1311,16.1,14.0,87,11.59,107,6.8,300.6,334.9,302.7
873.3,1316,16.2,13.8,86,11.41,107,6.8,300.7,334.5,302.8
872.8,1321,16.2,13.6,85,11.32,106,6.7,300.8,334.4,302.9
872.3,1326,16.2,13.6,84,11.28,106,6.7,300.9,334.3,302.9
871.8,1330,16.2,13.6,84,11.29,106,6.7,300.9,334.4,303.0
871.4,1335,16.2,13.6,85,11.31,105,6.7,301.0,334.5,303.0
870.9,1339,16.2,13.6,85,11.32,105,6.6,301.0,334.5,303.0
870.4,1344,16.2,13.6,85,11.29,105,6.6,301.0,334.5,303.1
869.9,1349,16.2,13.5,84,11.26,105,6.6,301.1,334.4,303.1
869.4,1354,16.1,13.5,84,11.24,105,6.6,301.1,334.4,303.1
868.9,1359,16.1,13.5,85,11.25,105,6.6,301.1,334.5,303.1
868.4,1364,16.1,13.5,85,11.28,105,6.6,301.1,334.5,303.1
868.0,1368,16.0,13.5,85,11.27,105,6.6,301.1,334.5,303.1
867.5,1373,16.0,13.4,84,11.19,105,6.6,301.2,334.3,303.2
867.0,1377,16.0,13.2,83,11.06,105,6.6,301.2,334.0,303.2
866.6,1382,16.1,13.0,82,10.92,105,6.6,301.3,333.7,303.3
866.2,1386,16.1,12.9,81,10.83,106,6.6,301.3,333.5,303.3
865.8,1390,16.1,12.8,81,10.82,106,6.6,301.4,333.5,303.3
865.3,1394,16.1,12.9,81,10.84,106,6.6,301.4,333.6,303.4
864.9,1398,16.0,12.9,81,10.85,107,6.6,301.4,333.7,303.4
864.5,1402,16.0,12.9,82,10.85,107,6.6,301.4,333.7,303.4
864.1,1406,16.0,12.8,82,10.85,108,6.6,301.4,333.7,303.4
863.7,1410,15.9,12.9,82,10.87,108,6.6,301.4,333.7,303.4
863.3,1415,15.9,12.9,82,10.89,109,6.6,301.4,333.8,303.4
862.8,1419,15.8,12.9,83,10.90,110,6.7,301.4,333.8,303.4
862.4,1424,15.8,12.9,83,10.90,110,6.7,301.4,333.8,303.4
861.9,1428,15.7,12.8,83,10.83,111,6.8,301.4,333.6,303.4
861.4,1433,15.7,12.5,82,10.66,112,6.8,301.4,333.1,303.3
860.9,1438,15.7,12.1,79,10.38,112,6.8,301.4,332.3,303.3
860.4,1443,15.7,11.7,77,10.12,113,6.9,301.5,331.7,303.4
859.9,1448,15.7,11.6,76,10.01,114,7.0,301.6,331.4,303.4
859.4,1453,15.7,11.5,76,9.98,115,7.0,301.6,331.4,303.5
858.9,1457,15.7,11.4,76,9.91,115,7.1,301.7,331.2,303.5
858.5,1462,15.7,11.2,75,9.79,116,7.2,301.7,330.9,303.5
858.1,1466,15.7,11.0,74,9.65,117,7.3,301.7,330.5,303.5
857.6,1470,15.7,10.8,73,9.51,118,7.4,301.8,330.2,303.5
857.2,1474,15.7,10.6,72,9.41,118,7.5,301.8,330.0,303.6
856.8,1479,15.7,10.6,72,9.42,119,7.6,301.9,330.0,303.6
856.4,1483,15.7,10.8,73,9.56,119,7.7,301.9,330.5,303.7
855.9,1487,15.7,11.3,75,9.85,120,7.8,302.0,331.4,303.8
855.4,1492,15.7,11.5,76,10.00,121,7.9,302.0,331.8,303.8
854.9,1497,15.7,11.3,75,9.86,121,8.0,302.1,331.5,303.9
854.4,1502,15.7,11.0,74,9.71,122,8.1,302.2,331.2,303.9
853.9,1507,15.7,10.9,73,9.66,122,8.2,302.2,331.1,304.0
853.4,1512,15.7,10.9,73,9.67,122,8.3,302.3,331.2,304.0
852.9,1517,15.7,10.9,73,9.66,123,8.4,302.3,331.2,304.0
852.4,1522,15.7,10.9,73,9.63,123,8.5,302.3,331.1,304.1
851.9,1527,15.7,10.7,72,9.55,123,8.6,302.3,330.9,304.1
851.4,1533,15.6,10.5,72,9.43,124,8.7,302.4,330.6,304.1
850.8,1538,15.6,10.2,70,9.24,124,8.8,302.4,330.1,304.1
850.3,1544,15.7,10.0,69,9.09,124,8.8,302.5,329.8,304.2
850.0,1546,15.7,10.0,69,9.09,124,8.9,302.5,329.8,304.2
849.7,1549,15.7,10.0,69,9.10,124,8.9,302.6,329.9,304.2
849.1,1555,15.6,10.0,69,9.15,124,9.0,302.6,330.0,304.3
848.6,1560,15.6,10.0,70,9.15,124,9.1,302.6,330.0,304.3
848.0,1566,15.5,10.0,70,9.12,124,9.2,302.6,330.0,304.3
847.5,1571,15.5,10.0,70,9.11,124,9.3,302.6,329.9,304.3
847.0,1577,15.5,10.0,70,9.13,124,9.3,302.6,330.0,304.3
846.4,1582,15.4,10.0,70,9.17,124,9.4,302.7,330.2,304.3
845.9,1587,15.4,10.1,71,9.22,124,9.5,302.7,330.3,304.3
845.4,1593,15.3,10.3,72,9.34,123,9.6,302.6,330.7,304.4
844.8,1598,15.3,10.5,73,9.50,123,9.7,302.6,331.1,304.4
844.3,1604,15.2,10.8,75,9.66,123,9.8,302.6,331.6,304.4
843.7,1609,15.1,10.9,76,9.75,123,9.8,302.6,331.8,304.4
843.2,1615,15.1,10.9,76,9.77,122,9.9,302.6,331.8,304.4
842.6,1620,15.0,11.0,77,9.82,122,10.0,302.6,332.0,304.4
842.1,1625,14.9,11.2,78,9.96,122,10.1,302.6,332.4,304.4
841.6,1630,14.9,11.6,80,10.23,122,10.2,302.6,333.2,304.4
841.1,1636,14.8,11.9,83,10.48,121,10.3,302.6,333.9,304.5
