PRES,HGHT,TEMP,DWPT,RELH,MIXR,DRCT,SPED,THTA,THTE,THTV
1013.5,31,24.6,19.5,73,14.18,25,3.9,296.6,337.7,299.1
1012.8,36,25.0,19.7,72,14.37,37,2.5,297.1,338.8,299.6
1012.2,41,24.0,19.5,76,14.22,41,2.4,296.2,337.3,298.7
1011.5,48,23.6,19.3,77,14.08,43,2.4,295.8,336.4,298.3
1010.8,54,23.3,19.1,77,13.90,43,2.6,295.6,335.7,298.0
1010.2,59,23.2,19.0,77,13.78,44,2.7,295.5,335.3,298.0
1009.6,64,23.1,18.8,77,13.64,44,2.9,295.5,334.8,297.9
1009.0,69,23.1,18.6,76,13.52,44,3.1,295.5,334.5,297.9
1008.4,75,23.0,18.5,76,13.41,45,3.2,295.4,334.1,297.8
1007.8,80,22.9,18.4,76,13.34,45,3.3,295.4,333.9,297.7
1007.2,85,22.9,18.5,76,13.38,46,3.5,295.4,334.0,297.8
1006.5,91,22.8,18.5,76,13.40,46,3.6,295.4,334.1,297.8
1005.9,96,22.7,18.4,76,13.32,47,3.7,295.4,333.8,297.7
1005.2,102,22.6,18.3,77,13.27,47,3.8,295.3,333.6,297.7
1004.6,108,22.5,18.3,77,13.29,48,3.9,295.3,333.6,297.7
1003.9,114,22.5,18.3,77,13.32,49,4.0,295.3,333.7,297.7
1003.2,120,22.4,18.3,78,13.34,49,4.0,295.3,333.8,297.7
1002.5,126,22.4,18.3,78,13.34,50,4.1,295.3,333.8,297.7
1001.8,132,22.3,18.3,78,13.32,50,4.2,295.3,333.7,297.7
1001.1,138,22.2,18.2,78,13.25,51,4.2,295.3,333.5,297.6
1000.5,144,22.2,18.2,78,13.22,51,4.2,295.3,333.4,297.6
1000.0,148,22.1,18.1,78,13.21,51,4.2,295.3,333.4,297.6
999.8,150,22.1,18.1,78,13.20,52,4.3,295.3,333.4,297.6
999.1,155,22.0,18.1,78,13.15,52,4.3,295.3,333.2,297.6
998.5,161,22.0,18.0,78,13.12,53,4.3,295.2,333.1,297.6
997.8,166,21.9,18.0,78,13.10,53,4.3,295.2,333.0,297.6
997.2,172,21.8,18.0,79,13.11,53,4.4,295.2,333.0,297.5
996.6,178,21.8,18.0,79,13.17,53,4.4,295.2,333.2,297.5
995.9,183,21.7,18.1,80,13.23,53,4.4,295.2,333.4,297.6
995.3,189,21.7,18.1,80,13.23,53,4.4,295.2,333.3,297.5
994.6,195,21.6,18.1,80,13.21,53,4.4,295.2,333.3,297.5
994.0,200,21.6,18.0,80,13.20,53,4.3,295.2,333.3,297.5
993.4,205,21.5,18.0,81,13.20,53,4.3,295.2,333.3,297.6
992.8,210,21.5,18.0,81,13.19,53,4.3,295.2,333.2,297.6
992.2,216,21.4,17.9,81,13.14,52,4.3,295.2,333.1,297.6
991.7,220,21.4,17.9,81,13.14,52,4.3,295.2,333.1,297.6
991.1,225,21.3,18.0,81,13.18,51,4.3,295.2,333.3,297.6
990.6,230,21.3,18.0,81,13.21,51,4.2,295.2,333.3,297.6
990.0,235,21.2,17.9,81,13.18,50,4.2,295.2,333.2,297.6
989.4,240,21.2,17.9,82,13.17,50,4.2,295.2,333.2,297.6
988.8,245,21.2,18.0,82,13.21,49,4.2,295.2,333.3,297.6
988.2,251,21.1,18.0,82,13.25,48,4.1,295.2,333.4,297.6
987.6,256,21.0,18.0,83,13.25,48,4.1,295.2,333.4,297.6
987.0,262,21.0,17.9,83,13.22,47,4.1,295.2,333.4,297.6
986.4,267,20.9,17.9,83,13.20,47,4.0,295.2,333.3,297.6
985.7,273,20.9,17.8,83,13.15,46,4.0,295.2,333.2,297.6
985.1,278,20.8,17.7,82,13.08,45,4.0,295.3,333.0,297.6
984.5,284,20.8,17.7,82,13.04,45,3.9,295.3,332.9,297.6
983.9,289,20.7,17.7,83,13.04,45,3.9,295.3,332.9,297.6
983.2,295,20.7,17.7,83,13.05,44,3.9,295.3,332.9,297.6
982.6,300,20.6,17.7,83,13.07,44,3.9,295.3,333.0,297.6
982.0,306,20.6,17.7,84,13.10,44,3.8,295.3,333.0,297.6
981.4,311,20.5,17.7,84,13.09,44,3.8,295.3,333.0,297.6
980.8,316,20.5,17.7,84,13.11,43,3.8,295.3,333.1,297.6
980.1,322,20.4,17.8,85,13.16,43,3.8,295.3,333.2,297.6
979.5,327,20.4,17.8,85,13.18,43,3.7,295.2,333.3,297.6
978.9,333,20.3,17.8,85,13.17,43,3.7,295.2,333.2,297.6
978.2,339,20.2,17.7,85,13.16,43,3.7,295.2,333.2,297.6
977.6,344,20.2,17.7,86,13.14,44,3.7,295.2,333.1,297.6
976.9,350,20.1,17.7,86,13.18,44,3.7,295.2,333.2,297.6
976.3,356,20.1,17.8,87,13.21,44,3.7,295.2,333.3,297.6
975.6,362,20.0,17.7,87,13.19,44,3.7,295.2,333.3,297.6
975.0,368,20.0,17.7,87,13.17,45,3.7,295.2,333.2,297.6
974.3,373,19.9,17.6,87,13.13,45,3.7,295.2,333.1,297.6
973.7,379,19.9,17.5,86,13.00,45,3.7,295.2,332.7,297.6
973.1,385,19.8,17.2,85,12.78,46,3.7,295.3,332.1,297.5
972.4,390,19.8,17.1,84,12.72,46,3.7,295.3,332.0,297.6
971.8,395,19.8,17.3,86,12.91,46,3.7,295.3,332.6,297.6
971.2,401,19.7,17.5,87,13.07,46,3.7,295.3,333.0,297.6
970.7,406,19.6,17.4,87,13.00,46,3.7,295.3,332.8,297.6
970.1,411,19.6,17.2,86,12.86,47,3.7,295.3,332.4,297.6
969.6,416,19.6,17.2,86,12.86,47,3.7,295.3,332.4,297.6
969.0,420,19.5,17.2,87,12.86,47,3.7,295.3,332.4,297.6
968.5,425,19.5,17.1,86,12.80,47,3.7,295.3,332.3,297.6
968.0,429,19.5,17.0,86,12.69,47,3.7,295.4,332.0,297.6
967.6,433,19.5,16.7,84,12.47,47,3.7,295.4,331.4,297.6
967.1,438,19.5,16.6,83,12.37,47,3.7,295.5,331.2,297.7
966.6,442,19.5,16.6,83,12.40,47,3.7,295.5,331.4,297.7
966.1,446,19.5,16.7,84,12.44,48,3.6,295.5,331.5,297.7
965.6,451,19.4,16.7,84,12.46,48,3.6,295.5,331.5,297.7
965.1,456,19.4,16.6,84,12.42,48,3.5,295.5,331.4,297.7
964.5,461,19.3,16.5,84,12.34,48,3.5,295.5,331.2,297.7
963.9,466,19.3,16.4,83,12.23,48,3.4,295.5,330.9,297.7
963.3,471,19.3,16.2,83,12.14,48,3.4,295.6,330.6,297.7
962.8,477,19.2,16.1,82,12.07,48,3.3,295.5,330.4,297.7
962.2,482,19.2,16.1,82,12.01,48,3.2,295.6,330.3,297.7
961.6,487,19.1,16.0,82,11.95,48,3.2,295.6,330.1,297.7
961.0,492,19.1,16.0,82,11.99,49,3.1,295.6,330.3,297.7
960.5,497,19.0,16.1,83,12.09,49,3.0,295.6,330.5,297.7
959.9,502,19.0,16.2,84,12.14,49,2.9,295.6,330.7,297.7
959.4,507,18.9,16.2,84,12.18,49,2.8,295.6,330.8,297.7
958.8,512,18.9,16.3,85,12.23,49,2.8,295.6,330.9,297.7
958.3,517,18.8,16.4,86,12.31,49,2.7,295.5,331.1,297.7
957.8,521,18.8,16.4,86,12.38,49,2.6,295.5,331.3,297.7
957.2,526,18.7,16.5,87,12.39,49,2.5,295.5,331.3,297.7
956.7,531,18.6,16.4,87,12.37,49,2.5,295.5,331.3,297.7
956.2,535,18.6,16.4,87,12.36,49,2.4,295.5,331.2,297.7
955.7,540,18.6,16.4,87,12.34,50,2.3,295.5,331.2,297.7
955.2,545,18.5,16.3,87,12.31,50,2.3,295.5,331.1,297.7
954.7,549,18.5,16.3,87,12.28,50,2.2,295.5,331.0,297.7
954.2,553,18.4,16.2,87,12.26,50,2.2,295.5,330.9,297.7
953.7,558,18.4,16.2,87,12.25,50,2.2,295.5,330.9,297.7
953.3,562,18.4,16.2,87,12.26,50,2.1,295.5,330.9,297.7
952.8,566,18.3,16.3,88,12.30,50,2.1,295.5,331.0,297.7
952.3,570,18.3,16.3,88,12.33,50,2.1,295.5,331.1,297.7
951.9,575,18.2,16.3,89,12.34,50,2.1,295.5,331.2,297.7
951.4,579,18.2,16.3,89,12.35,50,2.1,295.5,331.2,297.7
950.9,583,18.1,16.3,89,12.34,49,2.1,295.5,331.2,297.7
950.4,588,18.1,16.3,89,12.33,49,2.1,295.5,331.1,297.7
949.9,592,18.1,16.2,89,12.32,49,2.1,295.5,331.1,297.7
949.4,596,18.0,16.2,89,12.31,49,2.1,295.5,331.1,297.7
949.0,601,18.0,16.2,90,12.33,49,2.1,295.5,331.1,297.7
948.5,605,17.9,16.3,90,12.35,49,2.1,295.5,331.2,297.7
948.0,609,17.9,16.3,90,12.35,48,2.2,295.5,331.2,297.7
947.6,613,17.9,16.2,90,12.33,48,2.2,295.5,331.2,297.7
947.1,618,17.8,16.2,90,12.30,48,2.2,295.5,331.1,297.7
946.6,622,17.8,16.1,90,12.28,47,2.2,295.5,331.0,297.7
946.1,626,17.7,16.1,90,12.29,47,2.2,295.5,331.0,297.7
945.6,631,17.7,16.2,91,12.31,47,2.2,295.5,331.1,297.7
945.1,636,17.6,16.2,91,12.34,46,2.2,295.5,331.1,297.7
944.6,640,17.6,16.2,91,12.34,46,2.2,295.5,331.2,297.7
944.1,645,17.5,16.2,92,12.33,45,2.2,295.5,331.1,297.7
943.6,650,17.5,16.1,92,12.31,45,2.1,295.5,331.1,297.7
943.0,654,17.5,16.1,92,12.29,44,2.1,295.5,331.0,297.7
942.5,659,17.4,16.1,92,12.30,44,2.1,295.5,331.0,297.7
942.0,664,17.4,16.1,92,12.33,44,2.0,295.5,331.1,297.7
941.5,668,17.3,16.2,93,12.37,43,2.0,295.5,331.2,297.7
941.1,672,17.3,16.2,93,12.40,43,1.9,295.5,331.3,297.7
940.6,677,17.2,16.2,94,12.42,43,1.9,295.5,331.4,297.7
940.1,681,17.2,16.2,94,12.43,42,1.8,295.5,331.4,297.7
939.6,685,17.1,16.2,94,12.42,42,1.7,295.5,331.4,297.7
939.2,690,17.1,16.2,94,12.40,42,1.7,295.5,331.3,297.7
938.7,694,17.1,16.1,94,12.38,41,1.6,295.5,331.3,297.7
938.2,698,17.0,16.1,94,12.34,41,1.5,295.5,331.2,297.7
937.7,703,17.0,16.0,94,12.30,41,1.5,295.5,331.0,297.7
937.2,708,17.0,16.0,94,12.26,41,1.4,295.5,330.9,297.7
936.7,713,16.9,15.9,94,12.24,42,1.3,295.5,330.9,297.7
936.1,718,16.9,15.9,94,12.24,42,1.3,295.5,330.9,297.7
935.5,723,16.8,15.9,94,12.22,43,1.2,295.5,330.9,297.7
934.9,728,16.8,15.9,94,12.21,44,1.1,295.6,330.8,297.7
934.3,734,16.7,15.9,95,12.22,45,1.1,295.6,330.9,297.7
933.7,740,16.7,15.9,95,12.25,47,1.0,295.6,330.9,297.7
933.1,745,16.6,15.9,96,12.26,49,1.0,295.5,331.0,297.7
932.4,751,16.6,15.9,96,12.28,52,0.9,295.6,331.0,297.7
931.8,757,16.5,15.9,96,12.26,55,0.9,295.6,331.0,297.7
931.2,763,16.5,15.8,96,12.20,59,0.9,295.6,330.8,297.7
930.6,768,16.4,15.7,96,12.16,63,0.8,295.6,330.7,297.7
930.0,774,16.4,15.7,96,12.15,68,0.8,295.6,330.7,297.7
929.4,779,16.3,15.7,96,12.16,73,0.8,295.6,330.7,297.7
928.8,784,16.3,15.8,97,12.21,78,0.8,295.6,330.9,297.7
928.3,789,16.2,15.8,97,12.25,83,0.8,295.6,331.0,297.8
927.7,795,16.2,15.8,98,12.26,88,0.9,295.6,331.0,297.8
927.1,800,16.1,15.8,98,12.26,93,0.9,295.6,331.0,297.8
926.6,805,16.1,15.8,98,12.25,98,0.9,295.6,331.0,297.8
926.0,810,16.0,15.7,98,12.22,102,1.0,295.6,330.9,297.7
925.4,815,16.0,15.6,98,12.16,106,1.0,295.6,330.7,297.7
925.0,819,15.9,15.6,98,12.12,106,1.0,295.6,330.6,297.7
924.9,821,15.9,15.6,98,12.12,109,1.1,295.6,330.6,297.8
924.3,826,15.9,15.6,98,12.11,113,1.1,295.6,330.6,297.8
923.8,831,15.9,15.5,98,12.09,116,1.2,295.6,330.6,297.8
923.2,836,15.8,15.3,97,11.94,118,1.2,295.6,330.2,297.8
922.6,841,15.8,15.1,95,11.77,121,1.3,295.7,329.8,297.8
922.0,847,15.8,15.0,95,11.70,123,1.3,295.7,329.6,297.8
921.4,852,15.8,15.0,95,11.70,126,1.4,295.7,329.6,297.8
920.8,858,15.7,15.0,95,11.70,128,1.4,295.8,329.6,297.8
920.2,864,15.7,15.0,95,11.70,130,1.4,295.8,329.6,297.9
919.6,870,15.6,14.9,95,11.68,132,1.4,295.8,329.6,297.9
918.9,875,15.6,14.9,95,11.65,134,1.4,295.8,329.5,297.9
918.3,881,15.6,14.8,95,11.59,136,1.4,295.8,329.4,297.9
917.7,887,15.5,14.7,95,11.50,138,1.4,295.8,329.2,297.9
917.1,893,15.5,14.5,94,11.39,140,1.4,295.9,328.9,297.9
916.4,899,15.5,14.4,93,11.34,142,1.4,295.9,328.8,297.9
915.8,905,15.5,14.4,93,11.31,144,1.3,295.9,328.7,298.0
915.2,911,15.4,14.3,93,11.26,146,1.3,296.0,328.6,298.0
914.5,917,15.5,14.2,92,11.17,148,1.3,296.1,328.5,298.1
913.9,923,15.5,14.0,91,11.09,149,1.2,296.2,328.4,298.2
913.2,928,15.5,14.0,90,11.04,151,1.2,296.3,328.3,298.2
912.6,934,15.5,13.9,90,11.01,152,1.1,296.3,328.3,298.3
912.1,939,15.5,13.8,90,10.97,152,1.1,296.3,328.2,298.3
911.5,944,15.5,13.7,89,10.91,152,1.0,296.4,328.0,298.3
911.0,949,15.5,13.6,89,10.82,151,1.0,296.4,327.9,298.3
910.4,955,15.5,13.5,88,10.71,150,0.9,296.5,327.7,298.4
909.9,960,15.6,13.3,87,10.62,147,0.9,296.6,327.5,298.5
909.3,965,15.6,13.3,86,10.59,144,0.9,296.7,327.5,298.6
908.8,970,15.6,13.3,86,10.60,139,0.9,296.7,327.6,298.6
908.2,975,15.5,13.3,86,10.60,134,0.9,296.7,327.6,298.6
907.7,980,15.5,13.2,87,10.59,129,0.9,296.7,327.6,298.6
907.1,985,15.4,13.2,87,10.59,123,0.9,296.7,327.6,298.6
906.6,990,15.4,13.2,87,10.61,118,1.0,296.7,327.6,298.6
906.2,995,15.3,13.3,87,10.62,113,1.1,296.7,327.7,298.6
905.7,999,15.3,13.3,88,10.63,108,1.2,296.7,327.7,298.6
905.2,1004,15.3,13.3,88,10.64,104,1.3,296.7,327.7,298.6
904.7,1008,15.2,13.3,88,10.64,101,1.4,296.7,327.7,298.6
904.2,1013,15.2,13.2,88,10.62,98,1.5,296.7,327.7,298.6
903.8,1017,15.1,13.2,88,10.62,95,1.6,296.7,327.7,298.6
903.3,1022,15.1,13.2,89,10.62,93,1.8,296.7,327.7,298.6
902.8,1026,15.0,13.2,89,10.61,91,1.9,296.7,327.6,298.6
902.3,1031,15.0,13.1,89,10.59,89,2.0,296.7,327.6,298.6
901.9,1035,15.0,13.1,89,10.56,87,2.1,296.7,327.5,298.6
901.4,1039,14.9,13.1,89,10.54,85,2.2,296.7,327.4,298.6
900.9,1044,14.9,13.1,89,10.54,83,2.3,296.8,327.5,298.6
900.4,1048,14.9,13.1,89,10.55,81,2.4,296.8,327.5,298.7
900.0,1053,14.8,13.1,89,10.56,79,2.5,296.8,327.5,298.7
899.5,1057,14.8,13.1,89,10.56,77,2.5,296.8,327.5,298.7
899.0,1062,14.7,13.0,89,10.55,76,2.6,296.8,327.5,298.7
898.5,1066,14.7,13.0,90,10.55,74,2.6,296.8,327.5,298.7
898.0,1071,14.7,13.0,90,10.55,72,2.6,296.8,327.5,298.7
897.5,1076,14.6,13.0,90,10.56,69,2.6,296.8,327.6,298.7
897.0,1080,14.6,13.0,91,10.58,67,2.6,296.8,327.6,298.7
896.5,1085,14.5,13.0,91,10.59,65,2.6,296.8,327.6,298.7
896.0,1090,14.5,13.0,91,10.58,63,2.6,296.8,327.6,298.7
895.4,1096,14.4,13.0,91,10.57,60,2.5,296.8,327.6,298.7
894.9,1101,14.4,13.0,91,10.56,58,2.5,296.8,327.6,298.7
894.3,1106,14.3,13.0,91,10.55,56,2.4,296.8,327.6,298.7
893.8,1111,14.3,12.9,91,10.53,53,2.4,296.8,327.5,298.7
893.2,1117,14.3,12.9,91,10.51,51,2.3,296.9,327.5,298.7
892.6,1122,14.3,12.8,91,10.49,49,2.2,296.9,327.5,298.8
892.0,1128,14.2,12.8,91,10.48,46,2.1,296.9,327.5,298.8
891.5,1133,14.2,12.8,91,10.48,44,2.1,296.9,327.5,298.8
890.9,1139,14.1,12.8,92,10.49,42,2.0,296.9,327.5,298.8
890.3,1144,14.1,12.8,92,10.51,40,1.9,296.9,327.6,298.8
889.7,1150,14.1,12.8,92,10.50,38,1.8,297.0,327.6,298.8
889.1,1156,14.0,12.8,92,10.50,37,1.7,297.0,327.6,298.9
888.5,1161,14.0,12.8,93,10.52,35,1.6,297.0,327.7,298.9
887.9,1167,14.0,12.8,93,10.54,34,1.5,297.0,327.8,298.9
887.3,1173,13.9,12.9,94,10.61,33,1.4,297.0,328.0,298.9
886.7,1179,13.9,13.1,95,10.76,32,1.3,297.1,328.4,299.0
886.0,1185,13.8,13.3,96,10.88,31,1.2,297.1,328.8,299.0
885.4,1191,13.8,13.3,97,10.91,31,1.1,297.1,328.9,299.0
884.7,1197,13.7,13.3,97,10.89,32,1.0,297.1,328.8,299.0
884.0,1204,13.7,13.2,97,10.88,33,0.9,297.1,328.9,299.1
883.4,1210,13.7,13.3,97,10.90,35,0.8,297.2,328.9,299.1
882.7,1217,13.6,13.2,97,10.89,37,0.7,297.2,328.9,299.1
882.0,1223,13.6,13.2,98,10.87,41,0.6,297.2,328.9,299.1
881.3,1230,13.5,13.2,98,10.86,45,0.6,297.2,328.9,299.1
880.7,1236,13.4,13.1,98,10.85,51,0.5,297.2,328.8,299.1
880.1,1242,13.4,13.1,98,10.85,57,0.5,297.2,328.8,299.1
879.5,1248,13.3,13.1,99,10.85,63,0.4,297.2,328.8,299.1
878.9,1254,13.3,13.1,99,10.85,70,0.4,297.2,328.8,299.1
878.3,1259,13.2,13.1,99,10.88,76,0.4,297.2,328.9,299.1
877.6,1265,13.2,13.2,100,10.91,81,0.4,297.2,329.0,299.2
877.0,1271,13.1,13.1,100,10.88,86,0.4,297.2,328.9,299.1
876.4,1277,13.1,13.1,100,10.85,90,0.4,297.2,328.8,299.1
875.8,1283,13.0,13.0,100,10.83,94,0.4,297.2,328.8,299.2
875.2,1289,13.0,13.0,100,10.81,97,0.4,297.2,328.8,299.2
874.6,1295,13.0,13.0,100,10.80,99,0.3,297.3,328.8,299.2
874.0,1301,12.9,12.9,100,10.79,101,0.3,297.3,328.8,299.2
873.4,1306,12.9,12.9,100,10.79,103,0.2,297.4,328.8,299.3
872.8,1312,12.9,12.9,100,10.78,105,0.2,297.4,328.9,299.3
872.2,1317,12.9,12.9,100,10.77,109,0.1,297.4,328.9,299.4
871.7,1323,12.9,12.9,100,10.76,0,0.0,297.5,328.9,299.4
871.1,1328,12.8,12.8,100,10.75,0,0.0,297.5,328.9,299.4
870.6,1333,12.8,12.8,100,10.74,274,0.1,297.5,328.9,299.4
870.0,1339,12.8,12.8,100,10.74,277,0.2,297.5,328.9,299.5
869.5,1344,12.8,12.8,100,10.73,279,0.4,297.6,329.0,299.5
869.0,1349,12.8,12.8,100,10.73,280,0.5,297.6,329.0,299.5
868.4,1354,12.7,12.7,100,10.72,280,0.6,297.7,329.0,299.6
867.9,1360,12.7,12.7,100,10.71,281,0.7,297.7,329.0,299.6
867.3,1365,12.7,12.7,100,10.71,281,0.9,297.7,329.1,299.6
866.8,1371,12.7,12.7,100,10.70,282,1.0,297.8,329.1,299.7
866.2,1376,12.7,12.7,100,10.70,282,1.1,297.8,329.1,299.7
865.6,1381,12.7,12.7,100,10.71,282,1.3,297.9,329.2,299.8
865.1,1387,12.7,12.7,100,10.76,282,1.4,298.0,329.5,299.9
864.5,1392,12.9,12.9,100,10.85,282,1.5,298.1,329.9,300.1
864.0,1397,13.0,13.0,100,10.96,282,1.7,298.3,330.5,300.3
863.5,1402,13.1,13.1,100,11.04,282,1.8,298.5,330.9,300.5
863.0,1407,13.2,13.2,100,11.09,282,1.9,298.6,331.1,300.6
862.4,1412,13.2,13.2,100,11.11,281,2.0,298.7,331.3,300.7
861.9,1417,13.2,13.2,100,11.13,281,2.1,298.8,331.4,300.8
861.4,1422,13.2,13.2,100,11.14,280,2.2,298.8,331.5,300.8
861.0,1427,13.2,13.2,100,11.15,280,2.3,298.9,331.6,300.9
860.5,1432,13.2,13.2,100,11.15,279,2.4,298.9,331.6,300.9
860.0,1437,13.2,13.2,100,11.13,278,2.4,298.9,331.6,300.9
859.5,1441,13.2,13.1,100,11.13,278,2.5,299.0,331.6,301.0
859.0,1446,13.1,13.1,100,11.12,277,2.6,299.0,331.7,301.0
858.5,1451,13.1,13.1,100,11.12,276,2.6,299.0,331.7,301.0
858.0,1456,13.1,13.1,100,11.11,275,2.7,299.0,331.7,301.0
857.5,1461,13.1,13.1,100,11.09,274,2.7,299.1,331.7,301.1
856.9,1467,13.0,13.0,100,11.09,273,2.8,299.1,331.7,301.1
856.4,1472,13.0,13.0,100,11.08,272,2.8,299.1,331.7,301.1
855.8,1478,13.0,13.0,100,11.07,271,2.9,299.2,331.7,301.2
855.3,1483,13.0,13.0,100,11.06,270,2.9,299.2,331.7,301.2
854.7,1489,12.9,12.9,100,11.04,269,2.9,299.2,331.7,301.2
854.2,1494,12.9,12.9,100,11.03,268,3.0,299.2,331.7,301.2
853.6,1499,12.9,12.9,100,11.02,268,3.0,299.3,331.7,301.3
853.0,1505,12.9,12.9,100,11.00,267,3.0,299.3,331.7,301.3
852.5,1510,12.8,12.8,100,10.99,267,3.1,299.3,331.7,301.3
851.9,1516,12.8,12.8,100,10.97,266,3.1,299.4,331.7,301.3
851.4,1522,12.8,12.7,100,10.94,266,3.1,299.4,331.6,301.3
850.8,1527,12.8,12.7,100,10.90,266,3.2,299.4,331.5,301.4
850.2,1533,12.7,12.7,100,10.89,266,3.2,299.4,331.5,301.4
850.0,1535,12.7,12.7,100,10.89,267,3.2,299.5,331.5,301.4
849.6,1539,12.7,12.6,100,10.89,267,3.2,299.5,331.6,301.4
849.0,1545,12.7,12.6,100,10.90,267,3.2,299.5,331.6,301.5
848.4,1551,12.7,12.7,100,10.91,268,3.2,299.5,331.7,301.5
847.8,1557,12.6,12.6,100,10.90,269,3.2,299.6,331.7,301.5
847.2,1563,12.6,12.6,100,10.90,269,3.2,299.6,331.7,301.6
846.6,1569,12.6,12.6,100,10.88,271,3.3,299.7,331.7,301.6
846.1,1574,12.6,12.6,100,10.87,272,3.3,299.7,331.7,301.6
845.5,1580,12.5,12.5,100,10.84,273,3.3,299.7,331.6,301.6
844.9,1585,12.5,12.5,100,10.83,274,3.3,299.7,331.6,301.7
844.4,1591,12.4,12.4,100,10.79,275,3.3,299.7,331.5,301.7
843.8,1596,12.4,12.3,100,10.73,276,3.3,299.7,331.4,301.7
843.3,1602,12.3,12.3,100,10.70,278,3.3,299.7,331.2,301.6
842.7,1608,12.3,12.2,100,10.69,279,3.3,299.7,331.3,301.7
842.1,1613,12.2,12.2,100,10.69,280,3.3,299.8,331.3,301.7
841.6,1619,12.2,12.2,100,10.68,281,3.4,299.8,331.3,301.7
841.0,1624,12.2,12.2,100,10.66,281,3.4,299.8,331.3,301.7
840.5,1630,12.2,12.1,100,10.62,282,3.4,299.8,331.2,301.7
839.9,1636,12.1,12.0,99,10.58,282,3.4,299.9,331.1,301.8
839.4,1641,12.2,11.9,99,10.52,283,3.5,299.9,331.0,301.8
838.8,1646,12.2,11.8,98,10.46,283,3.5,300.0,330.9,301.9
838.3,1651,12.3,11.8,97,10.41,283,3.5,300.2,330.9,302.0
837.8,1656,12.3,11.7,97,10.40,283,3.5,300.2,331.0,302.1
837.4,1661,12.3,11.8,96,10.41,283,3.6,300.3,331.1,302.2
836.9,1666,12.3,11.8,97,10.44,282,3.6,300.3,331.2,302.2
836.4,1670,12.3,11.8,97,10.47,282,3.6,300.4,331.4,302.3
836.0,1675,12.2,11.9,98,10.50,281,3.7,300.4,331.4,302.3
835.5,1680,12.2,11.9,98,10.51,280,3.7,300.4,331.5,302.3
835.1,1684,12.2,11.9,98,10.51,279,3.7,300.4,331.5,302.3
834.6,1689,12.2,11.9,98,10.52,279,3.7,300.4,331.6,302.3
834.2,1693,12.2,11.8,98,10.50,278,3.8,300.5,331.6,302.4
833.7,1698,12.2,11.8,97,10.48,277,3.8,300.5,331.6,302.4
833.2,1703,12.2,11.7,97,10.44,276,3.8,300.6,331.5,302.5
832.8,1707,12.1,11.7,97,10.40,275,3.8,300.6,331.4,302.5
832.3,1712,12.1,11.6,96,10.34,274,3.8,300.6,331.3,302.5
831.8,1717,12.1,11.5,96,10.29,273,3.8,300.7,331.2,302.6
831.4,1722,12.1,11.4,95,10.24,272,3.8,300.7,331.1,302.6
830.9,1726,12.1,11.3,95,10.20,272,3.8,300.8,331.1,302.6
830.4,1731,12.2,11.3,94,10.18,271,3.8,300.9,331.1,302.7
830.0,1736,12.2,11.3,94,10.18,270,3.8,301.0,331.2,302.8
829.5,1740,12.2,11.3,94,10.19,270,3.8,301.0,331.3,302.9
829.0,1745,12.2,11.3,94,10.19,269,3.8,301.1,331.4,302.9
828.5,1750,12.2,11.3,94,10.18,269,3.8,301.1,331.4,303.0
828.0,1755,12.2,11.2,94,10.17,268,3.8,301.2,331.4,303.0
827.5,1761,12.2,11.2,94,10.15,268,3.7,301.2,331.4,303.1
827.0,1766,12.2,11.2,93,10.14,268,3.7,301.3,331.4,303.1
826.5,1771,12.2,11.1,93,10.11,268,3.7,301.3,331.4,303.1
826.0,1776,12.2,11.1,93,10.09,268,3.6,301.3,331.3,303.2
825.5,1781,12.1,11.1,93,10.10,268,3.6,301.3,331.4,303.2
825.1,1786,12.1,11.1,94,10.12,268,3.6,301.4,331.5,303.2
824.6,1790,12.1,11.1,94,10.14,268,3.5,301.4,331.5,303.2
824.1,1795,12.0,11.1,94,10.14,268,3.5,301.4,331.5,303.2
823.6,1800,12.0,11.1,94,10.13,268,3.5,301.4,331.6,303.3
823.2,1805,12.1,11.1,94,10.12,268,3.5,301.5,331.6,303.3
822.7,1809,12.1,11.1,93,10.13,268,3.4,301.6,331.8,303.5
822.3,1814,12.2,11.1,93,10.13,268,3.4,301.7,331.9,303.6
821.9,1818,12.2,11.1,93,10.14,268,3.4,301.8,332.0,303.6
821.5,1822,12.2,11.1,93,10.13,269,3.4,301.8,332.0,303.6
821.0,1827,12.2,11.1,93,10.13,269,3.4,301.8,332.0,303.7
820.6,1831,12.1,11.0,93,10.13,269,3.4,301.9,332.1,303.7
820.2,1835,12.1,11.0,93,10.13,269,3.4,301.9,332.0,303.7
819.8,1839,12.0,11.0,94,10.13,269,3.4,301.8,332.1,303.7
819.4,1844,12.0,11.0,94,10.13,269,3.4,301.9,332.0,303.7
818.9,1848,12.0,11.0,93,10.10,269,3.4,301.9,332.0,303.7
818.5,1853,12.0,10.9,93,10.08,269,3.4,301.9,332.0,303.8
818.0,1857,12.0,10.9,93,10.05,269,3.5,302.0,332.0,303.8
817.6,1862,12.0,10.8,93,10.03,269,3.5,302.0,331.9,303.8
817.1,1867,12.0,10.8,93,10.03,269,3.5,302.0,331.9,303.9
816.6,1872,11.9,10.8,93,10.02,269,3.5,302.1,332.0,303.9
816.1,1877,11.9,10.8,93,10.03,269,3.5,302.1,332.0,303.9
