PRES,HGHT,TEMP,DWPT,RELH,MIXR,DRCT,SPED,THTA,THTE,THTV
1016.1,31,25.6,20.4,73,15.04,65,7.2,297.4,341.1,300.1
1015.4,37,25.8,20.4,72,15.03,70,5.0,297.6,341.4,300.3
1014.5,44,25.8,20.3,72,14.98,72,4.5,297.8,341.4,300.4
1013.9,50,25.9,20.3,71,14.96,73,4.6,297.9,341.5,300.5
1013.3,55,25.9,20.3,71,14.92,72,4.9,298.0,341.4,300.6
1012.8,59,25.9,20.1,70,14.81,72,5.2,298.0,341.2,300.6
1012.2,64,25.9,20.0,70,14.72,71,5.6,298.0,340.9,300.6
1011.5,71,25.8,20.0,70,14.67,71,5.8,298.0,340.8,300.6
1010.9,76,25.8,19.9,70,14.64,70,6.1,298.0,340.7,300.6
1010.2,82,25.7,19.9,70,14.63,70,6.3,298.0,340.7,300.6
1009.6,87,25.7,19.9,70,14.64,69,6.5,298.0,340.7,300.6
1008.9,93,25.6,19.9,71,14.63,69,6.8,298.0,340.6,300.6
1008.3,99,25.5,19.8,71,14.59,68,6.9,298.0,340.5,300.6
1007.7,104,25.5,19.8,71,14.57,68,7.1,298.0,340.5,300.6
1007.0,109,25.4,19.8,71,14.56,68,7.3,298.0,340.5,300.6
1006.4,115,25.4,19.8,71,14.56,67,7.4,298.0,340.5,300.6
1005.8,120,25.3,19.8,71,14.57,67,7.5,298.0,340.5,300.6
1005.2,126,25.3,19.8,71,14.59,66,7.6,298.0,340.5,300.6
1004.6,131,25.2,19.8,72,14.62,66,7.7,298.0,340.6,300.6
1003.9,137,25.2,19.8,72,14.65,66,7.8,298.0,340.7,300.6
1003.3,142,25.1,19.8,72,14.65,65,7.9,298.0,340.7,300.6
1002.6,148,25.1,19.8,72,14.61,65,8.0,298.0,340.6,300.6
1002.0,154,25.0,19.7,73,14.60,65,8.0,298.0,340.6,300.6
1001.4,159,25.0,19.7,73,14.61,64,8.1,298.0,340.6,300.6
1000.7,165,24.9,19.8,73,14.66,64,8.1,298.0,340.8,300.6
1000.1,171,24.9,19.8,73,14.67,64,8.2,298.0,340.8,300.6
1000.0,171,24.9,19.8,73,14.68,63,8.2,298.0,340.8,300.6
999.4,177,24.8,19.8,74,14.68,63,8.2,298.0,340.8,300.6
998.7,182,24.8,19.7,74,14.65,63,8.3,298.0,340.7,300.6
998.1,188,24.7,19.7,74,14.64,63,8.3,298.0,340.7,300.6
997.5,194,24.6,19.7,74,14.64,63,8.4,298.0,340.7,300.6
996.8,199,24.6,19.7,74,14.62,62,8.5,298.0,340.6,300.6
996.2,205,24.5,19.6,74,14.57,62,8.5,298.0,340.5,300.6
995.6,210,24.5,19.5,74,14.49,62,8.6,298.0,340.3,300.6
994.9,216,24.5,19.5,74,14.47,62,8.6,298.1,340.3,300.6
994.3,222,24.4,19.5,74,14.46,62,8.7,298.1,340.3,300.6
993.6,227,24.4,19.5,74,14.48,61,8.7,298.1,340.3,300.7
993.0,233,24.3,19.5,74,14.49,61,8.8,298.1,340.3,300.6
992.3,239,24.3,19.5,75,14.54,61,8.8,298.1,340.5,300.7
991.7,245,24.2,19.6,75,14.59,61,8.9,298.0,340.6,300.6
991.1,250,24.1,19.6,76,14.61,61,8.9,298.0,340.6,300.6
990.5,256,24.0,19.6,76,14.66,61,9.0,298.0,340.8,300.6
989.9,261,24.0,19.6,77,14.69,61,9.0,298.0,340.8,300.6
989.2,266,23.9,19.6,77,14.68,61,9.1,298.0,340.8,300.6
988.6,272,23.9,19.6,77,14.63,61,9.1,298.0,340.7,300.6
988.0,277,23.8,19.5,77,14.61,61,9.1,298.0,340.6,300.6
987.4,283,23.8,19.6,77,14.70,61,9.1,298.0,340.9,300.7
986.8,288,23.7,19.7,78,14.81,60,9.1,298.0,341.2,300.7
986.2,293,23.7,19.7,79,14.85,60,9.1,298.0,341.3,300.7
985.7,298,23.6,19.7,79,14.82,60,9.1,298.0,341.2,300.6
985.1,303,23.6,19.6,79,14.77,60,9.1,298.0,341.1,300.6
984.6,308,23.5,19.6,79,14.76,60,9.1,298.0,341.0,300.6
984.1,312,23.5,19.6,79,14.79,60,9.0,298.0,341.1,300.6
983.6,317,23.5,19.7,79,14.82,60,9.0,298.0,341.2,300.7
983.1,321,23.4,19.7,79,14.81,60,9.0,298.0,341.2,300.7
982.6,326,23.4,19.6,79,14.75,60,8.9,298.0,341.0,300.7
982.1,330,23.3,19.6,79,14.73,60,8.9,298.0,341.0,300.7
981.6,334,23.3,19.6,80,14.75,60,8.8,298.0,341.0,300.7
981.2,338,23.3,19.6,80,14.78,60,8.8,298.0,341.1,300.7
980.8,342,23.2,19.6,80,14.79,60,8.8,298.0,341.1,300.6
980.3,346,23.2,19.6,80,14.77,60,8.7,298.0,341.1,300.6
979.9,350,23.1,19.5,80,14.73,60,8.7,298.0,341.0,300.6
979.4,354,23.1,19.5,80,14.70,60,8.6,298.0,340.9,300.7
979.0,358,23.1,19.5,80,14.70,60,8.6,298.1,340.9,300.7
978.5,362,23.1,19.5,80,14.72,60,8.6,298.1,341.0,300.7
978.1,366,23.0,19.5,81,14.79,60,8.5,298.1,341.2,300.7
977.6,370,23.0,19.6,81,14.84,60,8.5,298.0,341.3,300.7
977.1,374,22.9,19.6,82,14.84,59,8.5,298.0,341.3,300.7
976.6,379,22.9,19.5,82,14.81,59,8.5,298.0,341.2,300.7
976.2,383,22.8,19.5,81,14.73,59,8.5,298.0,341.0,300.6
975.7,387,22.8,19.4,81,14.64,59,8.5,298.0,340.7,300.7
975.2,392,22.8,19.3,81,14.62,59,8.5,298.1,340.7,300.7
974.7,396,22.7,19.4,81,14.67,59,8.5,298.1,340.8,300.7
974.1,401,22.7,19.4,82,14.70,59,8.5,298.1,340.9,300.7
973.6,406,22.6,19.4,82,14.69,59,8.5,298.0,340.9,300.7
973.1,411,22.6,19.3,82,14.67,58,8.5,298.0,340.8,300.7
972.5,416,22.5,19.3,82,14.67,58,8.6,298.1,340.8,300.7
971.9,421,22.5,19.4,82,14.72,58,8.6,298.1,341.0,300.7
971.3,426,22.4,19.4,83,14.77,58,8.6,298.1,341.1,300.7
970.7,432,22.4,19.4,83,14.79,58,8.7,298.0,341.2,300.7
970.1,438,22.3,19.4,84,14.80,58,8.7,298.0,341.2,300.7
969.4,443,22.2,19.4,84,14.80,58,8.8,298.0,341.2,300.7
968.8,449,22.2,19.4,84,14.81,58,8.8,298.0,341.2,300.7
968.1,455,22.1,19.4,85,14.83,58,8.8,298.0,341.3,300.7
967.4,461,22.1,19.4,85,14.84,58,8.9,298.0,341.3,300.7
966.8,467,22.0,19.4,85,14.85,58,8.9,298.0,341.3,300.7
966.1,473,22.0,19.4,86,14.86,57,8.9,298.0,341.3,300.7
965.5,479,21.9,19.4,86,14.83,57,8.9,298.0,341.3,300.7
964.9,485,21.8,19.3,86,14.77,57,9.0,298.0,341.1,300.7
964.3,490,21.8,19.2,85,14.72,57,9.0,298.0,340.9,300.6
963.7,495,21.7,19.2,86,14.73,57,9.0,298.0,340.9,300.6
963.1,501,21.7,19.3,86,14.78,57,9.0,298.0,341.1,300.7
962.5,506,21.6,19.4,87,14.85,57,9.0,298.0,341.3,300.7
961.9,511,21.6,19.4,87,14.88,57,9.0,298.0,341.4,300.7
961.3,517,21.5,19.4,88,14.90,57,9.0,298.0,341.4,300.7
960.7,522,21.5,19.4,88,14.92,57,9.0,298.0,341.5,300.7
960.0,528,21.4,19.4,88,14.91,57,8.9,298.0,341.5,300.7
959.4,534,21.3,19.3,88,14.88,57,8.9,298.0,341.4,300.7
958.7,540,21.3,19.3,88,14.83,57,8.9,298.0,341.2,300.7
958.0,547,21.2,19.2,88,14.80,57,8.9,298.0,341.1,300.7
957.3,553,21.2,19.2,88,14.78,57,8.8,298.0,341.1,300.7
956.7,559,21.1,19.2,89,14.77,57,8.8,298.0,341.1,300.6
956.0,564,21.1,19.1,89,14.75,57,8.8,298.0,341.0,300.7
955.4,570,21.0,19.1,89,14.76,57,8.8,298.0,341.1,300.7
954.8,576,21.0,19.1,89,14.77,57,8.7,298.0,341.1,300.7
954.2,581,20.9,19.1,90,14.76,57,8.7,298.0,341.0,300.7
953.6,586,20.9,19.1,90,14.74,57,8.7,298.0,341.0,300.7
953.1,591,20.8,19.1,90,14.74,56,8.7,298.0,341.0,300.7
952.5,597,20.8,19.1,90,14.75,56,8.7,298.0,341.1,300.7
951.9,602,20.7,19.1,90,14.73,56,8.7,298.1,341.0,300.7
951.3,607,20.7,19.0,90,14.67,56,8.6,298.1,340.8,300.7
950.7,613,20.7,18.8,89,14.56,56,8.6,298.1,340.5,300.7
950.1,618,20.6,18.7,89,14.45,56,8.6,298.1,340.2,300.7
949.5,624,20.6,18.6,88,14.33,56,8.6,298.1,339.9,300.7
948.9,629,20.6,18.5,88,14.23,56,8.6,298.1,339.7,300.7
948.3,635,20.5,18.6,88,14.33,56,8.6,298.2,339.9,300.7
947.7,640,20.5,18.8,90,14.58,56,8.7,298.1,340.7,300.7
947.1,646,20.3,19.0,92,14.78,56,8.7,298.1,341.2,300.7
946.5,651,20.2,19.0,93,14.79,56,8.7,298.0,341.1,300.7
945.9,657,20.2,18.9,92,14.64,56,8.7,298.0,340.7,300.6
945.3,662,20.1,18.6,91,14.41,57,8.7,298.0,340.1,300.6
944.8,667,20.1,18.4,90,14.21,57,8.7,298.1,339.5,300.6
944.2,673,20.1,18.3,89,14.12,57,8.8,298.1,339.3,300.6
943.6,678,20.1,18.3,90,14.18,57,8.8,298.1,339.5,300.7
943.0,684,20.0,18.4,90,14.29,58,8.8,298.1,339.8,300.7
942.4,689,20.0,18.5,92,14.41,58,8.9,298.1,340.1,300.7
941.7,695,19.9,18.7,93,14.54,58,8.9,298.1,340.5,300.7
941.1,701,19.8,18.8,94,14.62,59,8.9,298.1,340.7,300.7
940.5,706,19.7,18.7,94,14.55,59,9.0,298.1,340.5,300.7
939.9,712,19.7,18.4,92,14.34,60,9.0,298.1,339.9,300.6
939.3,717,19.7,18.2,91,14.11,60,9.1,298.1,339.3,300.6
938.7,723,19.7,18.0,90,14.01,60,9.1,298.2,339.0,300.7
938.1,728,19.6,18.1,91,14.04,61,9.2,298.2,339.1,300.7
937.5,734,19.6,18.1,91,14.10,61,9.2,298.2,339.3,300.7
936.9,739,19.5,18.2,92,14.15,62,9.3,298.2,339.5,300.7
936.3,745,19.5,18.2,92,14.20,62,9.3,298.2,339.6,300.7
935.8,750,19.4,18.2,93,14.17,62,9.4,298.2,339.5,300.7
935.2,755,19.4,18.1,92,14.12,63,9.4,298.2,339.3,300.7
934.6,761,19.3,18.1,92,14.09,63,9.5,298.2,339.3,300.7
934.1,766,19.3,18.0,92,14.06,63,9.5,298.2,339.2,300.7
933.6,771,19.2,18.0,92,14.02,64,9.6,298.2,339.1,300.7
933.0,776,19.2,17.9,92,13.93,64,9.6,298.2,338.9,300.7
932.5,781,19.2,17.7,91,13.77,64,9.7,298.2,338.4,300.7
931.9,785,19.2,17.5,90,13.60,64,9.7,298.2,337.9,300.7
931.4,790,19.2,17.3,89,13.47,64,9.8,298.3,337.6,300.7
930.8,796,19.1,17.2,89,13.42,65,9.8,298.3,337.5,300.7
930.3,801,19.1,17.2,89,13.43,65,9.9,298.4,337.6,300.8
929.7,806,19.1,17.3,89,13.45,65,9.9,298.3,337.7,300.8
929.1,812,19.0,17.2,89,13.44,65,10.0,298.4,337.6,300.8
928.5,817,19.0,17.2,89,13.38,65,10.0,298.4,337.5,300.8
927.9,823,18.9,17.1,89,13.36,65,10.0,298.4,337.4,300.8
927.3,829,18.9,17.1,89,13.34,65,10.1,298.4,337.4,300.8
926.7,834,18.8,17.1,90,13.39,65,10.1,298.4,337.5,300.8
926.1,840,18.7,17.2,91,13.42,65,10.2,298.4,337.6,300.8
925.5,845,18.7,17.1,90,13.36,65,10.2,298.3,337.4,300.7
925.0,850,18.6,17.0,90,13.26,65,10.2,298.4,337.1,300.7
924.9,851,18.6,16.9,90,13.25,65,10.3,298.4,337.1,300.7
924.3,856,18.6,16.8,89,13.17,66,10.3,298.4,336.9,300.8
923.8,861,18.6,16.8,89,13.11,66,10.4,298.4,336.7,300.8
923.2,867,18.6,16.7,89,13.06,66,10.4,298.4,336.6,300.8
922.6,872,18.5,16.6,89,13.03,66,10.5,298.5,336.5,300.8
922.1,877,18.5,16.6,89,13.02,66,10.5,298.5,336.5,300.8
921.5,882,18.4,16.6,89,13.02,66,10.6,298.5,336.5,300.8
921.0,887,18.4,16.6,89,13.02,66,10.6,298.4,336.5,300.8
920.5,892,18.3,16.5,89,12.95,66,10.7,298.4,336.3,300.8
920.0,897,18.3,16.4,89,12.88,66,10.8,298.5,336.1,300.8
919.5,901,18.3,16.3,88,12.80,66,10.8,298.5,335.9,300.8
919.0,906,18.2,16.3,88,12.78,66,10.9,298.5,335.9,300.8
918.5,910,18.2,16.3,89,12.77,66,10.9,298.5,335.9,300.8
918.0,915,18.2,16.2,88,12.72,66,11.0,298.5,335.7,300.8
917.6,919,18.1,16.1,88,12.63,67,11.0,298.5,335.5,300.8
917.1,924,18.1,16.0,87,12.55,67,11.1,298.5,335.3,300.8
916.6,928,18.1,15.9,87,12.53,67,11.1,298.5,335.2,300.8
916.1,933,18.0,15.9,87,12.48,67,11.2,298.6,335.1,300.8
915.6,937,18.0,15.7,87,12.38,67,11.2,298.6,334.8,300.8
915.1,942,18.0,15.6,86,12.31,67,11.2,298.6,334.6,300.8
914.6,947,18.0,15.6,86,12.24,67,11.2,298.6,334.5,300.8
914.1,952,17.9,15.5,86,12.19,67,11.2,298.6,334.4,300.8
913.5,958,17.9,15.4,85,12.15,68,11.2,298.7,334.3,300.9
912.9,963,17.9,15.4,85,12.14,68,11.2,298.7,334.3,300.9
912.3,969,17.8,15.3,85,12.06,68,11.2,298.7,334.0,300.9
911.7,974,17.8,15.0,84,11.87,68,11.2,298.7,333.5,300.8
911.1,980,17.8,14.8,83,11.68,69,11.2,298.8,333.0,300.9
910.5,985,17.8,14.6,82,11.57,69,11.2,298.8,332.8,300.9
910.0,991,17.7,14.5,82,11.52,69,11.2,298.8,332.6,300.9
909.4,996,17.7,14.5,81,11.49,69,11.2,298.9,332.6,300.9
908.9,1001,17.7,14.5,82,11.50,70,11.2,298.9,332.6,301.0
908.3,1006,17.7,14.5,82,11.53,70,11.1,298.9,332.8,301.0
907.8,1011,17.6,14.6,83,11.58,70,11.1,298.9,332.9,301.0
907.3,1016,17.5,14.6,83,11.61,71,11.1,298.9,333.0,301.0
906.7,1021,17.5,14.6,83,11.63,71,11.1,298.9,333.0,301.0
906.2,1026,17.4,14.6,84,11.63,71,11.1,298.9,333.0,301.0
905.8,1030,17.4,14.6,84,11.64,71,11.1,298.9,333.0,300.9
905.3,1035,17.3,14.7,84,11.66,71,11.2,298.9,333.1,301.0
904.8,1039,17.3,14.6,84,11.66,72,11.2,298.9,333.1,301.0
904.4,1043,17.3,14.6,84,11.60,72,11.2,298.9,332.9,301.0
903.9,1048,17.3,14.4,83,11.49,72,11.2,298.9,332.6,301.0
903.5,1052,17.3,14.3,83,11.40,72,11.3,298.9,332.4,301.0
903.0,1057,17.2,14.2,82,11.35,72,11.3,299.0,332.3,301.0
902.5,1062,17.2,14.2,82,11.32,72,11.4,299.0,332.3,301.0
901.9,1067,17.2,14.1,82,11.28,72,11.4,299.0,332.2,301.1
901.3,1072,17.2,14.0,82,11.24,71,11.5,299.1,332.1,301.1
900.8,1078,17.1,14.0,82,11.21,71,11.6,299.1,332.0,301.1
900.2,1083,17.1,14.0,82,11.21,71,11.7,299.1,332.0,301.1
899.6,1089,17.0,14.1,83,11.30,71,11.7,299.1,332.3,301.1
899.0,1095,17.0,14.3,84,11.46,70,11.8,299.1,332.8,301.2
898.4,1101,17.0,14.4,85,11.58,70,11.9,299.1,333.1,301.2
897.8,1106,16.9,14.4,85,11.60,70,12.0,299.1,333.2,301.2
897.2,1112,16.9,14.4,85,11.54,70,12.1,299.2,333.1,301.3
896.6,1118,16.9,14.2,84,11.45,69,12.2,299.2,332.9,301.3
896.0,1123,16.9,14.1,84,11.36,69,12.3,299.3,332.7,301.3
895.4,1129,16.9,14.0,83,11.26,69,12.4,299.3,332.4,301.3
894.9,1134,16.8,13.8,82,11.14,69,12.5,299.3,332.1,301.3
894.3,1139,16.8,13.6,81,11.00,69,12.6,299.4,331.8,301.4
893.8,1144,16.8,13.4,80,10.86,69,12.7,299.4,331.4,301.4
893.2,1150,16.8,13.3,79,10.78,68,12.8,299.5,331.2,301.4
892.7,1155,16.8,13.2,79,10.75,68,12.9,299.5,331.2,301.4
892.2,1160,16.7,13.2,80,10.75,68,12.9,299.5,331.2,301.4
891.7,1164,16.7,13.2,80,10.75,68,13.0,299.5,331.2,301.4
891.2,1169,16.7,13.2,80,10.74,68,13.1,299.5,331.2,301.4
890.7,1174,16.6,13.2,80,10.74,68,13.2,299.5,331.2,301.5
890.2,1178,16.6,13.2,80,10.74,68,13.3,299.5,331.2,301.5
889.8,1183,16.6,13.1,80,10.74,68,13.4,299.5,331.2,301.5
889.3,1187,16.5,13.1,80,10.70,68,13.4,299.5,331.1,301.5
888.9,1191,16.5,13.0,80,10.67,68,13.5,299.6,331.0,301.5
888.4,1196,16.5,13.0,80,10.64,68,13.6,299.6,331.0,301.5
888.0,1200,16.4,12.9,80,10.62,68,13.6,299.6,330.9,301.5
887.5,1205,16.4,12.9,80,10.60,68,13.7,299.6,330.9,301.5
887.0,1210,16.5,13.0,80,10.64,68,13.8,299.7,331.1,301.6
886.4,1215,16.5,13.1,80,10.73,68,13.8,299.8,331.4,301.7
885.9,1220,16.4,13.2,81,10.82,68,13.9,299.8,331.7,301.7
885.4,1225,16.4,13.3,82,10.88,68,13.9,299.7,331.8,301.7
884.9,1230,16.3,13.4,83,10.95,68,14.0,299.7,332.0,301.7
884.4,1235,16.3,13.5,84,11.05,68,14.0,299.7,332.3,301.7
883.9,1239,16.2,13.6,85,11.15,68,14.1,299.7,332.6,301.8
883.4,1244,16.2,13.7,85,11.19,68,14.1,299.8,332.7,301.8
882.9,1249,16.1,13.6,85,11.14,68,14.1,299.8,332.6,301.8
882.4,1254,16.1,13.4,84,10.98,67,14.1,299.8,332.2,301.8
881.9,1258,16.1,13.0,82,10.76,67,14.2,299.8,331.6,301.8
881.4,1263,16.1,12.8,81,10.61,67,14.2,299.9,331.2,301.8
880.9,1268,16.1,12.9,82,10.71,67,14.2,299.9,331.5,301.9
880.3,1274,16.1,13.4,84,11.05,66,14.2,299.9,332.6,301.9
879.8,1279,16.0,14.1,89,11.57,66,14.2,299.9,334.0,302.0
879.3,1284,15.9,14.7,93,12.04,65,14.2,299.9,335.3,302.0
878.7,1289,15.8,15.0,95,12.27,65,14.3,299.8,335.9,302.0
878.2,1294,15.7,15.0,96,12.33,65,14.3,299.8,336.1,302.0
877.7,1300,15.7,15.1,96,12.42,64,14.3,299.8,336.4,302.0
877.1,1305,15.6,15.2,97,12.49,64,14.3,299.8,336.6,302.1
876.6,1310,15.6,15.2,98,12.51,64,14.3,299.8,336.6,302.1
876.1,1315,15.6,15.2,98,12.52,63,14.3,299.8,336.6,302.1
875.6,1320,15.6,15.2,98,12.52,63,14.3,299.9,336.7,302.1
875.1,1325,15.6,15.2,97,12.49,63,14.3,299.9,336.7,302.2
874.5,1330,15.6,15.1,97,12.41,62,14.3,300.0,336.6,302.3
874.0,1335,15.6,14.9,95,12.27,62,14.3,300.1,336.2,302.3
873.5,1340,15.6,14.6,94,12.09,62,14.3,300.1,335.8,302.3
873.0,1345,15.6,14.5,93,11.95,61,14.4,300.2,335.5,302.4
872.5,1350,15.6,14.4,92,11.91,61,14.4,300.3,335.4,302.4
872.0,1355,15.6,14.4,92,11.91,61,14.4,300.3,335.4,302.4
871.5,1360,15.6,14.4,93,11.92,61,14.4,300.3,335.5,302.5
871.0,1365,15.6,14.4,93,11.90,61,14.5,300.3,335.4,302.5
870.4,1370,15.5,14.3,92,11.84,61,14.5,300.3,335.3,302.5
869.9,1375,15.5,14.1,92,11.73,60,14.6,300.3,335.0,302.5
869.4,1380,15.4,13.9,90,11.56,60,14.6,300.4,334.5,302.4
868.8,1386,15.4,13.7,89,11.38,60,14.7,300.4,334.0,302.5
868.3,1391,15.4,13.3,87,11.15,60,14.8,300.5,333.4,302.5
867.7,1397,15.5,13.1,86,10.99,60,14.9,300.6,333.1,302.6
867.1,1403,15.5,13.0,85,10.94,61,14.9,300.7,333.1,302.7
866.4,1409,15.5,13.0,85,10.96,61,15.0,300.7,333.2,302.7
865.8,1415,15.5,13.1,86,11.01,61,15.1,300.8,333.4,302.8
865.1,1422,15.4,13.2,87,11.08,61,15.2,300.8,333.6,302.8
864.5,1428,15.4,13.3,87,11.15,61,15.3,300.8,333.8,302.8
863.9,1434,15.3,13.3,88,11.21,61,15.4,300.8,334.0,302.8
863.3,1440,15.3,13.4,89,11.28,61,15.5,300.8,334.2,302.9
862.7,1446,15.3,13.3,88,11.23,62,15.6,300.9,334.1,302.9
862.2,1451,15.4,13.1,86,11.03,62,15.7,301.0,333.7,303.0
861.7,1456,15.5,12.8,84,10.86,62,15.7,301.2,333.4,303.2
861.2,1461,15.6,12.8,83,10.82,62,15.8,301.3,333.4,303.3
860.7,1466,15.5,12.8,84,10.82,62,15.9,301.3,333.4,303.3
860.2,1471,15.5,12.7,83,10.77,63,16.0,301.3,333.3,303.2
859.7,1476,15.5,12.5,82,10.65,63,16.0,301.4,333.0,303.3
859.2,1481,15.5,12.3,81,10.54,63,16.1,301.5,332.8,303.4
858.7,1486,15.5,12.3,81,10.52,63,16.1,301.5,332.8,303.4
858.2,1491,15.5,12.3,81,10.55,64,16.2,301.5,332.9,303.5
857.7,1495,15.5,12.5,82,10.65,64,16.2,301.6,333.2,303.5
857.3,1499,15.5,12.6,83,10.75,64,16.2,301.6,333.6,303.5
856.9,1503,15.4,12.7,84,10.86,64,16.2,301.6,333.9,303.6
856.5,1507,15.4,13.0,85,11.03,64,16.2,301.6,334.4,303.6
856.2,1511,15.4,13.2,87,11.21,65,16.2,301.6,334.9,303.6
855.8,1514,15.3,13.4,88,11.34,65,16.2,301.6,335.2,303.6
855.4,1518,15.3,13.6,90,11.50,65,16.2,301.6,335.7,303.7
855.0,1522,15.3,13.7,91,11.64,65,16.1,301.6,336.2,303.7
854.6,1526,15.2,13.8,91,11.68,65,16.1,301.6,336.3,303.7
854.1,1531,15.2,13.8,91,11.68,65,16.0,301.6,336.3,303.7
853.6,1536,15.1,13.7,91,11.64,65,16.0,301.6,336.2,303.7
853.1,1541,15.1,13.6,91,11.56,65,15.9,301.6,335.9,303.7
852.6,1546,15.1,13.6,91,11.55,65,15.9,301.6,335.9,303.7
852.1,1551,15.0,13.7,92,11.68,65,15.8,301.7,336.4,303.8
851.5,1557,15.0,13.9,93,11.80,65,15.7,301.7,336.7,303.8
851.0,1562,15.0,13.9,93,11.82,65,15.7,301.7,336.8,303.9
850.4,1568,15.0,13.8,93,11.74,65,15.6,301.8,336.6,303.9
850.0,1572,15.0,13.7,92,11.66,65,15.6,301.9,336.5,304.0
849.8,1574,15.1,13.6,91,11.62,65,15.5,301.9,336.5,304.0
849.2,1579,15.1,13.5,90,11.54,64,15.5,302.1,336.4,304.2
848.7,1585,15.1,13.4,90,11.50,64,15.4,302.1,336.3,304.2
848.2,1590,15.1,13.4,90,11.47,64,15.3,302.1,336.3,304.2
847.7,1595,15.1,13.4,90,11.46,64,15.3,302.1,336.3,304.2
847.2,1600,15.0,13.4,90,11.47,63,15.2,302.2,336.3,304.2
846.8,1604,15.0,13.4,90,11.49,63,15.2,302.2,336.4,304.3
846.4,1608,15.0,13.4,90,11.47,63,15.1,302.2,336.4,304.3
845.9,1613,15.0,13.3,89,11.40,63,15.1,302.2,336.2,304.3
845.5,1617,15.0,13.0,88,11.22,62,15.0,302.3,335.7,304.3
845.0,1622,15.0,12.6,86,10.95,62,15.0,302.3,335.0,304.3
844.5,1627,15.0,12.2,83,10.64,62,15.0,302.4,334.2,304.4
844.1,1631,15.1,11.9,81,10.44,61,14.9,302.5,333.7,304.4
843.6,1636,15.1,11.8,81,10.40,61,14.9,302.6,333.6,304.5
843.1,1641,15.1,12.0,82,10.48,60,14.9,302.6,333.9,304.5
842.6,1646,15.0,12.1,83,10.62,60,14.9,302.6,334.3,304.5
842.1,1651,15.0,12.3,84,10.75,60,14.9,302.6,334.7,304.6
841.7,1655,14.9,12.3,84,10.71,59,14.8,302.6,334.6,304.6
841.3,1660,14.9,11.7,81,10.31,59,14.8,302.6,333.4,304.5
840.8,1664,15.0,10.8,76,9.75,59,14.8,302.8,332.0,304.5
840.4,1668,15.0,10.4,74,9.46,58,14.8,302.9,331.2,304.6
840.0,1672,15.0,10.4,74,9.48,58,14.8,302.9,331.4,304.6
839.6,1677,15.0,10.5,75,9.57,57,14.8,302.9,331.6,304.7
839.1,1682,15.0,10.7,75,9.65,57,14.8,303.0,331.9,304.7
838.6,1687,15.0,10.7,76,9.71,57,14.8,303.0,332.1,304.7
838.0,1692,14.9,10.8,76,9.74,56,14.8,303.0,332.2,304.8
837.5,1698,14.9,10.8,77,9.76,56,14.8,303.0,332.3,304.8
836.9,1704,14.8,10.8,77,9.80,56,14.8,303.0,332.4,304.8
836.3,1710,14.8,10.8,77,9.80,55,14.8,303.0,332.4,304.8
835.7,1716,14.7,10.8,77,9.78,55,14.8,303.0,332.3,304.8
835.1,1722,14.7,10.7,77,9.73,55,14.8,303.0,332.2,304.8
834.5,1728,14.6,10.6,77,9.68,54,14.9,303.0,332.1,304.8
834.0,1733,14.6,10.5,76,9.60,54,14.9,303.1,331.9,304.8
833.5,1738,14.6,10.2,75,9.45,54,14.9,303.1,331.5,304.8
833.0,1743,14.6,9.9,73,9.24,54,14.9,303.2,330.9,304.8
832.5,1748,14.6,9.7,72,9.10,54,14.9,303.2,330.6,304.9
832.0,1753,14.6,9.6,72,9.08,54,14.9,303.2,330.5,304.9
831.6,1758,14.5,9.7,73,9.11,54,14.9,303.2,330.6,304.9
831.1,1763,14.5,9.7,73,9.14,54,14.9,303.3,330.7,304.9
830.6,1767,14.5,9.7,73,9.16,54,14.9,303.3,330.8,304.9
830.2,1772,14.4,9.8,74,9.17,55,14.9,303.3,330.8,304.9
829.7,1777,14.4,9.8,74,9.20,55,14.9,303.3,331.0,305.0
829.3,1781,14.4,9.8,74,9.23,55,14.8,303.3,331.1,305.0
828.8,1786,14.3,9.8,74,9.25,56,14.8,303.3,331.1,305.0
828.3,1791,14.3,9.8,74,9.20,56,14.8,303.4,331.0,305.0
827.8,1796,14.3,9.6,73,9.08,57,14.8,303.4,330.7,305.1
827.3,1801,14.3,9.4,72,8.98,57,14.8,303.4,330.5,305.1
826.8,1807,14.3,9.3,72,8.95,58,14.8,303.5,330.4,305.1
826.2,1812,14.3,9.4,73,8.99,58,14.8,303.5,330.6,305.2
825.7,1818,14.2,9.5,73,9.06,59,14.8,303.5,330.8,305.2
825.1,1824,14.2,9.6,74,9.13,59,14.8,303.6,331.0,305.2
824.6,1829,14.1,9.6,74,9.16,60,14.8,303.6,331.1,305.2
824.0,1835,14.1,9.6,74,9.14,60,14.8,303.6,331.1,305.2
823.5,1840,14.0,9.6,74,9.13,61,14.8,303.6,331.1,305.2
823.0,1845,14.0,9.6,75,9.13,61,14.8,303.6,331.1,305.3
822.5,1850,14.0,9.6,75,9.15,62,14.8,303.6,331.1,305.3
822.1,1855,13.9,9.6,75,9.18,62,14.8,303.6,331.2,305.3
821.6,1860,13.9,9.7,76,9.22,62,14.8,303.6,331.4,305.3
821.2,1864,13.8,9.6,76,9.18,62,14.8,303.6,331.3,305.3
820.7,1869,13.8,9.3,74,9.01,63,14.8,303.7,330.8,305.3
820.3,1873,13.9,8.7,71,8.66,63,14.8,303.7,329.9,305.3
819.9,1877,14.0,8.0,67,8.23,63,14.8,303.9,328.8,305.4
