PRES,HGHT,TEMP,DWPT,RELH,MIXR,DRCT,SPED,THTA,THTE,THTV
1006.6,31,26.9,14.7,47,10.49,198,6.4,299.5,330.5,301.4
1005.5,40,25.7,13.1,46,9.48,194,3.5,298.4,326.3,300.1
1004.9,46,25.5,13.1,46,9.48,192,3.3,298.3,326.2,300.0
1004.4,50,25.6,13.2,46,9.55,191,3.4,298.4,326.5,300.1
1003.9,54,25.5,13.1,46,9.46,191,3.7,298.3,326.2,300.0
1003.1,62,25.3,12.9,46,9.35,191,4.0,298.2,325.7,299.9
1002.5,66,25.2,12.9,46,9.37,191,4.3,298.2,325.8,299.8
1001.9,71,25.2,12.9,46,9.38,191,4.5,298.2,325.8,299.9
1001.3,77,25.2,12.9,46,9.37,190,4.7,298.2,325.9,299.9
1000.6,83,25.2,12.9,46,9.37,190,4.9,298.3,325.9,300.0
1000.0,88,25.1,12.8,46,9.33,190,4.9,298.3,325.8,300.0
999.3,95,25.0,12.8,46,9.31,190,5.3,298.2,325.7,299.9
998.6,101,25.0,12.9,47,9.37,190,5.5,298.3,325.9,300.0
997.9,107,25.0,12.8,47,9.35,190,5.6,298.3,325.8,300.0
997.1,113,24.8,12.6,47,9.24,190,5.7,298.2,325.4,299.9
996.4,120,24.8,12.7,47,9.28,190,5.9,298.2,325.6,299.9
995.7,126,24.7,12.6,47,9.26,190,6.0,298.2,325.5,299.9
995.0,133,24.5,12.3,46,9.07,190,6.0,298.1,324.8,299.7
994.2,139,24.4,12.2,46,8.99,190,6.1,298.0,324.5,299.7
993.5,146,24.4,12.3,47,9.09,190,6.2,298.1,324.8,299.7
992.7,152,24.3,12.4,47,9.16,190,6.2,298.1,325.0,299.7
992.0,159,24.3,12.6,48,9.26,191,6.2,298.1,325.4,299.8
991.2,166,24.3,12.7,48,9.33,191,6.2,298.2,325.6,299.8
990.4,173,24.2,12.7,49,9.38,192,6.3,298.2,325.8,299.9
989.7,179,24.3,12.9,49,9.50,192,6.3,298.3,326.3,300.0
988.9,186,24.2,12.9,49,9.49,193,6.2,298.3,326.2,300.0
988.1,193,24.1,12.8,49,9.45,194,6.2,298.3,326.1,300.0
987.3,200,24.1,12.9,49,9.50,194,6.2,298.4,326.3,300.1
986.5,207,24.1,12.9,50,9.53,195,6.2,298.4,326.5,300.1
985.8,214,24.0,12.8,50,9.48,196,6.2,298.3,326.3,300.0
985.0,221,23.9,12.8,50,9.47,197,6.2,298.3,326.2,300.0
984.2,228,23.8,12.9,50,9.52,198,6.2,298.3,326.3,300.0
983.5,234,23.8,12.9,50,9.52,199,6.2,298.3,326.4,300.0
982.8,241,23.7,12.8,50,9.49,201,6.1,298.3,326.3,300.0
982.1,247,23.7,12.8,51,9.50,202,6.1,298.3,326.3,300.0
981.4,253,23.6,12.8,51,9.53,203,6.1,298.4,326.4,300.1
980.7,259,23.6,12.8,51,9.52,204,6.1,298.4,326.4,300.1
980.1,264,23.6,12.8,51,9.53,205,6.2,298.4,326.5,300.2
979.5,269,23.5,12.8,51,9.54,206,6.2,298.5,326.5,300.2
979.0,275,23.4,12.7,51,9.48,207,6.2,298.4,326.3,300.1
978.4,280,23.3,12.6,51,9.41,208,6.2,298.3,326.0,300.0
977.8,284,23.2,12.6,51,9.38,209,6.2,298.2,325.8,299.9
977.3,289,23.0,12.5,52,9.37,210,6.2,298.1,325.7,299.8
976.8,294,22.9,12.4,52,9.32,211,6.2,298.0,325.5,299.7
976.3,298,22.8,12.4,52,9.31,212,6.2,298.0,325.4,299.7
975.9,302,22.9,12.5,52,9.37,213,6.2,298.1,325.7,299.8
975.4,306,22.9,12.5,52,9.39,213,6.3,298.2,325.8,299.9
975.0,310,22.8,12.4,52,9.32,214,6.3,298.1,325.5,299.8
974.6,313,22.6,12.4,52,9.29,215,6.3,298.0,325.3,299.6
974.2,317,22.6,12.4,53,9.31,215,6.3,297.9,325.3,299.6
973.9,320,22.5,12.4,53,9.33,216,6.3,297.9,325.3,299.6
973.5,323,22.5,12.4,53,9.34,216,6.3,297.9,325.4,299.6
973.1,327,22.5,12.4,53,9.35,217,6.2,297.9,325.4,299.6
972.7,330,22.5,12.5,53,9.38,217,6.2,297.9,325.5,299.6
972.3,334,22.5,12.5,53,9.41,218,6.2,298.0,325.7,299.7
971.8,338,22.5,12.5,53,9.43,218,6.2,298.1,325.8,299.7
971.4,342,22.4,12.5,53,9.41,218,6.2,298.0,325.7,299.7
970.9,347,22.3,12.5,54,9.40,219,6.2,298.0,325.6,299.7
970.4,351,22.2,12.5,54,9.42,219,6.2,297.9,325.6,299.6
969.9,356,22.2,12.5,54,9.44,220,6.2,298.0,325.7,299.6
969.3,360,22.2,12.5,54,9.45,220,6.1,298.0,325.8,299.7
968.8,365,22.3,12.5,54,9.43,220,6.1,298.1,325.9,299.8
968.3,369,22.3,12.4,54,9.37,221,6.1,298.1,325.7,299.8
967.9,374,22.2,12.3,53,9.30,221,6.1,298.1,325.4,299.7
967.4,378,22.0,12.2,54,9.26,222,6.1,298.0,325.2,299.7
966.9,382,22.0,12.2,54,9.26,222,6.1,298.0,325.2,299.6
966.4,387,21.9,12.3,54,9.33,222,6.1,297.9,325.4,299.6
965.9,391,21.8,12.3,55,9.32,223,6.1,297.9,325.3,299.6
965.4,396,21.8,12.1,54,9.22,224,6.1,297.9,325.1,299.6
964.9,401,21.8,11.8,53,9.04,224,6.1,298.0,324.6,299.6
964.3,406,21.8,11.5,52,8.89,225,6.2,298.0,324.2,299.6
963.7,411,21.8,11.4,52,8.84,225,6.2,298.1,324.2,299.7
963.1,416,21.8,11.5,52,8.85,226,6.2,298.1,324.2,299.7
962.5,422,21.7,11.5,52,8.86,227,6.2,298.1,324.2,299.7
961.9,428,21.7,11.5,52,8.89,227,6.3,298.1,324.3,299.7
961.2,434,21.6,11.5,53,8.92,228,6.3,298.1,324.4,299.7
960.6,439,21.5,11.6,53,8.98,229,6.3,298.1,324.5,299.7
960.0,445,21.4,11.7,54,9.01,230,6.4,298.0,324.6,299.7
959.3,451,21.4,11.7,54,9.05,230,6.4,298.0,324.7,299.7
958.7,456,21.3,11.8,55,9.11,231,6.5,298.0,324.9,299.7
958.2,461,21.2,11.9,55,9.16,232,6.5,298.0,325.0,299.6
957.6,466,21.2,11.9,55,9.17,232,6.5,298.0,325.0,299.6
957.1,471,21.1,11.8,55,9.14,233,6.6,298.0,324.9,299.6
956.5,476,21.1,11.8,55,9.13,234,6.6,298.0,324.9,299.7
956.0,481,21.1,11.8,55,9.14,234,6.7,298.0,324.9,299.7
955.5,485,21.0,11.8,56,9.15,235,6.7,298.0,325.0,299.7
955.0,490,21.0,11.8,56,9.15,236,6.8,298.0,324.9,299.7
954.5,494,21.0,11.8,56,9.13,236,6.8,298.0,324.9,299.7
954.0,499,20.9,11.8,56,9.12,237,6.8,298.0,324.9,299.7
953.5,503,20.9,11.7,56,9.09,237,6.9,298.1,324.8,299.7
953.0,508,20.8,11.6,56,9.06,238,6.9,298.1,324.7,299.7
952.6,512,20.8,11.6,55,9.02,238,6.9,298.1,324.6,299.7
952.1,517,20.8,11.5,55,9.00,238,7.0,298.1,324.6,299.7
951.6,521,20.7,11.5,55,8.99,239,7.0,298.1,324.5,299.7
951.0,526,20.7,11.5,56,8.98,239,7.0,298.1,324.6,299.7
950.5,531,20.7,11.5,56,9.00,239,7.1,298.1,324.6,299.7
950.0,535,20.6,11.6,56,9.05,239,7.1,298.1,324.8,299.7
949.4,540,20.5,11.7,57,9.10,240,7.1,298.1,324.9,299.7
948.9,545,20.5,11.7,57,9.13,240,7.1,298.1,324.9,299.7
948.4,550,20.4,11.6,57,9.07,240,7.1,298.1,324.8,299.7
947.8,555,20.4,11.4,56,8.96,240,7.2,298.1,324.5,299.7
947.3,560,20.4,11.2,55,8.83,240,7.2,298.1,324.1,299.7
946.8,565,20.4,11.0,55,8.73,240,7.2,298.2,323.9,299.7
946.2,569,20.4,11.1,55,8.80,240,7.2,298.2,324.1,299.8
945.7,574,20.3,11.3,56,8.95,240,7.2,298.2,324.5,299.8
945.2,579,20.2,11.4,57,9.02,240,7.2,298.1,324.7,299.7
944.7,584,20.2,11.4,57,9.00,241,7.2,298.1,324.6,299.7
944.2,589,20.1,11.4,57,8.99,241,7.2,298.1,324.6,299.7
943.6,593,20.1,11.4,57,8.98,241,7.2,298.1,324.6,299.7
943.1,598,20.0,11.4,57,8.98,241,7.2,298.1,324.6,299.7
942.6,602,20.0,11.4,58,8.99,241,7.2,298.1,324.6,299.7
942.1,607,19.9,11.3,57,8.94,241,7.2,298.1,324.5,299.7
941.6,612,19.9,11.1,57,8.83,241,7.2,298.2,324.2,299.7
941.1,616,19.9,10.8,56,8.67,241,7.1,298.2,323.8,299.8
940.6,621,19.9,10.7,55,8.61,241,7.1,298.2,323.6,299.8
940.1,626,19.9,10.7,55,8.60,241,7.1,298.2,323.6,299.8
939.5,631,19.9,10.6,55,8.59,241,7.0,298.3,323.6,299.8
938.9,636,19.8,10.6,55,8.58,241,6.9,298.3,323.6,299.8
938.3,642,19.8,10.5,55,8.54,241,6.9,298.3,323.5,299.8
937.7,647,19.7,10.4,55,8.47,241,6.8,298.3,323.3,299.8
937.1,653,19.7,10.4,55,8.45,242,6.7,298.3,323.3,299.8
936.4,659,19.6,10.4,55,8.48,242,6.6,298.3,323.4,299.9
935.8,665,19.6,10.4,55,8.47,242,6.5,298.3,323.4,299.9
935.1,671,19.5,10.3,55,8.45,242,6.4,298.3,323.3,299.9
934.5,677,19.5,10.3,55,8.44,242,6.3,298.3,323.3,299.9
933.9,683,19.4,10.3,56,8.45,242,6.2,298.3,323.3,299.9
933.2,689,19.3,10.3,56,8.47,242,6.1,298.3,323.3,299.8
932.6,695,19.3,10.3,56,8.48,242,6.0,298.3,323.4,299.9
932.0,701,19.3,10.3,56,8.49,242,5.8,298.3,323.4,299.9
931.3,706,19.2,10.4,57,8.51,242,5.7,298.3,323.5,299.9
930.7,712,19.1,10.4,57,8.54,242,5.6,298.3,323.6,299.9
930.1,718,19.1,10.4,57,8.54,242,5.5,298.3,323.6,299.9
929.5,723,19.0,10.4,57,8.52,242,5.4,298.3,323.5,299.9
928.9,729,19.0,10.3,57,8.50,242,5.2,298.4,323.5,299.9
928.4,734,18.9,10.4,58,8.54,242,5.1,298.3,323.5,299.9
927.8,739,18.8,10.6,59,8.65,241,5.0,298.3,323.8,299.9
927.3,744,18.7,10.7,59,8.74,241,4.9,298.3,324.0,299.8
926.7,749,18.7,10.7,60,8.76,241,4.8,298.2,324.1,299.8
926.2,754,18.6,10.7,60,8.76,241,4.7,298.2,324.1,299.8
925.6,759,18.6,10.7,60,8.76,241,4.6,298.2,324.1,299.8
925.1,764,18.5,10.7,60,8.77,241,4.5,298.2,324.1,299.8
925.0,765,18.5,10.7,60,8.77,241,4.4,298.2,324.1,299.8
924.5,770,18.5,10.7,61,8.77,241,4.4,298.2,324.1,299.8
923.9,775,18.4,10.7,61,8.76,241,4.3,298.2,324.1,299.8
923.4,780,18.4,10.7,61,8.77,241,4.2,298.2,324.1,299.8
922.8,785,18.3,10.7,61,8.76,241,4.2,298.3,324.1,299.8
922.3,790,18.3,10.6,61,8.75,241,4.1,298.3,324.1,299.8
921.7,796,18.2,10.6,61,8.75,241,4.1,298.2,324.1,299.8
921.1,801,18.2,10.6,61,8.74,241,4.0,298.3,324.0,299.8
920.6,806,18.1,10.6,61,8.73,242,4.0,298.3,324.0,299.8
920.0,811,18.1,10.6,62,8.75,242,3.9,298.3,324.1,299.8
919.4,817,18.1,10.7,62,8.83,243,3.9,298.3,324.3,299.9
918.9,822,18.0,10.9,63,8.92,243,3.9,298.3,324.6,299.9
918.3,827,18.0,10.9,63,8.94,244,3.9,298.3,324.6,299.9
917.7,833,17.9,10.9,63,8.95,244,3.9,298.3,324.7,299.9
917.2,838,17.9,10.9,64,8.95,245,3.9,298.3,324.7,299.9
916.6,843,17.8,11.0,64,9.01,245,3.9,298.3,324.8,299.9
916.0,849,17.7,11.0,64,9.01,246,3.9,298.3,324.8,299.9
915.4,854,17.7,10.8,64,8.92,247,4.0,298.3,324.6,299.9
914.8,860,17.7,10.7,64,8.87,247,4.0,298.3,324.4,299.9
914.2,865,17.6,10.7,64,8.90,248,4.0,298.3,324.5,299.9
913.6,871,17.6,10.8,64,8.92,249,4.1,298.3,324.6,299.9
912.9,878,17.5,10.8,65,8.92,249,4.1,298.3,324.6,299.9
912.3,884,17.5,10.9,65,8.98,250,4.2,298.3,324.8,299.9
911.6,890,17.4,11.0,66,9.09,251,4.2,298.3,325.1,299.9
910.8,897,17.3,11.1,67,9.15,251,4.2,298.3,325.2,299.9
910.1,904,17.2,11.0,67,9.11,252,4.3,298.3,325.1,299.9
909.4,911,17.1,10.8,66,9.00,252,4.3,298.3,324.8,299.9
908.7,917,17.1,10.7,66,8.94,253,4.4,298.3,324.6,299.9
908.0,924,17.0,10.7,66,8.93,253,4.4,298.3,324.6,299.9
907.3,930,17.0,10.7,67,8.95,254,4.5,298.3,324.7,299.9
906.6,937,16.9,10.7,67,8.94,254,4.5,298.3,324.6,299.9
906.0,943,16.8,10.7,67,8.95,255,4.5,298.3,324.7,299.9
905.3,949,16.8,10.7,67,8.96,255,4.5,298.3,324.7,299.9
904.7,955,16.7,10.6,67,8.89,255,4.6,298.3,324.5,299.9
904.0,961,16.7,10.4,66,8.76,256,4.6,298.3,324.2,299.9
903.4,968,16.7,10.1,65,8.61,256,4.6,298.3,323.8,299.9
902.7,974,16.7,9.8,64,8.46,256,4.6,298.4,323.4,299.9
902.0,980,16.6,9.7,64,8.41,257,4.6,298.4,323.3,299.9
901.3,987,16.6,9.8,64,8.49,257,4.5,298.5,323.5,300.0
900.6,994,16.5,10.0,65,8.57,257,4.5,298.4,323.7,300.0
899.9,1000,16.4,9.9,65,8.56,258,4.5,298.4,323.7,300.0
899.2,1007,16.4,9.9,65,8.53,258,4.4,298.4,323.6,300.0
898.5,1013,16.3,9.7,65,8.46,258,4.4,298.4,323.4,300.0
897.8,1020,16.3,9.6,65,8.38,259,4.4,298.5,323.2,300.0
897.2,1026,16.2,9.5,64,8.34,259,4.3,298.5,323.2,300.0
896.5,1033,16.2,9.6,65,8.39,259,4.3,298.5,323.3,300.0
895.8,1039,16.1,9.8,66,8.52,260,4.3,298.5,323.7,300.0
895.2,1045,16.0,9.9,67,8.60,260,4.2,298.5,323.9,300.0
894.5,1051,16.0,9.9,67,8.58,261,4.2,298.5,323.8,300.0
893.9,1057,15.9,9.7,67,8.50,261,4.2,298.5,323.6,300.0
893.2,1063,15.9,9.7,67,8.51,261,4.1,298.5,323.6,300.0
892.6,1070,15.8,9.9,68,8.59,261,4.1,298.5,323.9,300.0
892.0,1076,15.7,9.9,68,8.63,262,4.1,298.4,323.9,300.0
891.4,1081,15.6,9.8,68,8.58,262,4.0,298.4,323.8,300.0
890.7,1087,15.6,9.7,68,8.49,262,4.0,298.5,323.6,300.0
890.1,1093,15.6,9.5,67,8.40,262,4.0,298.5,323.3,300.0
889.5,1099,15.6,9.4,67,8.36,262,4.0,298.5,323.3,300.0
888.8,1105,15.5,9.5,67,8.40,262,4.0,298.6,323.4,300.1
888.2,1112,15.5,9.6,68,8.46,262,4.0,298.6,323.6,300.1
887.5,1119,15.4,9.6,68,8.50,262,4.0,298.6,323.7,300.1
886.8,1125,15.3,9.6,69,8.50,262,4.0,298.6,323.7,300.1
886.0,1132,15.3,9.6,69,8.52,261,4.0,298.6,323.8,300.1
885.3,1139,15.2,9.7,69,8.55,261,4.0,298.6,323.8,300.1
884.6,1146,15.2,9.6,69,8.52,261,4.0,298.6,323.8,300.1
884.0,1152,15.1,9.6,69,8.49,261,4.0,298.6,323.7,300.1
883.3,1158,15.1,9.6,70,8.50,260,4.0,298.6,323.7,300.1
882.7,1164,15.0,9.6,70,8.55,260,4.0,298.6,323.9,300.1
882.1,1170,14.9,9.8,71,8.65,260,4.0,298.6,324.2,300.2
881.5,1176,14.9,9.9,72,8.72,260,4.0,298.6,324.3,300.2
880.9,1181,14.8,9.9,72,8.73,259,4.0,298.6,324.4,300.2
880.4,1187,14.8,9.9,72,8.71,259,4.0,298.6,324.3,300.2
879.8,1192,14.7,9.9,73,8.72,259,4.0,298.6,324.3,300.2
879.2,1198,14.7,9.9,73,8.76,259,4.0,298.6,324.4,300.2
878.6,1204,14.6,10.0,74,8.79,259,4.0,298.6,324.6,300.2
878.0,1209,14.6,10.0,74,8.79,259,4.0,298.6,324.6,300.2
877.4,1215,14.5,9.9,74,8.77,259,4.0,298.6,324.5,300.2
876.9,1220,14.5,9.9,74,8.76,259,4.0,298.6,324.5,300.2
876.3,1226,14.4,9.8,74,8.74,259,4.0,298.6,324.4,300.2
875.7,1232,14.4,9.8,74,8.73,259,4.1,298.6,324.4,300.2
875.1,1237,14.4,9.8,74,8.74,260,4.1,298.7,324.5,300.2
874.5,1243,14.3,9.8,74,8.76,260,4.1,298.7,324.5,300.3
873.9,1249,14.3,9.9,75,8.77,260,4.2,298.7,324.6,300.3
873.3,1254,14.2,9.9,75,8.79,261,4.2,298.7,324.6,300.3
872.8,1260,14.1,9.9,76,8.80,261,4.2,298.7,324.6,300.2
872.2,1266,14.1,9.9,76,8.82,262,4.3,298.7,324.7,300.3
871.6,1271,14.0,10.0,76,8.85,262,4.4,298.7,324.8,300.3
871.1,1277,14.0,10.0,77,8.86,262,4.4,298.7,324.8,300.3
870.5,1282,14.0,9.9,76,8.85,263,4.5,298.8,324.9,300.4
869.9,1288,14.1,9.9,76,8.86,263,4.6,298.9,325.1,300.5
869.3,1294,14.1,9.9,76,8.86,263,4.7,299.0,325.2,300.6
868.7,1299,14.1,9.9,76,8.85,264,4.8,299.1,325.2,300.7
868.1,1305,14.1,9.9,76,8.83,264,4.9,299.1,325.2,300.7
867.5,1311,14.0,9.9,76,8.83,264,5.0,299.0,325.2,300.6
866.9,1317,13.9,9.9,77,8.86,264,5.1,299.0,325.2,300.6
866.4,1322,13.8,9.9,77,8.86,265,5.3,299.0,325.2,300.6
865.8,1328,13.8,9.8,77,8.80,265,5.4,299.0,325.0,300.6
865.2,1334,13.7,9.7,77,8.76,265,5.5,299.0,324.8,300.5
864.6,1339,13.6,9.7,77,8.77,265,5.6,298.9,324.9,300.5
864.1,1344,13.5,9.7,78,8.80,265,5.8,298.9,324.9,300.5
863.5,1350,13.5,9.7,78,8.79,265,5.9,298.9,324.9,300.5
863.0,1355,13.4,9.7,78,8.78,265,6.0,298.9,324.8,300.5
862.4,1361,13.3,9.7,79,8.79,265,6.2,298.8,324.8,300.4
861.8,1366,13.2,9.7,79,8.80,265,6.3,298.8,324.8,300.4
861.2,1372,13.1,9.7,80,8.80,265,6.4,298.8,324.8,300.4
860.6,1378,13.1,9.7,80,8.79,265,6.6,298.8,324.7,300.3
860.0,1385,13.0,9.6,80,8.76,265,6.7,298.7,324.6,300.3
859.3,1391,13.0,9.6,80,8.76,265,6.8,298.8,324.6,300.4
858.6,1398,12.9,9.6,80,8.79,265,6.9,298.8,324.8,300.4
858.0,1404,12.9,9.7,81,8.81,265,7.1,298.8,324.9,300.4
857.4,1410,12.9,9.6,81,8.79,265,7.2,298.9,324.8,300.5
856.8,1416,12.8,9.5,80,8.76,265,7.3,298.9,324.8,300.5
856.2,1422,12.8,9.5,81,8.75,265,7.4,298.9,324.7,300.5
855.7,1427,12.7,9.5,81,8.73,265,7.5,298.9,324.7,300.4
855.2,1432,12.6,9.5,81,8.73,265,7.6,298.8,324.6,300.4
854.7,1437,12.6,9.4,81,8.72,264,7.7,298.8,324.6,300.4
854.2,1441,12.5,9.4,81,8.71,264,7.8,298.8,324.5,300.4
853.7,1446,12.5,9.4,82,8.73,264,7.9,298.8,324.6,300.4
853.3,1450,12.5,9.5,82,8.77,264,8.0,298.9,324.8,300.5
852.8,1455,12.5,9.5,82,8.79,264,8.1,298.9,324.9,300.5
852.4,1459,12.4,9.5,83,8.80,264,8.2,298.8,324.8,300.4
852.0,1463,12.3,9.6,83,8.82,264,8.2,298.8,324.8,300.4
851.6,1467,12.2,9.5,84,8.81,264,8.3,298.8,324.8,300.3
851.2,1471,12.1,9.5,84,8.78,264,8.4,298.7,324.6,300.3
850.8,1475,12.2,9.4,83,8.76,264,8.5,298.8,324.6,300.4
850.3,1479,12.2,9.4,83,8.75,264,8.6,298.9,324.7,300.5
850.0,1483,12.2,9.4,83,8.75,264,8.6,298.9,324.8,300.5
849.9,1484,12.2,9.4,83,8.74,264,8.6,298.9,324.8,300.5
849.4,1489,12.2,9.4,83,8.74,264,8.7,299.0,324.8,300.5
848.8,1494,12.2,9.3,83,8.72,264,8.7,299.0,324.8,300.6
848.3,1500,12.1,9.3,83,8.68,264,8.8,299.0,324.7,300.6
847.7,1505,12.1,9.2,82,8.65,264,8.9,299.0,324.6,300.6
847.2,1511,12.1,9.2,82,8.63,264,8.9,299.1,324.6,300.6
846.6,1517,12.0,9.2,83,8.64,264,9.0,299.1,324.6,300.6
846.0,1523,12.0,9.2,83,8.65,264,9.0,299.1,324.7,300.6
845.4,1529,12.0,9.1,83,8.61,264,9.1,299.1,324.6,300.7
844.7,1535,12.0,8.8,81,8.45,264,9.1,299.2,324.3,300.7
844.1,1542,12.0,8.3,78,8.15,264,9.2,299.3,323.5,300.8
843.4,1548,12.1,7.7,74,7.85,264,9.2,299.5,322.9,300.9
842.7,1555,12.3,7.2,71,7.56,264,9.3,299.7,322.3,301.1
842.1,1562,12.4,6.9,69,7.42,264,9.3,299.9,322.1,301.3
841.4,1568,12.4,7.1,70,7.56,264,9.4,300.0,322.5,301.3
840.8,1574,12.3,7.8,74,7.90,264,9.5,299.9,323.4,301.4
840.2,1581,12.2,8.4,78,8.28,265,9.5,299.9,324.5,301.4
839.5,1587,12.1,8.6,79,8.38,265,9.6,299.9,324.8,301.4
838.9,1593,12.0,8.8,80,8.48,265,9.7,299.8,325.0,301.4
838.3,1599,11.9,9.1,83,8.70,265,9.8,299.8,325.6,301.4
837.8,1604,11.8,9.2,84,8.75,265,9.9,299.7,325.7,301.3
837.2,1610,11.7,8.9,83,8.59,265,10.0,299.7,325.2,301.3
836.7,1616,11.6,8.4,80,8.29,265,10.1,299.7,324.3,301.2
836.1,1621,11.6,7.6,76,7.84,266,10.2,299.7,323.0,301.1
835.6,1626,11.6,6.7,72,7.37,266,10.3,299.7,321.7,301.1
835.1,1631,11.7,6.2,69,7.14,266,10.4,299.9,321.2,301.2
834.6,1637,11.8,6.3,69,7.19,266,10.6,300.0,321.5,301.3
834.0,1642,11.7,6.3,69,7.17,266,10.7,300.1,321.5,301.4
833.5,1647,11.7,6.0,68,7.06,266,10.8,300.1,321.2,301.4
833.0,1653,11.7,6.1,68,7.08,266,11.0,300.1,321.3,301.4
832.4,1658,11.6,6.1,69,7.10,266,11.1,300.1,321.4,301.4
831.8,1664,11.6,6.0,69,7.07,266,11.3,300.1,321.3,301.4
831.3,1670,11.5,6.0,69,7.09,266,11.4,300.1,321.3,301.4
830.7,1675,11.5,6.1,70,7.13,266,11.5,300.1,321.4,301.4
830.2,1681,11.4,6.2,70,7.16,266,11.7,300.1,321.5,301.4
829.6,1686,11.4,6.2,71,7.19,266,11.8,300.1,321.6,301.4
829.1,1691,11.3,6.2,71,7.18,266,11.9,300.1,321.6,301.4
828.6,1696,11.3,6.1,71,7.16,265,12.0,300.1,321.5,301.4
828.1,1701,11.2,6.1,71,7.15,265,12.2,300.1,321.5,301.4
827.6,1706,11.2,6.1,71,7.15,265,12.3,300.1,321.5,301.4
827.1,1712,11.1,6.1,71,7.15,265,12.4,300.1,321.5,301.4
826.6,1717,11.1,6.1,71,7.15,264,12.5,300.1,321.5,301.4
826.1,1722,11.0,6.0,71,7.10,264,12.6,300.1,321.4,301.4
825.5,1728,11.0,5.8,70,7.04,263,12.7,300.2,321.2,301.4
824.9,1734,11.1,5.7,69,6.97,263,12.8,300.3,321.1,301.5
824.3,1740,11.1,5.5,69,6.90,262,13.0,300.4,321.1,301.6
823.7,1746,11.1,5.4,68,6.86,262,13.1,300.5,321.0,301.7
823.1,1752,11.1,5.3,67,6.79,261,13.2,300.5,320.9,301.7
822.5,1758,11.1,5.2,67,6.75,261,13.3,300.5,320.8,301.8
821.9,1764,11.1,5.1,66,6.70,260,13.5,300.6,320.8,301.8
821.4,1770,11.1,5.1,67,6.72,260,13.7,300.7,320.9,301.9
820.8,1776,11.0,5.2,67,6.75,259,13.8,300.6,320.9,301.8
820.3,1781,11.0,5.0,67,6.68,259,14.0,300.6,320.7,301.9
819.7,1787,11.0,4.8,65,6.60,258,14.2,300.8,320.6,302.0
819.1,1793,11.0,4.9,66,6.66,258,14.5,300.9,320.9,302.1
818.5,1799,10.9,5.1,68,6.76,258,14.7,300.8,321.1,302.0
817.9,1805,10.7,5.2,69,6.80,257,14.9,300.7,321.1,301.9
817.3,1811,10.6,5.1,69,6.77,257,15.2,300.6,321.0,301.9
816.7,1817,10.6,5.1,69,6.77,257,15.5,300.6,321.0,301.9
816.1,1823,10.5,5.1,69,6.77,256,15.7,300.6,321.0,301.8
815.5,1829,10.5,5.0,69,6.73,256,16.0,300.6,320.8,301.8
815.0,1835,10.4,4.8,68,6.63,256,16.3,300.6,320.6,301.8
814.5,1840,10.5,4.5,66,6.48,256,16.6,300.8,320.3,301.9
814.0,1845,10.7,4.1,64,6.31,256,16.9,301.0,320.1,302.2
813.5,1850,10.8,4.0,63,6.26,256,17.2,301.2,320.1,302.3
813.0,1855,10.7,4.1,63,6.32,256,17.5,301.2,320.3,302.3
812.5,1860,10.6,4.1,64,6.34,256,17.8,301.1,320.2,302.3
812.0,1865,10.6,3.8,63,6.21,256,18.1,301.2,319.9,302.3
811.5,1870,10.8,3.3,60,6.01,256,18.4,301.4,319.6,302.5
811.0,1876,11.0,3.2,59,5.93,256,18.7,301.6,319.6,302.7
810.5,1881,11.0,3.3,59,6.00,256,18.9,301.7,319.9,302.8
810.0,1886,10.9,3.5,60,6.07,256,19.2,301.7,320.0,302.8
809.5,1891,10.8,3.4,60,6.05,256,19.4,301.6,320.0,302.7
809.0,1896,10.8,3.3,60,5.99,256,19.6,301.7,319.9,302.8
808.5,1902,10.8,3.2,60,5.99,256,19.8,301.7,319.9,302.8
808.0,1907,10.8,3.3,60,6.01,256,20.0,301.7,320.0,302.8
807.5,1912,10.7,3.3,60,6.02,256,20.1,301.8,320.0,302.8
806.9,1918,10.7,3.3,60,6.00,256,20.3,301.8,320.0,302.9
806.4,1923,10.8,3.1,59,5.95,256,20.4,302.0,320.1,303.1
805.9,1929,11.0,3.0,57,5.89,256,20.5,302.3,320.2,303.3
805.3,1934,11.3,2.8,56,5.84,255,20.6,302.6,320.4,303.7
804.8,1939,11.5,2.8,55,5.82,255,20.7,302.9,320.7,304.0
804.3,1945,11.6,2.8,55,5.82,255,20.7,303.0,320.7,304.1
803.9,1950,11.5,2.8,55,5.82,255,20.8,302.9,320.7,304.0
803.4,1955,11.4,2.8,56,5.84,255,20.8,302.9,320.7,304.0
802.9,1959,11.3,2.9,56,5.87,254,20.8,302.9,320.8,303.9
802.5,1964,11.2,2.9,56,5.88,254,20.9,302.8,320.8,303.9
802.0,1969,11.2,2.9,56,5.88,254,20.9,302.9,320.8,304.0
801.6,1974,11.2,2.9,56,5.88,253,20.9,302.9,320.9,304.0
801.1,1978,11.2,2.8,56,5.87,253,20.9,303.0,320.9,304.1
800.7,1983,11.2,2.8,56,5.85,253,20.9,303.0,320.9,304.1
800.3,1987,11.2,2.7,56,5.84,252,20.9,303.1,320.9,304.1
799.8,1991,11.3,2.7,56,5.84,252,20.9,303.1,321.0,304.2
799.4,1996,11.2,2.7,56,5.84,252,20.9,303.2,321.0,304.2
799.0,2000,11.2,2.7,56,5.83,251,20.9,303.1,320.9,304.2
798.6,2005,11.2,2.7,56,5.81,251,20.9,303.2,321.0,304.3
798.1,2009,11.3,2.6,55,5.79,251,20.9,303.3,321.0,304.4
797.7,2014,11.3,2.5,55,5.75,250,20.9,303.4,321.0,304.5
797.2,2019,11.3,2.4,54,5.71,250,20.9,303.5,321.0,304.5
796.8,2023,11.3,2.3,54,5.68,250,20.9,303.5,320.9,304.5
