PRES,HGHT,TEMP,DWPT,RELH,MIXR,DRCT,SPED,THTA,THTE,THTV
1012.8,31,27.5,20.6,66,15.27,40,5.9,299.6,344.4,302.3
1012.5,33,27.5,20.9,67,15.54,41,3.3,299.6,345.2,302.4
1011.8,39,26.1,20.6,72,15.26,41,2.9,298.2,342.7,300.9
1011.3,43,25.5,20.5,74,15.20,41,3.0,297.7,341.9,300.4
1010.7,49,25.3,20.4,74,15.14,41,3.2,297.6,341.6,300.3
1010.2,54,25.3,20.3,74,14.96,41,3.4,297.6,341.1,300.2
1009.6,58,25.2,20.0,73,14.78,41,3.7,297.6,340.6,300.2
1009.0,63,25.2,19.9,72,14.63,41,3.9,297.6,340.2,300.2
1008.4,69,25.2,19.8,72,14.54,42,4.1,297.6,339.9,300.2
1007.8,74,25.2,19.7,72,14.51,42,4.2,297.7,339.9,300.3
1007.2,79,25.4,19.8,71,14.62,42,4.4,297.9,340.5,300.5
1006.6,84,25.5,19.9,71,14.68,42,4.5,298.1,340.9,300.7
1006.0,90,25.3,19.8,72,14.57,42,4.7,297.9,340.4,300.5
1005.4,95,25.0,19.6,72,14.43,42,4.8,297.7,339.7,300.3
1004.9,100,25.0,19.7,72,14.53,42,4.9,297.7,340.0,300.3
1004.3,105,24.9,19.7,73,14.57,42,5.1,297.7,340.2,300.3
1003.8,110,24.8,19.7,73,14.50,42,5.2,297.6,339.8,300.2
1003.2,115,24.7,19.6,73,14.43,42,5.2,297.6,339.6,300.1
1002.7,119,24.6,19.5,73,14.40,43,5.3,297.5,339.5,300.1
1002.1,124,24.6,19.5,73,14.41,43,5.4,297.6,339.5,300.1
1001.6,129,24.6,19.5,73,14.38,43,5.5,297.6,339.4,300.1
1001.1,133,24.5,19.4,73,14.33,43,5.5,297.6,339.3,300.1
1000.6,138,24.5,19.4,74,14.34,43,5.6,297.6,339.3,300.1
1000.1,142,24.4,19.4,74,14.36,43,5.6,297.6,339.4,300.1
1000.0,143,24.4,19.4,74,14.36,43,5.6,297.6,339.4,300.1
999.6,146,24.4,19.4,74,14.36,43,5.6,297.6,339.4,300.1
999.1,151,24.3,19.4,74,14.36,43,5.7,297.5,339.3,300.1
998.5,155,24.3,19.4,74,14.36,43,5.7,297.6,339.4,300.1
998.0,160,24.3,19.4,74,14.38,43,5.7,297.6,339.4,300.1
997.5,165,24.2,19.5,75,14.44,43,5.7,297.6,339.6,300.1
996.9,170,24.2,19.5,75,14.47,43,5.7,297.6,339.7,300.2
996.4,175,24.1,19.5,75,14.48,43,5.7,297.6,339.7,300.1
995.8,180,24.1,19.5,76,14.50,42,5.8,297.6,339.8,300.1
995.2,185,24.0,19.5,76,14.49,42,5.8,297.5,339.7,300.1
994.6,190,23.9,19.4,76,14.44,42,5.8,297.5,339.6,300.1
994.1,195,23.9,19.4,76,14.43,42,5.8,297.6,339.6,300.1
993.6,199,23.9,19.4,76,14.43,42,5.8,297.6,339.6,300.1
993.1,204,23.8,19.4,76,14.39,42,5.8,297.6,339.5,300.1
992.6,208,23.8,19.3,76,14.38,42,5.8,297.6,339.4,300.1
992.2,212,23.8,19.4,76,14.40,42,5.8,297.6,339.5,300.1
991.7,215,23.7,19.4,77,14.41,42,5.8,297.6,339.5,300.1
991.3,219,23.7,19.3,77,14.40,42,5.8,297.6,339.5,300.1
990.9,223,23.7,19.3,77,14.40,42,5.8,297.6,339.5,300.2
990.5,226,23.6,19.3,77,14.38,42,5.8,297.6,339.5,300.2
990.1,230,23.6,19.3,77,14.37,42,5.8,297.6,339.4,300.1
989.7,233,23.6,19.3,77,14.37,42,5.8,297.6,339.4,300.2
989.3,237,23.5,19.3,77,14.38,42,5.8,297.6,339.5,300.1
988.8,241,23.5,19.3,77,14.40,43,5.8,297.6,339.5,300.2
988.4,245,23.4,19.3,78,14.42,43,5.8,297.6,339.6,300.2
987.8,250,23.4,19.3,78,14.45,43,5.8,297.6,339.7,300.2
987.3,255,23.3,19.4,78,14.48,44,5.8,297.6,339.7,300.2
986.8,259,23.3,19.4,79,14.48,44,5.8,297.6,339.7,300.1
986.2,264,23.2,19.3,79,14.46,44,5.8,297.6,339.6,300.1
985.7,269,23.2,19.3,79,14.43,45,5.8,297.6,339.6,300.1
985.1,274,23.1,19.2,79,14.40,45,5.8,297.6,339.5,300.1
984.6,279,23.1,19.2,79,14.36,46,5.8,297.6,339.4,300.1
984.0,284,23.1,19.2,79,14.37,47,5.8,297.6,339.4,300.1
983.5,289,23.0,19.2,79,14.41,47,5.8,297.6,339.5,300.1
982.9,293,23.0,19.3,80,14.45,48,5.8,297.6,339.6,300.2
982.4,298,22.9,19.3,80,14.45,48,5.8,297.6,339.6,300.2
981.9,303,22.9,19.2,80,14.42,49,5.8,297.6,339.5,300.1
981.3,308,22.8,19.2,80,14.38,50,5.8,297.6,339.4,300.1
980.8,313,22.8,19.1,80,14.37,51,5.8,297.6,339.4,300.1
980.3,317,22.8,19.2,80,14.39,51,5.8,297.6,339.5,300.2
979.7,322,22.7,19.2,81,14.43,52,5.8,297.6,339.6,300.2
979.2,327,22.7,19.2,81,14.46,53,5.9,297.6,339.7,300.2
978.6,332,22.6,19.2,81,14.42,53,5.9,297.6,339.6,300.1
978.1,337,22.6,19.1,81,14.38,54,5.9,297.6,339.4,300.1
977.5,342,22.5,19.1,81,14.37,54,5.9,297.6,339.4,300.2
977.0,346,22.5,19.1,81,14.38,55,5.9,297.6,339.5,300.2
976.4,351,22.4,19.1,81,14.41,55,5.9,297.6,339.6,300.2
975.9,356,22.4,19.1,82,14.41,56,6.0,297.6,339.5,300.2
975.3,362,22.3,19.1,82,14.38,56,6.0,297.6,339.5,300.2
974.7,367,22.3,19.0,82,14.36,57,6.0,297.6,339.4,300.2
974.1,372,22.2,19.0,82,14.37,57,6.0,297.6,339.4,300.2
973.5,377,22.2,19.0,82,14.39,57,6.0,297.6,339.5,300.2
972.9,383,22.1,19.0,83,14.40,58,6.1,297.6,339.5,300.2
972.3,388,22.1,19.1,83,14.42,58,6.1,297.6,339.6,300.2
971.8,393,22.0,19.1,83,14.43,58,6.1,297.6,339.6,300.2
971.2,398,22.0,19.1,84,14.44,58,6.1,297.6,339.6,300.2
970.6,404,21.9,19.1,84,14.46,58,6.1,297.6,339.7,300.2
970.0,409,21.9,19.1,84,14.46,58,6.1,297.6,339.7,300.2
969.5,414,21.8,19.0,84,14.45,58,6.1,297.6,339.6,300.2
968.9,419,21.8,19.1,85,14.48,58,6.1,297.6,339.7,300.2
968.3,424,21.7,19.1,85,14.49,58,6.1,297.6,339.8,300.2
967.8,429,21.7,19.0,85,14.47,58,6.1,297.6,339.7,300.2
967.2,434,21.6,19.0,85,14.44,58,6.1,297.6,339.6,300.2
966.6,439,21.6,19.0,85,14.47,57,6.0,297.6,339.7,300.2
966.1,444,21.5,19.1,86,14.52,57,6.0,297.6,339.8,300.2
965.5,449,21.5,19.1,86,14.54,57,6.0,297.6,339.9,300.2
965.0,454,21.4,19.1,86,14.53,56,5.9,297.6,339.9,300.2
964.5,459,21.4,19.0,86,14.49,56,5.9,297.6,339.8,300.2
963.9,464,21.4,18.9,86,14.44,56,5.9,297.6,339.6,300.2
963.4,469,21.3,18.9,86,14.41,55,5.8,297.6,339.5,300.2
962.8,473,21.3,18.9,86,14.42,55,5.8,297.6,339.6,300.2
962.3,478,21.2,18.9,87,14.43,54,5.7,297.6,339.6,300.2
961.8,483,21.2,18.9,87,14.44,54,5.7,297.6,339.7,300.2
961.3,488,21.1,18.9,87,14.44,53,5.6,297.6,339.7,300.2
960.7,492,21.1,18.9,87,14.43,53,5.6,297.6,339.6,300.2
960.2,497,21.1,18.9,87,14.42,52,5.6,297.7,339.6,300.2
959.7,502,21.0,18.8,87,14.40,51,5.5,297.7,339.6,300.2
959.2,507,21.0,18.8,87,14.40,51,5.5,297.7,339.6,300.2
958.6,512,21.0,18.8,88,14.41,50,5.4,297.7,339.6,300.3
958.1,517,20.9,18.8,88,14.42,50,5.4,297.7,339.7,300.3
957.5,522,20.9,18.8,88,14.42,49,5.3,297.7,339.7,300.2
957.0,527,20.8,18.8,88,14.38,49,5.3,297.7,339.5,300.2
956.4,532,20.8,18.7,88,14.30,48,5.2,297.7,339.3,300.2
955.9,536,20.8,18.5,87,14.15,48,5.2,297.8,339.0,300.3
955.4,541,20.8,18.2,85,13.94,47,5.1,297.8,338.5,300.3
954.8,546,20.9,18.1,84,13.81,46,5.1,298.0,338.2,300.4
954.3,551,20.9,18.1,84,13.79,46,5.0,298.0,338.2,300.5
953.8,556,20.9,18.1,84,13.79,45,5.0,298.0,338.2,300.5
953.2,561,20.8,18.0,84,13.77,45,4.9,298.0,338.2,300.5
952.7,565,20.8,18.0,84,13.75,44,4.9,298.0,338.2,300.5
952.2,570,20.8,18.0,84,13.74,43,4.8,298.0,338.1,300.5
951.7,575,20.7,18.0,84,13.73,43,4.8,298.1,338.1,300.5
951.1,580,20.7,17.9,84,13.73,42,4.7,298.1,338.1,300.5
950.6,584,20.6,17.9,84,13.72,41,4.7,298.1,338.1,300.5
950.1,589,20.6,17.9,84,13.70,40,4.6,298.1,338.0,300.5
949.5,594,20.6,17.8,84,13.63,40,4.6,298.1,337.9,300.6
949.0,599,20.6,17.6,83,13.49,39,4.5,298.2,337.6,300.6
948.4,604,20.6,17.4,82,13.33,38,4.5,298.2,337.2,300.6
947.9,610,20.7,17.1,80,13.07,37,4.5,298.4,336.6,300.7
947.3,615,20.8,16.7,77,12.75,36,4.4,298.5,335.9,300.8
946.7,621,20.9,16.4,75,12.47,35,4.4,298.7,335.3,300.9
946.0,626,21.0,16.1,74,12.29,35,4.3,298.9,334.9,301.1
945.4,632,21.0,16.1,73,12.26,34,4.3,298.9,334.9,301.1
944.8,638,21.0,16.2,74,12.31,33,4.3,299.0,335.1,301.2
944.1,644,21.0,16.2,74,12.36,32,4.2,299.0,335.3,301.2
943.5,650,20.9,16.2,74,12.35,31,4.2,299.0,335.2,301.2
942.9,655,20.9,16.1,74,12.32,30,4.2,299.0,335.2,301.2
942.3,661,20.9,16.1,74,12.31,30,4.2,299.0,335.2,301.2
941.7,666,20.8,16.1,74,12.28,29,4.1,299.1,335.1,301.3
941.1,671,20.8,16.0,74,12.24,28,4.1,299.1,335.1,301.3
940.6,676,20.8,16.0,74,12.27,28,4.1,299.2,335.2,301.4
940.1,681,20.8,16.1,75,12.36,27,4.1,299.2,335.5,301.4
939.5,686,20.8,16.3,76,12.51,27,4.1,299.2,335.9,301.5
939.0,691,20.7,16.6,77,12.73,26,4.1,299.2,336.6,301.5
938.4,696,20.7,16.6,77,12.76,26,4.1,299.2,336.7,301.5
937.9,701,20.6,16.5,77,12.68,25,4.0,299.2,336.4,301.5
937.3,706,20.6,16.5,77,12.66,25,4.0,299.2,336.4,301.5
936.8,712,20.5,16.5,78,12.68,25,4.0,299.2,336.4,301.5
936.2,717,20.5,16.7,79,12.85,25,4.0,299.2,336.9,301.5
935.6,722,20.4,17.0,81,13.13,24,4.0,299.2,337.7,301.6
935.1,727,20.4,17.0,81,13.13,24,4.0,299.3,337.8,301.6
934.5,732,20.5,16.6,78,12.79,24,4.0,299.4,336.9,301.7
934.0,737,20.5,16.2,76,12.49,24,4.0,299.5,336.2,301.7
933.4,742,20.6,16.0,75,12.32,24,4.0,299.6,335.8,301.8
932.9,747,20.6,15.9,75,12.29,24,4.0,299.6,335.8,301.8
932.4,752,20.5,16.0,75,12.35,24,4.0,299.6,335.9,301.8
931.9,757,20.5,16.0,76,12.38,24,3.9,299.6,336.0,301.8
931.3,762,20.4,15.9,75,12.32,24,3.9,299.6,335.8,301.8
930.8,767,20.4,15.7,75,12.17,24,3.9,299.6,335.4,301.8
930.3,772,20.4,15.5,74,12.02,24,3.9,299.7,335.1,301.8
929.8,777,20.4,15.4,73,11.93,25,3.9,299.7,334.8,301.8
929.2,782,20.4,15.4,73,11.90,25,3.9,299.7,334.8,301.9
928.7,787,20.3,15.4,73,11.93,25,3.9,299.7,334.8,301.9
928.1,792,20.3,15.4,74,11.95,25,3.9,299.7,334.9,301.9
927.6,797,20.2,15.4,74,11.93,26,3.8,299.7,334.9,301.9
927.0,802,20.2,15.3,74,11.91,26,3.8,299.7,334.8,301.9
926.5,807,20.1,15.3,74,11.88,27,3.8,299.7,334.7,301.9
925.9,813,20.1,15.3,74,11.88,27,3.8,299.8,334.7,301.9
925.3,818,20.0,15.3,74,11.88,28,3.8,299.8,334.8,301.9
925.0,821,20.0,15.3,74,11.89,28,3.8,299.8,334.8,301.9
924.8,823,20.0,15.3,74,11.89,28,3.8,299.8,334.8,301.9
924.2,829,20.0,15.3,75,11.91,29,3.8,299.8,334.9,301.9
923.6,834,19.9,15.3,75,11.92,30,3.7,299.8,334.9,301.9
923.0,840,19.9,15.2,75,11.86,31,3.7,299.8,334.7,301.9
922.4,845,19.8,15.1,74,11.78,32,3.7,299.8,334.5,301.9
921.8,851,19.8,15.0,74,11.74,33,3.7,299.8,334.4,301.9
921.2,856,19.7,15.0,74,11.71,34,3.7,299.8,334.3,301.9
920.6,862,19.7,14.9,74,11.63,35,3.7,299.8,334.1,301.9
920.0,868,19.7,14.7,73,11.53,36,3.6,299.9,333.9,302.0
919.4,873,19.7,14.6,73,11.43,37,3.6,299.9,333.6,302.0
918.9,879,19.6,14.4,72,11.31,38,3.6,300.0,333.3,302.0
918.3,884,19.6,14.3,71,11.20,40,3.6,300.0,333.1,302.0
917.7,890,19.6,14.2,71,11.13,41,3.6,300.0,332.9,302.0
917.1,895,19.6,14.1,71,11.13,42,3.6,300.0,332.9,302.1
916.5,900,19.5,14.2,71,11.15,44,3.6,300.1,333.0,302.1
915.9,906,19.5,14.1,71,11.11,45,3.6,300.1,332.9,302.1
915.4,912,19.4,14.0,71,11.06,46,3.6,300.1,332.7,302.0
914.8,917,19.4,14.0,71,11.08,48,3.6,300.0,332.8,302.0
914.2,923,19.3,14.1,72,11.13,49,3.5,300.0,332.9,302.0
913.6,928,19.2,14.1,72,11.13,50,3.5,300.0,332.9,302.0
913.0,934,19.2,14.0,72,11.07,52,3.5,300.0,332.7,302.0
912.4,939,19.1,13.8,71,10.94,53,3.5,300.0,332.3,302.0
911.9,944,19.1,13.5,70,10.74,54,3.5,300.1,331.8,302.0
911.4,949,19.1,13.2,69,10.52,55,3.5,300.1,331.2,302.0
910.8,954,19.1,12.9,67,10.34,56,3.5,300.2,330.8,302.0
910.3,959,19.1,12.7,66,10.20,57,3.5,300.2,330.5,302.1
909.8,964,19.1,12.5,66,10.08,58,3.5,300.3,330.2,302.1
909.3,969,19.2,12.3,64,9.90,59,3.5,300.3,329.7,302.1
908.8,974,19.2,11.9,63,9.66,60,3.5,300.4,329.1,302.2
908.3,978,19.2,11.5,61,9.45,61,3.5,300.5,328.6,302.2
907.8,983,19.2,11.4,60,9.34,61,3.5,300.6,328.3,302.3
907.3,988,19.2,11.3,60,9.29,62,3.5,300.6,328.2,302.3
906.8,993,19.2,11.2,60,9.26,62,3.5,300.6,328.2,302.3
906.3,997,19.2,11.2,60,9.23,63,3.5,300.7,328.1,302.3
905.8,1002,19.1,11.1,60,9.19,63,3.5,300.7,328.0,302.3
905.3,1007,19.1,11.0,59,9.14,63,3.4,300.7,327.9,302.3
904.8,1012,19.1,10.9,59,9.11,63,3.4,300.7,327.8,302.3
904.2,1017,19.0,10.9,59,9.07,63,3.4,300.7,327.7,302.4
903.7,1022,19.0,10.8,59,9.05,63,3.4,300.7,327.7,302.4
903.2,1027,19.0,10.8,59,9.04,63,3.3,300.7,327.6,302.4
902.6,1032,18.9,10.7,59,8.99,63,3.3,300.7,327.5,302.4
902.1,1037,18.9,10.7,59,8.97,63,3.3,300.8,327.5,302.4
901.5,1043,18.8,10.7,59,9.01,62,3.2,300.8,327.6,302.4
901.0,1048,18.8,10.8,60,9.05,61,3.2,300.8,327.7,302.4
900.5,1053,18.7,10.8,60,9.08,61,3.1,300.8,327.8,302.4
899.9,1058,18.7,10.8,60,9.08,60,3.1,300.8,327.8,302.4
899.4,1063,18.7,10.8,60,9.10,59,3.0,300.8,327.9,302.4
898.9,1068,18.6,11.0,61,9.18,57,2.9,300.8,328.1,302.5
898.4,1073,18.7,11.1,62,9.28,56,2.9,300.9,328.5,302.6
897.8,1078,18.6,11.5,63,9.51,54,2.8,300.9,329.2,302.6
897.3,1083,18.6,11.9,65,9.80,53,2.8,300.9,330.0,302.7
896.7,1088,18.5,12.1,66,9.96,51,2.7,300.9,330.5,302.7
896.2,1094,18.5,12.2,67,10.01,49,2.6,300.9,330.6,302.7
895.6,1099,18.4,12.2,67,10.01,47,2.6,300.9,330.6,302.7
895.0,1105,18.4,12.2,67,10.05,44,2.5,300.9,330.7,302.7
894.4,1110,18.3,12.3,68,10.12,42,2.4,300.9,331.0,302.7
893.9,1116,18.3,12.4,69,10.18,39,2.4,300.9,331.1,302.7
893.3,1121,18.2,12.4,69,10.18,37,2.3,300.9,331.1,302.7
892.8,1126,18.2,12.3,69,10.12,34,2.3,300.9,331.0,302.7
892.3,1131,18.1,12.2,68,10.03,31,2.2,300.9,330.7,302.7
891.7,1136,18.1,12.0,68,9.95,28,2.2,301.0,330.5,302.8
891.2,1142,18.1,11.9,67,9.88,25,2.1,301.0,330.4,302.8
890.6,1147,18.1,11.8,67,9.83,23,2.1,301.0,330.2,302.8
890.0,1153,18.0,11.8,67,9.83,20,2.0,301.0,330.3,302.8
889.4,1158,18.0,11.8,67,9.84,17,2.0,301.0,330.3,302.8
888.9,1164,17.9,11.8,67,9.85,14,2.0,301.0,330.3,302.8
888.3,1169,17.9,11.9,68,9.88,11,1.9,301.1,330.5,302.9
887.8,1175,17.9,11.9,68,9.94,9,1.9,301.1,330.7,302.9
887.2,1180,17.9,12.0,69,9.98,6,1.9,301.1,330.8,302.9
886.7,1185,17.8,12.0,69,9.98,4,1.8,301.1,330.8,302.9
886.2,1190,17.8,12.0,69,9.98,2,1.8,301.1,330.8,302.9
885.6,1195,17.7,12.0,69,10.01,360,1.8,301.2,330.9,303.0
885.1,1201,17.7,12.1,70,10.06,358,1.8,301.2,331.1,303.0
884.5,1206,17.6,12.2,71,10.16,357,1.7,301.2,331.4,303.0
883.9,1212,17.6,12.4,72,10.28,355,1.7,301.2,331.7,303.0
883.3,1217,17.5,12.6,73,10.44,354,1.7,301.2,332.2,303.1
882.7,1223,17.5,12.7,74,10.53,353,1.7,301.2,332.5,303.1
882.1,1229,17.5,12.7,74,10.54,352,1.6,301.2,332.5,303.1
881.5,1235,17.4,12.7,74,10.50,351,1.6,301.2,332.4,303.1
880.9,1241,17.4,12.5,73,10.40,351,1.6,301.3,332.2,303.1
880.3,1247,17.4,12.2,71,10.17,350,1.6,301.3,331.6,303.2
879.7,1253,17.4,11.6,69,9.77,350,1.6,301.4,330.5,303.1
879.1,1258,17.4,11.2,67,9.55,350,1.6,301.4,329.9,303.2
878.5,1264,17.4,11.3,67,9.61,351,1.6,301.5,330.1,303.2
877.9,1270,17.3,11.3,68,9.59,351,1.6,301.5,330.1,303.2
877.3,1276,17.3,11.2,67,9.54,351,1.6,301.5,329.9,303.2
876.6,1283,17.2,11.0,67,9.44,352,1.6,301.5,329.7,303.2
876.0,1289,17.2,10.8,66,9.35,352,1.6,301.5,329.4,303.2
875.3,1295,17.1,10.7,66,9.29,353,1.6,301.5,329.3,303.2
874.7,1302,17.1,10.7,66,9.29,354,1.6,301.5,329.2,303.2
874.0,1308,17.0,10.8,67,9.33,355,1.6,301.5,329.4,303.2
873.4,1314,16.9,10.8,67,9.37,355,1.6,301.5,329.5,303.2
872.8,1320,16.8,10.8,68,9.38,356,1.6,301.5,329.5,303.2
872.2,1326,16.8,10.8,68,9.37,357,1.6,301.5,329.4,303.2
871.6,1332,16.7,10.8,68,9.36,357,1.6,301.5,329.4,303.2
871.1,1337,16.7,10.8,68,9.36,358,1.7,301.5,329.4,303.2
870.5,1342,16.7,10.8,68,9.41,359,1.7,301.5,329.6,303.2
870.0,1347,16.6,10.9,69,9.45,359,1.7,301.5,329.7,303.2
869.5,1353,16.5,10.9,69,9.48,360,1.7,301.5,329.7,303.2
869.0,1358,16.5,10.9,70,9.48,360,1.7,301.5,329.8,303.2
868.4,1363,16.4,10.9,70,9.47,1,1.7,301.5,329.7,303.2
867.9,1368,16.4,10.8,69,9.42,1,1.7,301.5,329.6,303.2
867.4,1373,16.4,10.7,69,9.37,2,1.8,301.5,329.5,303.2
866.9,1378,16.3,10.7,69,9.37,2,1.8,301.5,329.5,303.2
866.3,1383,16.3,10.8,70,9.40,3,1.8,301.5,329.6,303.3
865.8,1389,16.2,10.8,70,9.46,3,1.8,301.6,329.8,303.3
865.2,1394,16.2,11.0,71,9.56,3,1.8,301.6,330.1,303.3
864.7,1400,16.1,11.2,73,9.72,4,1.8,301.6,330.5,303.3
864.1,1405,16.1,11.4,74,9.88,4,1.8,301.5,331.0,303.3
863.6,1411,16.0,11.5,74,9.89,5,1.9,301.5,331.0,303.3
863.0,1417,16.0,11.3,74,9.81,5,1.9,301.6,330.8,303.4
862.4,1422,16.0,11.2,73,9.73,6,1.9,301.6,330.6,303.4
861.7,1429,15.9,11.1,73,9.70,7,1.9,301.6,330.6,303.4
861.1,1435,15.9,11.2,74,9.78,7,1.9,301.6,330.8,303.4
860.4,1442,15.8,11.5,76,9.97,8,1.9,301.6,331.4,303.4
859.7,1449,15.7,11.8,78,10.20,9,2.0,301.6,332.0,303.5
859.0,1456,15.6,12.0,79,10.32,10,2.0,301.6,332.3,303.5
858.3,1462,15.6,12.0,79,10.32,11,2.0,301.6,332.3,303.5
857.7,1469,15.5,11.9,79,10.26,12,2.0,301.6,332.2,303.5
857.1,1475,15.5,11.9,79,10.25,13,2.0,301.6,332.1,303.5
856.5,1481,15.4,12.0,80,10.33,14,2.0,301.6,332.3,303.5
855.9,1487,15.3,12.2,81,10.47,15,2.0,301.6,332.8,303.5
855.3,1492,15.3,12.5,83,10.71,17,2.0,301.6,333.5,303.5
854.8,1498,15.2,12.7,85,10.89,18,2.1,301.6,334.0,303.6
854.2,1503,15.2,12.8,86,10.96,20,2.0,301.6,334.2,303.6
853.7,1509,15.2,12.9,86,11.03,21,2.0,301.6,334.4,303.6
853.1,1514,15.1,13.1,88,11.17,23,2.0,301.7,334.9,303.7
852.6,1520,15.1,13.4,90,11.40,25,2.0,301.7,335.5,303.7
852.0,1525,15.0,13.7,92,11.67,27,2.0,301.7,336.3,303.8
851.4,1531,15.0,13.9,93,11.77,29,2.0,301.7,336.7,303.8
850.9,1536,15.0,13.8,93,11.71,31,2.0,301.7,336.5,303.8
850.4,1542,14.9,13.6,92,11.57,34,2.0,301.7,336.1,303.8
850.0,1545,14.9,13.4,91,11.47,34,2.0,301.8,335.9,303.9
849.9,1547,14.9,13.4,90,11.43,36,2.0,301.8,335.7,303.9
849.4,1552,14.9,13.2,90,11.33,38,1.9,301.8,335.5,303.9
848.9,1557,14.9,13.2,89,11.30,41,1.9,301.9,335.5,303.9
848.4,1562,14.9,13.2,89,11.28,43,1.9,301.9,335.4,303.9
847.8,1567,14.9,13.1,89,11.24,46,1.9,301.9,335.4,304.0
847.3,1572,14.9,13.0,89,11.17,49,1.9,302.0,335.2,304.0
846.8,1577,14.8,12.9,88,11.12,51,1.8,302.0,335.1,304.0
846.3,1583,14.8,12.8,88,11.06,54,1.8,302.0,334.9,304.0
845.7,1588,14.8,12.7,88,11.00,56,1.8,302.0,334.8,304.0
845.2,1593,14.7,12.6,87,10.95,59,1.8,302.1,334.7,304.0
844.7,1599,14.7,12.6,87,10.94,61,1.8,302.1,334.7,304.1
844.1,1604,14.7,12.6,87,10.96,63,1.8,302.1,334.8,304.1
843.6,1610,14.7,12.7,88,10.97,66,1.8,302.2,334.9,304.2
843.0,1615,14.7,12.6,87,10.95,68,1.8,302.2,334.9,304.2
842.5,1620,14.7,12.6,88,10.95,70,1.8,302.2,334.9,304.2
842.0,1626,14.6,12.6,88,10.98,71,1.8,302.3,335.0,304.3
841.5,1631,14.6,12.7,88,11.03,73,1.8,302.3,335.2,304.3
841.0,1636,14.6,12.7,89,11.06,74,1.8,302.3,335.3,304.3
840.5,1641,14.6,12.7,89,11.05,75,1.8,302.3,335.3,304.4
840.0,1646,14.5,12.6,88,10.99,76,1.8,302.4,335.2,304.4
839.4,1651,14.5,12.5,88,10.92,77,1.8,302.4,335.0,304.4
838.9,1656,14.5,12.5,88,10.90,77,1.8,302.4,334.9,304.4
838.5,1661,14.4,12.4,88,10.88,78,1.9,302.4,334.9,304.4
838.0,1666,14.4,12.4,88,10.84,78,1.9,302.4,334.8,304.4
837.5,1671,14.4,12.3,87,10.81,78,1.9,302.5,334.7,304.4
837.0,1676,14.4,12.3,87,10.81,78,1.9,302.5,334.7,304.5
836.5,1681,14.3,12.3,88,10.84,78,1.9,302.5,334.9,304.5
836.1,1685,14.3,12.5,89,10.94,78,1.9,302.6,335.2,304.6
835.6,1690,14.3,12.6,89,11.04,77,2.0,302.6,335.5,304.6
835.2,1695,14.3,12.6,90,11.06,77,2.0,302.6,335.6,304.6
834.7,1699,14.3,12.6,90,11.09,76,2.0,302.6,335.7,304.7
834.2,1705,14.2,12.7,90,11.13,76,2.0,302.7,335.9,304.7
833.7,1710,14.2,12.7,91,11.16,75,2.0,302.7,336.0,304.7
833.1,1715,14.2,12.7,91,11.17,74,2.1,302.7,336.1,304.7
832.6,1721,14.1,12.8,92,11.21,74,2.1,302.7,336.2,304.7
832.1,1726,14.1,12.8,92,11.24,73,2.1,302.7,336.3,304.8
831.5,1731,14.0,12.8,92,11.26,72,2.1,302.7,336.3,304.8
831.0,1737,14.0,12.8,93,11.27,72,2.2,302.7,336.3,304.8
830.5,1742,13.9,12.8,93,11.28,71,2.2,302.7,336.4,304.8
830.1,1747,13.9,12.8,93,11.26,71,2.2,302.7,336.3,304.8
829.6,1751,13.9,12.8,93,11.28,71,2.2,302.7,336.4,304.8
829.1,1756,13.8,12.9,94,11.33,70,2.2,302.7,336.6,304.8
828.7,1760,13.8,12.9,95,11.37,70,2.2,302.7,336.6,304.8
828.2,1765,13.7,12.9,95,11.38,70,2.2,302.7,336.7,304.8
827.8,1770,13.7,12.9,95,11.38,70,2.2,302.7,336.7,304.8
827.3,1774,13.6,12.9,95,11.39,70,2.2,302.7,336.7,304.8
826.9,1779,13.6,12.9,96,11.39,70,2.2,302.7,336.7,304.8
826.4,1784,13.5,12.9,96,11.39,70,2.2,302.7,336.7,304.8
825.9,1789,13.5,12.9,96,11.37,70,2.2,302.7,336.7,304.8
825.4,1794,13.5,12.8,96,11.36,70,2.1,302.8,336.6,304.8
825.0,1799,13.4,12.8,96,11.31,70,2.1,302.8,336.5,304.8
824.5,1803,13.5,12.6,95,11.22,70,2.1,302.8,336.3,304.9
824.0,1808,13.5,12.5,94,11.13,70,2.0,302.9,336.2,304.9
823.5,1813,13.5,12.5,93,11.11,70,2.0,303.0,336.2,305.0
823.1,1818,13.5,12.4,93,11.09,70,1.9,303.0,336.2,305.1
822.6,1823,13.5,12.4,93,11.07,70,1.9,303.1,336.2,305.1
822.1,1828,13.5,12.3,93,11.03,70,1.8,303.2,336.1,305.2
821.7,1833,13.5,12.2,92,10.95,70,1.8,303.2,336.0,305.2
821.2,1838,13.6,12.0,90,10.79,70,1.7,303.3,335.6,305.3
820.7,1843,13.6,11.6,88,10.53,70,1.7,303.4,335.0,305.3
820.1,1848,13.7,11.2,85,10.22,69,1.6,303.5,334.2,305.4
819.6,1853,13.7,10.6,81,9.84,69,1.6,303.7,333.2,305.5
819.1,1859,13.9,10.1,78,9.52,68,1.5,303.8,332.5,305.6
818.6,1864,14.0,9.8,76,9.35,67,1.5,304.0,332.2,305.7
818.1,1869,14.1,9.6,75,9.24,66,1.4,304.2,332.1,305.9
817.6,1875,14.1,9.5,74,9.16,65,1.4,304.3,332.0,306.0
817.1,1880,14.2,9.4,73,9.08,64,1.3,304.4,331.9,306.1
816.6,1885,14.2,9.3,72,9.05,63,1.3,304.5,331.8,306.1
816.1,1890,14.2,9.3,72,9.05,61,1.3,304.5,331.9,306.2
815.6,1895,14.2,9.3,73,9.06,59,1.3,304.5,331.9,306.2
