PRES,HGHT,TEMP,DWPT,RELH,MIXR,DRCT,SPED,THTA,THTE,THTV
1015.1,31,19.6,18.3,92,13.13,263,2.7,291.5,328.7,293.8
1014.5,35,20.1,18.4,90,13.24,268,0.6,292.1,329.7,294.4
1013.9,41,20.8,18.8,88,13.55,72,0.3,292.8,331.5,295.2
1013.3,46,22.1,19.4,85,14.15,80,0.6,294.1,334.7,296.6
1012.6,52,22.9,19.6,82,14.33,83,0.6,295.0,336.3,297.6
1012.1,57,23.2,19.5,79,14.22,87,0.6,295.4,336.4,297.9
1011.4,62,23.3,19.4,79,14.15,91,0.6,295.5,336.3,298.0
1010.7,68,23.3,19.4,79,14.21,95,0.7,295.5,336.5,298.0
1010.1,74,23.3,19.5,80,14.30,98,0.7,295.6,336.8,298.1
1009.5,79,23.2,19.6,80,14.37,100,0.8,295.6,337.1,298.1
1008.9,84,23.2,19.6,80,14.41,103,0.9,295.6,337.2,298.1
1008.3,89,23.2,19.7,81,14.45,105,0.9,295.6,337.3,298.2
1007.7,94,23.1,19.7,81,14.48,107,1.0,295.6,337.4,298.2
1007.1,100,23.1,19.7,81,14.50,109,1.1,295.6,337.4,298.2
1006.5,105,23.0,19.7,82,14.50,110,1.2,295.6,337.5,298.2
1005.9,110,23.0,19.7,82,14.49,112,1.2,295.6,337.4,298.2
1005.3,116,23.0,19.7,82,14.49,113,1.3,295.7,337.5,298.2
1004.6,121,22.9,19.7,82,14.50,114,1.4,295.7,337.5,298.3
1004.0,126,22.9,19.6,82,14.49,115,1.5,295.7,337.5,298.2
1003.4,132,22.8,19.7,82,14.50,115,1.5,295.7,337.6,298.3
1002.8,137,22.8,19.7,83,14.53,116,1.6,295.7,337.7,298.3
1002.2,142,22.8,19.7,83,14.54,117,1.7,295.7,337.7,298.3
1001.6,148,22.7,19.7,83,14.55,118,1.8,295.7,337.8,298.3
1001.0,152,22.7,19.7,83,14.58,118,1.8,295.8,337.9,298.4
1000.5,157,22.7,19.7,83,14.58,119,1.9,295.8,337.9,298.4
1000.0,161,22.7,19.7,83,14.57,119,1.9,295.8,337.9,298.4
999.5,166,22.6,19.7,83,14.59,120,2.0,295.8,337.9,298.4
999.0,171,22.6,19.7,84,14.61,120,2.0,295.8,338.0,298.4
998.4,175,22.6,19.7,84,14.63,121,2.0,295.9,338.1,298.4
997.9,180,22.6,19.7,84,14.61,121,2.1,295.9,338.1,298.5
997.4,184,22.5,19.6,84,14.57,122,2.1,295.9,338.0,298.5
996.8,189,22.5,19.6,83,14.53,122,2.1,295.9,337.9,298.5
996.3,194,22.5,19.5,83,14.49,123,2.2,296.0,337.8,298.5
995.8,198,22.5,19.5,83,14.47,124,2.2,296.0,337.8,298.6
995.3,203,22.5,19.5,83,14.47,124,2.2,296.0,337.8,298.6
994.7,207,22.4,19.5,84,14.49,125,2.2,296.0,337.9,298.6
994.2,212,22.4,19.5,84,14.50,126,2.3,296.0,337.9,298.6
993.6,217,22.3,19.5,84,14.52,126,2.3,296.0,338.0,298.6
993.0,223,22.3,19.5,84,14.54,127,2.3,296.0,338.0,298.6
992.3,229,22.2,19.5,84,14.53,127,2.3,296.0,338.0,298.6
991.7,234,22.2,19.5,85,14.51,128,2.4,296.0,338.0,298.6
991.0,240,22.2,19.4,85,14.50,129,2.4,296.1,338.0,298.6
990.3,247,22.1,19.4,85,14.48,129,2.4,296.1,337.9,298.6
989.6,253,22.0,19.4,85,14.45,130,2.4,296.0,337.8,298.6
988.9,259,21.9,19.3,85,14.43,130,2.5,296.0,337.7,298.6
988.3,264,21.9,19.3,85,14.42,131,2.5,296.0,337.7,298.6
987.7,270,21.8,19.3,85,14.42,131,2.5,296.0,337.7,298.6
987.1,275,21.8,19.3,86,14.44,131,2.6,296.0,337.8,298.6
986.5,280,21.8,19.3,86,14.46,131,2.6,296.0,337.9,298.6
985.9,285,21.7,19.3,86,14.43,132,2.6,296.0,337.8,298.6
985.4,290,21.7,19.3,86,14.40,132,2.7,296.1,337.7,298.6
984.8,295,21.6,19.3,86,14.41,132,2.7,296.1,337.8,298.6
984.2,300,21.6,19.2,86,14.40,132,2.7,296.1,337.7,298.6
983.7,305,21.6,19.2,86,14.36,132,2.8,296.1,337.6,298.6
983.1,310,21.5,19.1,86,14.33,132,2.8,296.1,337.5,298.6
982.4,316,21.5,19.1,87,14.33,132,2.8,296.1,337.5,298.6
981.8,321,21.4,19.1,87,14.33,132,2.8,296.1,337.5,298.6
981.2,327,21.4,19.1,87,14.29,132,2.9,296.1,337.4,298.6
980.6,332,21.3,19.0,87,14.25,132,2.9,296.1,337.3,298.6
980.0,337,21.3,19.0,87,14.23,133,2.9,296.1,337.3,298.6
979.5,342,21.2,18.9,87,14.19,133,2.9,296.1,337.2,298.6
978.9,347,21.2,18.9,87,14.15,133,2.9,296.1,337.0,298.6
978.4,352,21.2,18.8,87,14.13,133,3.0,296.1,337.0,298.6
977.8,357,21.1,18.8,87,14.13,133,3.0,296.2,337.0,298.7
977.3,362,21.1,18.8,87,14.15,133,3.0,296.1,337.1,298.7
976.7,367,21.0,18.8,87,14.16,133,3.0,296.1,337.1,298.7
976.1,372,21.0,18.8,88,14.17,133,3.0,296.1,337.1,298.7
975.5,377,20.9,18.8,88,14.16,133,3.0,296.1,337.1,298.7
974.9,383,20.9,18.8,88,14.13,134,3.0,296.1,337.0,298.7
974.3,388,20.8,18.8,88,14.11,134,3.0,296.2,337.0,298.7
973.7,393,20.8,18.7,88,14.11,134,3.0,296.2,337.0,298.7
973.1,399,20.7,18.7,88,14.12,134,3.1,296.2,337.0,298.7
972.5,404,20.7,18.7,89,14.11,135,3.1,296.2,337.0,298.7
971.9,410,20.6,18.7,89,14.09,135,3.1,296.2,336.9,298.7
971.3,415,20.6,18.6,89,14.06,135,3.1,296.2,336.9,298.7
970.7,420,20.5,18.6,89,14.02,136,3.1,296.2,336.8,298.7
970.1,425,20.5,18.5,89,13.99,136,3.1,296.2,336.7,298.7
969.5,431,20.4,18.5,89,13.97,136,3.1,296.2,336.6,298.7
968.9,436,20.4,18.5,89,13.96,137,3.2,296.2,336.6,298.7
968.3,442,20.3,18.5,89,13.96,137,3.2,296.2,336.6,298.7
967.7,447,20.3,18.5,89,13.98,137,3.2,296.2,336.7,298.7
967.1,452,20.3,18.5,90,14.03,137,3.3,296.2,336.8,298.7
966.5,457,20.2,18.6,90,14.07,138,3.3,296.2,336.9,298.7
966.0,463,20.2,18.5,90,14.05,138,3.3,296.2,336.9,298.7
965.4,468,20.1,18.5,90,14.02,138,3.3,296.2,336.8,298.7
964.8,473,20.1,18.4,90,13.97,138,3.4,296.2,336.6,298.7
964.1,479,20.0,18.4,90,13.91,138,3.4,296.2,336.5,298.7
963.5,485,20.0,18.3,90,13.85,139,3.5,296.2,336.3,298.7
962.9,490,19.9,18.2,90,13.79,139,3.5,296.3,336.2,298.7
962.2,496,19.9,18.1,90,13.74,139,3.5,296.3,336.0,298.7
961.6,502,19.8,18.1,90,13.69,138,3.6,296.3,335.9,298.7
960.9,508,19.8,18.0,89,13.64,138,3.6,296.3,335.8,298.7
960.3,513,19.7,18.0,90,13.62,138,3.7,296.3,335.7,298.7
959.7,519,19.7,17.9,90,13.59,138,3.7,296.3,335.7,298.7
959.1,524,19.7,17.9,89,13.56,138,3.7,296.3,335.6,298.7
958.6,529,19.6,17.9,90,13.55,138,3.8,296.3,335.5,298.7
958.0,534,19.6,17.8,90,13.54,137,3.8,296.3,335.5,298.7
957.5,539,19.5,17.8,90,13.52,137,3.9,296.3,335.5,298.7
957.0,544,19.5,17.7,90,13.47,137,3.9,296.3,335.4,298.7
956.4,548,19.5,17.7,89,13.40,137,3.9,296.4,335.2,298.8
955.9,553,19.4,17.5,89,13.31,136,4.0,296.4,334.9,298.8
955.4,558,19.4,17.5,88,13.25,136,4.0,296.4,334.8,298.8
954.9,562,19.4,17.4,88,13.19,136,4.0,296.4,334.6,298.8
954.5,566,19.4,17.3,88,13.14,136,4.0,296.4,334.5,298.8
954.0,570,19.4,17.2,87,13.04,136,4.1,296.5,334.3,298.8
953.6,574,19.3,17.1,87,12.93,136,4.1,296.5,334.0,298.8
953.1,578,19.3,16.9,86,12.83,136,4.1,296.5,333.7,298.8
952.7,582,19.3,16.8,85,12.74,136,4.1,296.5,333.5,298.8
952.2,586,19.3,16.7,85,12.62,136,4.1,296.6,333.2,298.8
951.8,591,19.3,16.5,84,12.53,137,4.1,296.6,333.0,298.8
951.3,595,19.3,16.5,84,12.50,137,4.0,296.6,332.9,298.8
950.7,600,19.3,16.5,84,12.49,138,4.0,296.7,332.9,298.9
950.2,605,19.2,16.3,83,12.40,138,4.0,296.7,332.7,298.9
949.7,610,19.2,16.1,82,12.19,139,4.0,296.7,332.1,298.9
949.1,615,19.2,15.8,81,11.96,140,3.9,296.7,331.5,298.9
948.5,620,19.2,15.5,79,11.77,141,3.9,296.8,331.0,298.9
948.0,625,19.2,15.4,78,11.66,142,3.8,296.8,330.8,298.9
947.4,630,19.2,15.2,78,11.56,144,3.8,296.9,330.5,298.9
946.9,635,19.2,15.0,77,11.42,145,3.7,296.9,330.2,299.0
946.3,640,19.2,14.9,76,11.34,147,3.7,297.0,330.0,299.0
945.8,645,19.2,14.9,76,11.31,148,3.6,297.0,329.9,299.0
945.2,650,19.1,14.9,76,11.31,150,3.5,297.0,330.0,299.0
944.7,655,19.1,14.8,76,11.28,152,3.5,297.0,329.9,299.0
944.2,660,19.1,14.7,76,11.22,154,3.4,297.0,329.7,299.0
943.6,665,19.0,14.5,75,11.08,155,3.4,297.1,329.3,299.0
943.0,670,19.0,14.4,75,10.97,157,3.3,297.1,329.1,299.0
942.4,675,19.0,14.4,75,11.00,159,3.3,297.1,329.2,299.1
941.8,681,18.9,14.5,76,11.11,161,3.2,297.1,329.5,299.1
941.2,687,18.9,14.7,77,11.23,163,3.1,297.1,329.8,299.1
940.6,692,18.8,14.7,77,11.28,165,3.1,297.1,330.0,299.1
940.0,698,18.7,14.7,77,11.24,167,3.0,297.1,329.8,299.1
939.3,704,18.7,14.6,77,11.22,168,3.0,297.1,329.8,299.1
938.7,709,18.6,14.7,78,11.27,170,2.9,297.1,329.9,299.1
938.1,715,18.6,14.8,79,11.36,171,2.9,297.1,330.2,299.1
937.6,720,18.5,14.9,79,11.42,173,2.8,297.1,330.4,299.1
937.0,725,18.5,14.9,80,11.41,174,2.8,297.1,330.3,299.1
936.4,731,18.4,14.7,79,11.28,175,2.7,297.1,330.0,299.1
935.8,736,18.4,14.2,77,10.95,176,2.7,297.1,329.1,299.1
935.2,741,18.5,13.4,72,10.35,178,2.7,297.2,327.5,299.1
934.7,747,18.5,12.6,68,9.84,179,2.6,297.4,326.2,299.1
934.1,752,18.6,12.3,67,9.69,180,2.6,297.5,325.9,299.2
933.5,757,18.6,12.4,67,9.76,180,2.6,297.5,326.1,299.3
932.9,763,18.5,12.6,68,9.85,181,2.6,297.5,326.4,299.3
932.4,768,18.5,12.8,69,9.99,182,2.6,297.6,326.8,299.3
931.8,773,18.5,13.1,71,10.21,182,2.6,297.5,327.4,299.4
931.2,778,18.4,13.2,72,10.30,183,2.6,297.5,327.7,299.4
930.7,783,18.4,13.1,71,10.25,183,2.6,297.6,327.6,299.4
930.2,788,18.3,13.1,71,10.20,184,2.7,297.6,327.5,299.4
929.6,793,18.3,13.0,71,10.18,184,2.7,297.6,327.4,299.4
929.1,798,18.3,13.0,71,10.16,184,2.8,297.6,327.4,299.4
928.6,803,18.3,12.9,71,10.13,185,2.8,297.7,327.3,299.5
928.0,808,18.2,12.9,71,10.11,185,2.9,297.7,327.3,299.5
927.5,813,18.2,12.8,71,10.05,185,3.0,297.7,327.2,299.5
926.9,818,18.2,12.7,70,9.97,185,3.1,297.7,326.9,299.5
926.3,824,18.1,12.6,70,9.91,186,3.2,297.7,326.8,299.5
925.7,829,18.1,12.5,70,9.87,186,3.3,297.7,326.7,299.5
925.2,834,18.1,12.4,70,9.84,186,3.5,297.8,326.6,299.5
925.0,836,18.1,12.4,70,9.83,186,3.6,297.8,326.6,299.5
924.6,840,18.1,12.4,69,9.83,186,3.6,297.8,326.6,299.6
924.0,845,18.0,12.3,69,9.79,187,3.7,297.8,326.5,299.6
923.4,851,18.0,12.2,69,9.72,187,3.8,297.8,326.3,299.6
922.8,857,17.9,12.1,69,9.62,187,4.0,297.8,326.1,299.6
922.1,862,17.9,11.9,68,9.55,187,4.1,297.9,325.9,299.6
921.5,868,17.9,11.9,68,9.52,187,4.2,297.9,325.8,299.6
920.9,874,17.8,11.8,68,9.50,188,4.4,297.9,325.8,299.6
920.3,879,17.8,11.8,68,9.48,188,4.5,297.9,325.8,299.6
919.7,885,17.8,11.8,68,9.49,188,4.6,297.9,325.8,299.6
919.2,890,17.7,11.8,68,9.50,188,4.7,297.9,325.9,299.7
918.6,896,17.7,11.8,68,9.50,189,4.9,298.0,325.9,299.7
918.0,901,17.6,11.8,69,9.54,189,5.0,298.0,326.0,299.7
917.4,907,17.6,12.0,70,9.67,189,5.1,298.0,326.4,299.7
916.8,912,17.6,12.3,71,9.86,189,5.2,298.0,327.0,299.8
916.2,918,17.5,12.6,73,10.06,189,5.2,298.0,327.5,299.8
915.6,924,17.5,12.8,74,10.21,189,5.3,298.0,328.0,299.9
914.9,930,17.4,12.9,75,10.28,190,5.4,298.1,328.2,299.9
914.2,936,17.4,12.9,75,10.31,190,5.4,298.1,328.3,299.9
913.6,942,17.4,12.9,75,10.30,190,5.5,298.1,328.3,299.9
912.9,948,17.3,12.9,75,10.28,190,5.5,298.1,328.3,300.0
912.3,954,17.3,12.8,75,10.24,190,5.5,298.1,328.2,300.0
911.6,960,17.2,12.8,75,10.23,190,5.6,298.2,328.2,300.0
911.0,966,17.2,12.7,75,10.20,190,5.6,298.2,328.1,300.0
910.4,972,17.2,12.6,74,10.11,190,5.6,298.2,327.9,300.0
909.8,978,17.1,12.4,74,10.01,190,5.6,298.2,327.6,300.0
909.2,983,17.1,12.3,74,9.95,190,5.6,298.2,327.5,300.0
908.6,989,17.1,12.3,73,9.93,190,5.6,298.3,327.4,300.0
908.1,994,17.0,12.3,74,9.93,190,5.6,298.3,327.4,300.1
907.5,999,17.0,12.3,74,9.95,190,5.5,298.3,327.5,300.1
907.0,1004,16.9,12.3,74,9.98,190,5.5,298.3,327.6,300.1
906.4,1009,16.9,12.4,75,10.00,191,5.5,298.3,327.7,300.1
905.9,1015,16.8,12.4,75,10.01,191,5.5,298.3,327.7,300.1
905.4,1020,16.8,12.3,75,10.00,191,5.5,298.3,327.7,300.1
904.8,1025,16.8,12.3,75,9.99,191,5.4,298.3,327.7,300.1
904.3,1030,16.7,12.3,75,9.97,191,5.4,298.3,327.6,300.1
903.8,1035,16.7,12.2,75,9.94,191,5.4,298.3,327.5,300.1
903.2,1040,16.6,12.1,75,9.89,191,5.4,298.3,327.4,300.1
902.7,1045,16.6,12.0,74,9.82,191,5.3,298.3,327.2,300.1
902.2,1049,16.6,11.9,74,9.74,192,5.3,298.4,327.0,300.1
901.7,1054,16.5,11.7,73,9.62,192,5.3,298.4,326.7,300.1
901.1,1059,16.5,11.5,72,9.53,192,5.3,298.4,326.5,300.1
900.6,1064,16.5,11.5,72,9.48,192,5.3,298.4,326.4,300.1
900.1,1070,16.5,11.5,72,9.48,192,5.3,298.5,326.4,300.2
899.5,1075,16.4,11.4,72,9.47,192,5.3,298.5,326.3,300.2
899.0,1080,16.4,11.3,72,9.42,193,5.2,298.5,326.2,300.2
898.5,1085,16.4,11.3,72,9.38,193,5.2,298.5,326.1,300.2
897.9,1090,16.3,11.3,72,9.39,193,5.2,298.5,326.2,300.2
897.4,1094,16.3,11.3,72,9.40,193,5.2,298.6,326.2,300.2
896.9,1099,16.3,11.2,72,9.36,193,5.2,298.6,326.2,300.3
896.4,1104,16.3,11.1,71,9.32,193,5.2,298.6,326.1,300.3
895.8,1110,16.3,11.1,72,9.32,193,5.2,298.7,326.2,300.3
895.3,1115,16.2,11.2,72,9.34,193,5.2,298.7,326.2,300.4
894.7,1121,16.2,11.1,72,9.32,193,5.1,298.7,326.2,300.3
894.1,1127,16.1,11.0,72,9.28,193,5.1,298.7,326.0,300.4
893.4,1132,16.1,11.0,72,9.26,193,5.1,298.7,326.0,300.4
892.8,1138,16.0,10.9,72,9.24,193,5.1,298.7,325.9,300.4
892.3,1144,16.0,10.9,72,9.22,193,5.1,298.7,325.9,300.4
891.7,1149,15.9,10.9,72,9.21,193,5.0,298.7,325.9,300.4
891.1,1154,15.9,10.9,72,9.21,192,5.0,298.7,325.9,300.4
890.6,1159,15.8,10.9,72,9.22,192,5.0,298.7,325.9,300.4
890.1,1164,15.8,10.9,72,9.22,192,5.0,298.7,325.9,300.4
889.6,1169,15.8,10.8,72,9.20,192,4.9,298.7,325.9,300.4
889.1,1173,15.7,10.8,73,9.21,191,4.9,298.7,325.9,300.4
888.7,1178,15.7,10.8,73,9.22,191,4.9,298.8,325.9,300.4
888.2,1182,15.7,10.8,73,9.22,190,4.9,298.8,326.0,300.4
887.8,1187,15.6,10.8,73,9.18,190,4.9,298.8,325.9,300.4
887.3,1191,15.6,10.7,73,9.15,190,4.8,298.8,325.8,300.4
886.9,1195,15.6,10.7,73,9.13,189,4.8,298.8,325.7,300.4
886.5,1199,15.6,10.6,72,9.10,189,4.8,298.8,325.7,300.4
886.0,1203,15.5,10.6,72,9.08,188,4.8,298.8,325.6,300.5
885.6,1207,15.5,10.5,72,9.07,188,4.7,298.8,325.6,300.5
885.2,1212,15.4,10.5,72,9.04,187,4.7,298.8,325.5,300.4
884.7,1216,15.4,10.5,72,9.04,187,4.7,298.8,325.5,300.5
884.3,1220,15.4,10.5,72,9.02,186,4.6,298.8,325.5,300.5
883.8,1224,15.3,10.4,72,8.99,186,4.6,298.9,325.4,300.5
883.4,1229,15.3,10.3,72,8.95,186,4.6,298.9,325.3,300.5
882.9,1233,15.3,10.2,72,8.90,185,4.5,298.9,325.2,300.5
882.4,1238,15.3,10.1,71,8.85,185,4.5,298.9,325.1,300.5
882.0,1242,15.3,10.1,71,8.82,185,4.5,298.9,325.0,300.5
881.5,1247,15.2,10.1,71,8.82,184,4.4,299.0,325.0,300.5
881.0,1252,15.2,10.1,72,8.85,184,4.4,299.0,325.1,300.6
880.4,1257,15.1,10.1,72,8.88,184,4.4,299.0,325.2,300.6
879.9,1262,15.1,10.2,72,8.90,184,4.3,299.0,325.3,300.6
879.4,1267,15.1,10.2,73,8.92,184,4.3,299.0,325.4,300.6
878.9,1272,15.0,10.2,73,8.93,184,4.3,299.0,325.4,300.6
878.3,1277,15.0,10.3,74,8.97,184,4.2,299.0,325.5,300.6
877.8,1282,14.9,10.3,74,9.02,184,4.2,299.0,325.6,300.6
877.3,1288,14.9,10.4,74,9.04,184,4.2,299.0,325.7,300.6
876.7,1293,14.8,10.4,75,9.05,184,4.2,299.0,325.7,300.6
876.2,1298,14.8,10.3,75,9.03,184,4.1,299.0,325.7,300.6
875.6,1304,14.7,10.2,75,8.97,185,4.1,299.0,325.5,300.6
875.1,1309,14.7,10.0,74,8.87,185,4.1,299.0,325.2,300.6
874.5,1314,14.6,9.8,73,8.73,185,4.1,299.0,324.8,300.6
874.0,1319,14.6,9.5,72,8.58,186,4.2,299.1,324.5,300.6
873.5,1324,14.6,9.4,71,8.49,186,4.2,299.1,324.2,300.6
873.0,1329,14.6,9.2,70,8.41,186,4.2,299.1,324.0,300.6
872.5,1334,14.6,9.1,70,8.34,186,4.2,299.2,323.9,300.7
872.0,1338,14.6,9.0,70,8.32,186,4.3,299.2,323.8,300.7
871.5,1343,14.5,9.0,70,8.32,186,4.3,299.2,323.8,300.7
871.0,1348,14.5,9.0,70,8.31,186,4.4,299.2,323.8,300.7
870.5,1353,14.4,9.0,70,8.30,186,4.5,299.2,323.8,300.7
870.0,1358,14.4,9.0,70,8.28,186,4.5,299.2,323.8,300.7
869.5,1363,14.3,8.9,70,8.25,185,4.6,299.2,323.7,300.7
869.0,1368,14.3,8.9,70,8.24,185,4.7,299.2,323.6,300.7
868.5,1373,14.2,8.9,70,8.27,185,4.8,299.2,323.7,300.7
868.0,1377,14.2,8.9,71,8.29,184,4.9,299.2,323.8,300.7
867.6,1382,14.1,8.9,71,8.26,183,5.0,299.2,323.7,300.7
867.1,1386,14.1,8.8,70,8.22,183,5.1,299.2,323.6,300.7
866.7,1390,14.1,8.8,70,8.21,182,5.1,299.2,323.6,300.7
866.2,1395,14.0,8.8,71,8.22,181,5.2,299.2,323.6,300.7
865.8,1399,14.0,8.8,71,8.23,180,5.3,299.2,323.6,300.7
865.3,1404,14.0,8.8,71,8.26,179,5.4,299.2,323.7,300.7
864.9,1408,13.9,8.9,72,8.29,178,5.5,299.2,323.8,300.7
864.4,1413,13.9,8.9,72,8.32,177,5.6,299.2,323.9,300.7
863.9,1418,13.8,9.0,73,8.35,176,5.7,299.2,324.0,300.7
863.4,1423,13.8,9.0,73,8.39,175,5.7,299.2,324.1,300.7
862.9,1428,13.7,9.0,73,8.40,174,5.8,299.2,324.1,300.7
862.4,1433,13.7,9.0,74,8.40,173,5.9,299.2,324.1,300.7
861.8,1438,13.6,9.0,74,8.39,172,5.9,299.2,324.1,300.7
861.3,1443,13.6,9.0,74,8.37,171,6.0,299.2,324.0,300.7
860.8,1447,13.5,8.9,74,8.35,170,6.0,299.2,324.0,300.7
860.4,1452,13.5,8.9,74,8.36,169,6.1,299.2,324.0,300.7
859.9,1457,13.4,9.0,74,8.39,167,6.1,299.2,324.1,300.7
859.4,1462,13.4,9.0,75,8.42,166,6.1,299.2,324.2,300.7
858.9,1466,13.4,9.1,75,8.45,165,6.2,299.2,324.3,300.7
858.5,1470,13.3,9.1,76,8.47,164,6.2,299.2,324.3,300.8
858.1,1475,13.3,9.1,76,8.49,162,6.2,299.2,324.4,300.8
857.6,1479,13.2,9.2,76,8.52,161,6.2,299.2,324.5,300.8
857.2,1483,13.2,9.2,77,8.54,160,6.2,299.2,324.5,300.8
856.8,1488,13.1,9.2,77,8.58,158,6.2,299.2,324.6,300.8
856.3,1492,13.1,9.3,78,8.61,157,6.2,299.2,324.7,300.8
855.9,1496,13.0,9.3,78,8.63,156,6.2,299.2,324.7,300.8
855.4,1501,13.0,9.3,78,8.62,155,6.2,299.2,324.7,300.8
854.9,1506,13.0,9.3,78,8.61,153,6.2,299.2,324.7,300.8
854.4,1511,12.9,9.3,78,8.62,152,6.2,299.2,324.8,300.8
853.8,1516,12.9,9.3,79,8.65,151,6.2,299.2,324.9,300.8
853.3,1522,12.8,9.3,79,8.66,150,6.2,299.2,324.9,300.8
852.7,1528,12.8,9.3,79,8.65,149,6.2,299.2,324.8,300.8
852.1,1533,12.7,9.3,80,8.65,148,6.1,299.2,324.8,300.8
851.5,1539,12.6,9.3,80,8.66,147,6.1,299.2,324.9,300.8
851.0,1544,12.6,9.3,80,8.68,147,6.1,299.2,324.9,300.8
850.5,1549,12.6,9.3,81,8.69,146,6.1,299.2,324.9,300.8
850.0,1554,12.5,9.3,81,8.69,146,6.1,299.2,325.0,300.8
849.5,1559,12.5,9.4,81,8.72,145,6.0,299.2,325.1,300.8
849.1,1564,12.4,9.4,82,8.78,145,6.0,299.2,325.2,300.8
848.6,1568,12.4,9.6,83,8.87,145,6.0,299.3,325.5,300.9
848.2,1572,12.3,9.8,84,8.98,145,6.0,299.2,325.8,300.9
847.7,1577,12.3,9.9,85,9.07,145,5.9,299.2,326.0,300.9
847.2,1582,12.2,10.0,86,9.12,145,5.9,299.2,326.2,300.9
846.8,1586,12.2,10.0,87,9.15,145,5.9,299.2,326.2,300.9
846.3,1591,12.1,10.1,87,9.19,145,5.9,299.2,326.4,300.9
845.8,1596,12.1,10.1,88,9.24,145,5.8,299.2,326.5,300.9
845.3,1601,12.0,10.2,89,9.29,145,5.8,299.2,326.6,300.9
844.8,1606,12.0,10.3,90,9.37,146,5.8,299.2,326.9,300.9
844.3,1610,11.9,10.4,90,9.43,146,5.7,299.2,327.1,300.9
843.8,1615,11.9,10.4,91,9.46,146,5.7,299.2,327.1,300.9
843.4,1620,11.9,10.5,91,9.49,146,5.7,299.2,327.2,300.9
842.9,1625,11.8,10.6,92,9.54,147,5.6,299.2,327.4,301.0
842.4,1630,11.8,10.6,92,9.57,147,5.6,299.3,327.5,301.0
841.9,1635,11.8,10.6,92,9.57,147,5.5,299.3,327.6,301.0
841.4,1640,11.8,10.5,92,9.54,147,5.5,299.3,327.5,301.0
840.9,1645,11.7,10.5,92,9.53,147,5.5,299.3,327.5,301.1
840.4,1649,11.7,10.5,92,9.52,148,5.4,299.4,327.5,301.1
840.0,1654,11.7,10.5,92,9.51,148,5.4,299.4,327.5,301.1
839.5,1658,11.7,10.4,92,9.49,148,5.3,299.4,327.4,301.1
839.1,1663,11.6,10.4,92,9.47,148,5.3,299.4,327.4,301.1
838.6,1667,11.6,10.3,92,9.43,149,5.2,299.4,327.3,301.1
838.2,1671,11.6,10.2,91,9.38,149,5.2,299.5,327.2,301.2
837.8,1676,11.6,10.2,91,9.35,149,5.2,299.5,327.1,301.2
837.3,1680,11.6,10.1,91,9.33,150,5.1,299.5,327.1,301.2
836.9,1685,11.6,10.1,91,9.33,150,5.1,299.6,327.1,301.2
836.4,1689,11.5,10.1,91,9.32,151,5.1,299.6,327.1,301.3
836.0,1694,11.5,10.1,91,9.30,152,5.1,299.6,327.1,301.3
835.5,1699,11.5,10.0,91,9.28,152,5.0,299.6,327.1,301.3
834.9,1704,11.5,10.0,90,9.25,153,5.0,299.7,327.1,301.3
834.4,1710,11.4,9.9,90,9.21,154,5.0,299.7,326.9,301.3
833.8,1716,11.4,9.8,90,9.14,155,5.1,299.7,326.8,301.4
833.2,1721,11.4,9.7,89,9.08,157,5.1,299.7,326.6,301.4
832.6,1727,11.3,9.6,89,9.05,158,5.1,299.8,326.6,301.4
832.0,1733,11.3,9.6,89,9.06,159,5.2,299.8,326.6,301.4
831.4,1740,11.3,9.6,90,9.07,160,5.2,299.8,326.7,301.4
830.8,1746,11.2,9.6,90,9.07,161,5.3,299.8,326.7,301.4
830.2,1751,11.1,9.6,90,9.05,163,5.4,299.8,326.6,301.4
829.7,1757,11.1,9.5,90,9.01,164,5.5,299.8,326.5,301.4
829.1,1763,11.1,9.4,90,8.99,165,5.6,299.8,326.5,301.5
828.5,1769,11.0,9.4,90,8.98,166,5.7,299.9,326.5,301.5
827.9,1775,11.0,9.4,90,8.95,167,5.8,299.9,326.4,301.5
827.3,1781,11.0,9.3,89,8.92,168,5.9,300.0,326.4,301.6
826.7,1787,11.0,9.2,89,8.86,169,6.1,300.0,326.3,301.6
826.1,1793,11.0,9.1,88,8.80,170,6.2,300.0,326.2,301.6
825.5,1799,10.9,9.0,88,8.75,171,6.3,300.1,326.1,301.7
824.9,1806,10.9,8.9,88,8.71,172,6.4,300.1,326.0,301.7
824.3,1812,10.9,8.8,87,8.65,172,6.5,300.1,325.8,301.7
823.7,1818,10.9,8.6,86,8.56,173,6.6,300.2,325.7,301.8
823.1,1824,10.9,8.4,85,8.46,174,6.7,300.3,325.4,301.8
822.5,1830,10.9,8.3,84,8.38,175,6.8,300.4,325.3,301.9
821.9,1835,10.9,8.2,83,8.33,175,6.9,300.5,325.3,302.0
821.4,1841,10.9,8.1,83,8.30,176,7.0,300.5,325.2,302.0
820.9,1846,10.9,8.1,83,8.31,177,7.1,300.5,325.3,302.0
820.3,1852,10.8,8.2,84,8.34,177,7.2,300.5,325.4,302.0
819.8,1857,10.8,8.2,84,8.36,178,7.2,300.5,325.4,302.0
819.3,1862,10.8,8.2,84,8.36,179,7.2,300.5,325.5,302.1
818.8,1867,10.7,8.2,84,8.37,179,7.3,300.5,325.5,302.1
818.3,1872,10.7,8.2,85,8.38,180,7.3,300.5,325.5,302.1
817.8,1878,10.6,8.2,85,8.38,181,7.3,300.6,325.5,302.1
817.3,1883,10.6,8.2,85,8.39,182,7.3,300.6,325.6,302.1
