PRES,HGHT,TEMP,DWPT,RELH,MIXR,DRCT,SPED,THTA,THTE,THTV
1013.6,31,24.8,21.9,84,16.57,69,3.8,296.8,344.8,299.7
1012.7,39,25.0,21.8,82,16.49,69,3.6,297.1,345.0,300.0
1012.0,44,25.2,21.8,81,16.45,69,3.7,297.3,345.1,300.2
1011.4,50,25.3,21.7,81,16.36,70,3.9,297.4,345.0,300.4
1010.8,55,25.3,21.6,80,16.23,70,4.2,297.5,344.7,300.4
1010.1,61,25.3,21.4,79,16.13,71,4.5,297.6,344.5,300.4
1009.4,68,25.2,21.4,79,16.06,71,4.7,297.6,344.3,300.4
1008.7,74,25.2,21.3,79,16.00,72,5.0,297.6,344.1,300.4
1008.0,80,25.1,21.3,79,16.00,72,5.2,297.6,344.1,300.4
1007.2,86,25.1,21.3,80,16.02,73,5.4,297.6,344.2,300.4
1006.5,92,25.0,21.3,80,16.04,74,5.6,297.6,344.3,300.4
1005.8,99,24.9,21.3,80,16.06,74,5.8,297.6,344.3,300.4
1005.0,105,24.9,21.3,81,16.07,74,6.0,297.6,344.3,300.4
1004.3,112,24.8,21.3,81,16.10,75,6.2,297.6,344.4,300.4
1003.6,118,24.7,21.3,81,16.14,75,6.3,297.6,344.5,300.4
1002.8,125,24.7,21.4,82,16.17,76,6.5,297.6,344.6,300.5
1002.1,131,24.6,21.4,82,16.17,76,6.6,297.6,344.6,300.5
1001.3,138,24.5,21.3,82,16.16,76,6.7,297.6,344.6,300.5
1000.6,144,24.5,21.3,82,16.13,76,6.8,297.6,344.5,300.4
1000.0,150,24.4,21.2,82,16.09,76,6.8,297.6,344.4,300.4
999.9,151,24.4,21.2,82,16.08,77,6.9,297.6,344.3,300.4
999.2,157,24.4,21.2,83,16.06,77,7.0,297.6,344.3,300.4
998.5,163,24.3,21.2,83,16.05,77,7.1,297.6,344.2,300.4
997.7,169,24.2,21.2,83,16.06,77,7.2,297.6,344.3,300.4
997.1,175,24.2,21.2,83,16.08,77,7.2,297.6,344.3,300.4
996.4,181,24.1,21.2,84,16.08,77,7.3,297.6,344.3,300.4
995.7,187,24.0,21.1,84,16.07,77,7.3,297.6,344.3,300.4
995.1,193,24.0,21.1,84,16.03,77,7.4,297.5,344.2,300.4
994.4,199,23.9,21.1,84,16.01,77,7.4,297.6,344.1,300.4
993.8,205,23.9,21.1,84,16.02,77,7.4,297.6,344.2,300.4
993.1,210,23.9,21.1,84,16.05,76,7.5,297.6,344.3,300.5
992.5,216,23.8,21.1,85,16.06,76,7.5,297.6,344.3,300.5
991.8,222,23.8,21.1,85,16.06,76,7.5,297.6,344.3,300.5
991.1,228,23.7,21.1,85,16.07,76,7.6,297.6,344.4,300.5
990.4,234,23.6,21.1,85,16.06,76,7.6,297.6,344.3,300.5
989.7,240,23.6,21.0,86,16.05,76,7.6,297.6,344.3,300.5
989.1,246,23.5,21.0,86,16.05,75,7.6,297.6,344.3,300.4
988.4,252,23.4,21.0,86,16.04,75,7.6,297.6,344.2,300.4
987.7,258,23.4,21.0,86,16.03,75,7.7,297.6,344.2,300.4
987.0,264,23.3,21.0,87,16.10,75,7.7,297.6,344.4,300.4
986.3,270,23.2,21.1,88,16.19,75,7.7,297.6,344.6,300.4
985.7,276,23.2,21.1,88,16.22,75,7.7,297.5,344.7,300.4
985.1,282,23.1,21.1,89,16.20,75,7.7,297.5,344.6,300.4
984.4,287,23.1,21.1,89,16.17,75,7.7,297.5,344.6,300.4
983.8,293,23.0,21.1,89,16.18,75,7.7,297.6,344.6,300.4
983.2,298,23.0,21.1,89,16.20,76,7.8,297.6,344.7,300.5
982.6,303,22.9,21.1,89,16.19,76,7.8,297.6,344.7,300.5
982.0,309,22.9,21.0,89,16.17,76,7.8,297.6,344.6,300.4
981.5,314,22.8,21.0,89,16.15,76,7.8,297.6,344.5,300.4
980.9,319,22.8,21.0,90,16.14,76,7.8,297.6,344.5,300.4
980.3,324,22.7,21.0,90,16.17,77,7.8,297.6,344.6,300.4
979.7,329,22.7,21.0,90,16.21,77,7.8,297.6,344.7,300.5
979.1,335,22.6,21.0,91,16.21,77,7.8,297.6,344.7,300.4
978.5,340,22.6,21.0,91,16.20,77,7.8,297.6,344.7,300.4
977.9,345,22.5,21.0,91,16.19,78,7.8,297.6,344.6,300.4
977.3,350,22.5,21.0,91,16.19,78,7.9,297.6,344.6,300.4
976.8,356,22.4,20.9,91,16.16,78,7.9,297.5,344.5,300.4
976.2,361,22.4,20.9,91,16.13,78,7.9,297.6,344.5,300.4
975.6,366,22.3,20.8,91,16.09,79,7.9,297.6,344.4,300.4
975.0,371,22.3,20.8,91,16.04,79,7.9,297.6,344.2,300.5
974.4,376,22.3,20.7,91,16.01,79,7.9,297.6,344.2,300.5
973.9,382,22.2,20.7,91,16.00,79,8.0,297.6,344.2,300.5
973.3,387,22.2,20.7,91,15.99,79,8.0,297.6,344.2,300.5
972.7,392,22.2,20.7,91,15.98,79,8.0,297.7,344.2,300.5
972.1,397,22.1,20.7,92,15.97,79,8.0,297.6,344.1,300.5
971.5,403,22.1,20.6,92,15.94,79,8.0,297.6,344.0,300.5
970.9,408,22.0,20.6,92,15.91,80,8.1,297.7,343.9,300.5
970.3,413,22.0,20.6,92,15.89,80,8.1,297.7,343.9,300.5
969.7,419,21.9,20.5,92,15.88,80,8.1,297.7,343.9,300.5
969.1,424,21.9,20.5,92,15.85,80,8.1,297.7,343.8,300.5
968.6,429,21.8,20.5,92,15.82,80,8.2,297.7,343.7,300.5
968.0,434,21.8,20.5,92,15.83,80,8.2,297.7,343.7,300.5
967.4,439,21.7,20.5,93,15.84,80,8.2,297.7,343.7,300.5
966.9,444,21.7,20.5,93,15.85,80,8.2,297.6,343.8,300.5
966.3,449,21.6,20.4,93,15.85,80,8.2,297.7,343.8,300.5
965.7,455,21.6,20.4,93,15.86,81,8.3,297.7,343.8,300.5
965.2,460,21.5,20.4,94,15.87,81,8.3,297.7,343.8,300.5
964.6,465,21.5,20.4,94,15.88,81,8.3,297.7,343.9,300.5
964.1,470,21.4,20.5,94,15.90,81,8.3,297.7,343.9,300.5
963.5,475,21.4,20.5,94,15.91,82,8.3,297.7,343.9,300.5
962.9,480,21.3,20.4,95,15.90,82,8.4,297.7,343.9,300.5
962.3,485,21.3,20.4,95,15.87,82,8.4,297.7,343.8,300.5
961.7,491,21.2,20.3,95,15.82,83,8.4,297.7,343.7,300.5
961.1,496,21.2,20.3,95,15.77,83,8.4,297.7,343.5,300.5
960.5,502,21.1,20.2,95,15.73,83,8.4,297.7,343.4,300.5
959.9,507,21.1,20.2,95,15.68,84,8.4,297.7,343.3,300.5
959.2,513,21.0,20.1,94,15.61,84,8.5,297.7,343.1,300.5
958.6,519,21.0,20.0,94,15.53,84,8.5,297.7,342.9,300.5
957.9,526,21.0,19.9,94,15.48,85,8.5,297.8,342.8,300.5
957.2,532,20.9,19.9,94,15.47,85,8.5,297.8,342.8,300.5
956.5,538,20.9,19.9,94,15.45,85,8.5,297.8,342.8,300.6
955.8,544,20.9,19.9,94,15.45,86,8.6,297.8,342.8,300.6
955.1,551,20.8,19.9,94,15.48,86,8.6,297.9,342.9,300.6
954.4,557,20.7,19.9,95,15.52,86,8.6,297.8,343.0,300.6
953.8,563,20.7,19.9,96,15.55,87,8.6,297.8,343.1,300.6
953.1,569,20.6,20.0,96,15.58,87,8.6,297.8,343.2,300.6
952.5,575,20.5,19.9,96,15.57,87,8.7,297.8,343.1,300.6
951.8,581,20.5,19.9,96,15.51,87,8.7,297.8,343.0,300.6
951.2,586,20.5,19.7,96,15.41,87,8.7,297.8,342.7,300.6
950.6,592,20.4,19.6,95,15.30,87,8.7,297.9,342.4,300.6
950.0,597,20.4,19.5,95,15.22,87,8.7,297.9,342.3,300.6
949.4,603,20.4,19.5,95,15.20,87,8.8,297.9,342.2,300.7
948.8,608,20.4,19.5,95,15.20,87,8.8,298.0,342.2,300.7
948.2,614,20.3,19.5,95,15.18,87,8.8,298.0,342.2,300.7
947.6,619,20.3,19.4,95,15.13,87,8.8,298.0,342.1,300.7
947.0,625,20.3,19.3,95,15.09,87,8.8,298.0,342.0,300.7
946.4,630,20.2,19.3,94,15.06,86,8.9,298.0,341.9,300.7
945.8,636,20.2,19.2,94,15.00,86,8.9,298.0,341.8,300.7
945.2,641,20.2,19.1,94,14.91,86,8.9,298.1,341.5,300.7
944.6,647,20.2,19.0,93,14.79,86,8.9,298.1,341.3,300.8
944.0,652,20.2,18.9,93,14.73,86,8.9,298.2,341.1,300.8
943.4,657,20.1,18.9,93,14.71,86,8.9,298.2,341.1,300.8
942.9,663,20.1,18.9,93,14.70,85,8.9,298.2,341.1,300.8
942.3,668,20.0,18.8,93,14.68,85,8.9,298.2,341.0,300.8
941.7,673,20.0,18.8,93,14.62,85,8.9,298.2,340.9,300.8
941.1,679,20.0,18.7,92,14.60,85,8.9,298.3,340.9,300.9
940.5,684,20.0,18.7,92,14.56,85,8.8,298.3,340.8,300.9
939.9,690,19.9,18.6,92,14.50,85,8.8,298.3,340.6,300.9
939.3,695,19.9,18.5,92,14.45,85,8.8,298.3,340.5,300.9
938.7,701,19.9,18.5,92,14.42,85,8.8,298.4,340.5,300.9
938.1,707,19.8,18.5,92,14.43,86,8.8,298.4,340.5,301.0
937.5,712,19.8,18.5,92,14.44,86,8.8,298.4,340.5,301.0
936.9,718,19.8,18.5,92,14.45,86,8.8,298.4,340.6,301.0
936.2,724,19.7,18.5,93,14.47,86,8.7,298.4,340.7,301.0
935.6,729,19.7,18.5,93,14.46,87,8.7,298.4,340.6,301.0
935.0,735,19.6,18.4,93,14.42,87,8.7,298.4,340.5,301.0
934.4,741,19.6,18.4,93,14.37,87,8.7,298.4,340.4,301.0
933.8,747,19.5,18.3,93,14.34,88,8.7,298.4,340.3,301.0
933.2,752,19.5,18.3,93,14.33,88,8.7,298.5,340.3,301.0
932.6,758,19.5,18.3,93,14.33,89,8.6,298.5,340.4,301.1
932.0,763,19.4,18.3,93,14.30,89,8.6,298.5,340.3,301.1
931.4,768,19.4,18.2,93,14.28,89,8.6,298.5,340.2,301.1
930.8,774,19.3,18.2,93,14.23,90,8.6,298.5,340.1,301.1
930.3,779,19.3,18.1,93,14.19,90,8.6,298.6,340.0,301.1
929.7,784,19.3,18.1,93,14.18,90,8.6,298.6,340.0,301.1
929.1,789,19.3,18.1,93,14.17,91,8.6,298.6,340.0,301.1
928.6,795,19.2,18.0,93,14.13,91,8.5,298.6,339.9,301.1
928.0,800,19.2,17.9,93,14.08,91,8.5,298.6,339.8,301.2
927.4,805,19.2,17.9,92,14.02,91,8.5,298.7,339.7,301.2
926.9,810,19.1,17.8,92,13.96,91,8.5,298.7,339.5,301.2
926.3,816,19.1,17.7,92,13.90,91,8.4,298.7,339.4,301.2
925.8,821,19.1,17.7,91,13.87,91,8.4,298.7,339.3,301.2
925.2,826,19.0,17.6,92,13.86,91,8.4,298.8,339.3,301.2
925.0,828,19.0,17.6,92,13.86,91,8.3,298.8,339.3,301.2
924.6,831,19.0,17.6,92,13.86,91,8.3,298.8,339.3,301.3
924.1,837,19.0,17.6,92,13.84,91,8.3,298.8,339.3,301.3
923.5,842,18.9,17.6,92,13.81,91,8.3,298.8,339.2,301.3
923.0,847,18.9,17.5,92,13.78,91,8.2,298.8,339.1,301.3
922.4,852,18.9,17.5,92,13.74,91,8.2,298.8,339.0,301.3
921.9,857,18.9,17.4,91,13.71,91,8.1,298.9,339.0,301.3
921.3,863,18.9,17.5,91,13.76,90,8.1,299.0,339.2,301.4
920.7,868,18.9,17.6,92,13.87,90,8.1,299.0,339.6,301.5
920.2,873,18.9,17.7,93,14.01,90,8.0,299.0,340.0,301.5
919.6,879,18.9,17.8,94,14.08,90,8.0,299.1,340.3,301.6
919.0,884,18.8,17.8,94,14.08,90,7.9,299.1,340.4,301.6
918.4,890,18.8,17.8,94,14.06,90,7.9,299.1,340.3,301.7
917.8,895,18.8,17.7,94,14.03,90,7.9,299.2,340.3,301.7
917.2,901,18.7,17.7,94,14.02,90,7.8,299.2,340.2,301.7
916.6,907,18.7,17.7,94,14.01,90,7.8,299.2,340.2,301.7
916.0,912,18.6,17.7,94,14.02,91,7.8,299.2,340.2,301.7
915.4,918,18.6,17.7,94,14.03,91,7.8,299.2,340.3,301.7
914.8,924,18.5,17.7,95,14.03,91,7.8,299.2,340.3,301.7
914.2,930,18.5,17.6,95,13.99,91,7.7,299.2,340.2,301.7
913.6,935,18.4,17.5,94,13.95,92,7.7,299.2,340.1,301.7
913.0,941,18.4,17.5,94,13.92,92,7.7,299.3,340.1,301.7
912.4,946,18.4,17.5,94,13.91,92,7.7,299.3,340.1,301.8
911.9,951,18.4,17.5,95,13.92,93,7.7,299.3,340.1,301.8
911.3,956,18.3,17.5,95,13.93,93,7.7,299.3,340.1,301.8
910.8,961,18.3,17.5,95,13.94,93,7.8,299.3,340.2,301.8
910.2,967,18.2,17.5,95,13.96,94,7.8,299.3,340.3,301.8
909.7,972,18.2,17.5,96,13.99,94,7.8,299.3,340.4,301.8
909.2,977,18.2,17.5,96,14.00,94,7.8,299.3,340.4,301.9
908.6,982,18.1,17.5,96,13.99,94,7.8,299.4,340.4,301.9
908.0,987,18.1,17.5,96,13.96,94,7.9,299.4,340.3,301.9
907.5,993,18.0,17.4,96,13.92,94,7.9,299.4,340.2,301.9
906.9,998,18.0,17.4,96,13.90,94,7.9,299.4,340.1,301.9
906.3,1004,18.0,17.3,96,13.88,94,7.9,299.4,340.1,301.9
905.7,1010,17.9,17.3,96,13.86,94,8.0,299.4,340.1,301.9
905.1,1016,17.9,17.3,96,13.85,93,8.0,299.4,340.1,301.9
904.5,1021,17.8,17.2,96,13.79,93,8.0,299.4,339.9,301.9
903.9,1027,17.8,17.1,95,13.67,93,8.1,299.5,339.6,301.9
903.3,1033,17.8,16.8,94,13.48,92,8.1,299.5,339.0,301.9
902.7,1038,17.8,16.6,93,13.30,92,8.2,299.5,338.6,301.9
902.1,1044,17.8,16.5,93,13.22,91,8.2,299.6,338.4,302.0
901.5,1049,17.7,16.5,92,13.19,91,8.2,299.6,338.4,302.0
901.0,1054,17.7,16.4,92,13.14,90,8.3,299.6,338.2,302.0
900.4,1060,17.7,16.4,92,13.13,90,8.3,299.6,338.2,302.0
899.9,1065,17.6,16.5,93,13.22,89,8.4,299.7,338.5,302.0
899.3,1070,17.6,16.7,95,13.41,89,8.4,299.7,339.1,302.1
898.7,1076,17.5,16.9,96,13.56,89,8.5,299.7,339.5,302.1
898.2,1081,17.4,16.9,96,13.58,88,8.5,299.6,339.5,302.1
897.6,1087,17.4,16.8,96,13.52,88,8.5,299.6,339.3,302.1
897.0,1093,17.3,16.7,96,13.44,88,8.6,299.7,339.1,302.1
896.4,1098,17.4,16.6,95,13.38,87,8.6,299.7,339.0,302.1
895.8,1104,17.4,16.5,94,13.28,87,8.7,299.8,338.9,302.2
895.2,1110,17.4,16.4,94,13.19,87,8.7,299.9,338.7,302.2
894.6,1116,17.4,16.3,93,13.11,87,8.8,299.9,338.5,302.3
894.0,1122,17.4,16.2,93,13.05,87,8.8,300.0,338.4,302.3
893.3,1127,17.4,16.0,92,12.94,87,8.9,300.0,338.1,302.4
892.7,1133,17.4,15.8,90,12.72,88,9.0,300.1,337.6,302.4
892.1,1140,17.4,15.5,88,12.52,88,9.0,300.2,337.1,302.5
891.4,1146,17.4,15.4,88,12.46,88,9.1,300.3,337.0,302.5
890.8,1152,17.4,15.5,89,12.51,88,9.1,300.3,337.1,302.5
890.2,1158,17.3,15.5,89,12.57,89,9.2,300.3,337.3,302.5
889.5,1164,17.2,15.6,90,12.61,89,9.2,300.3,337.4,302.5
888.9,1170,17.2,15.6,90,12.61,90,9.3,300.3,337.5,302.5
888.2,1177,17.1,15.5,90,12.54,90,9.3,300.3,337.2,302.5
887.5,1183,17.1,15.3,89,12.39,90,9.4,300.3,336.8,302.5
886.9,1190,17.1,15.0,87,12.15,91,9.4,300.3,336.2,302.5
886.2,1196,17.1,14.7,86,11.92,91,9.4,300.4,335.6,302.5
885.5,1203,17.0,14.5,85,11.82,92,9.5,300.4,335.4,302.6
884.8,1209,17.0,14.4,85,11.77,92,9.5,300.5,335.3,302.6
884.2,1216,17.0,14.3,84,11.68,93,9.5,300.5,335.1,302.6
883.5,1222,17.0,14.2,83,11.57,93,9.6,300.6,334.8,302.7
882.9,1229,17.0,14.1,83,11.52,94,9.6,300.6,334.7,302.7
882.2,1235,16.9,14.1,83,11.51,94,9.6,300.7,334.7,302.7
881.5,1241,16.9,14.1,83,11.52,95,9.6,300.7,334.8,302.8
880.9,1248,16.9,14.0,83,11.49,95,9.6,300.7,334.7,302.8
880.2,1254,16.9,13.9,83,11.44,95,9.6,300.8,334.6,302.8
879.6,1260,16.8,13.8,83,11.38,96,9.6,300.8,334.5,302.9
878.9,1267,16.8,13.8,82,11.33,96,9.6,300.8,334.4,302.9
878.3,1273,16.8,13.7,82,11.29,96,9.6,300.9,334.3,302.9
877.7,1279,16.8,13.7,82,11.27,97,9.5,300.9,334.3,303.0
877.0,1285,16.8,13.6,82,11.26,97,9.5,301.0,334.3,303.0
876.4,1291,16.7,13.6,82,11.23,97,9.5,301.0,334.3,303.1
875.8,1297,16.7,13.6,82,11.22,97,9.5,301.1,334.3,303.1
875.2,1303,16.7,13.6,82,11.25,97,9.4,301.1,334.5,303.1
874.5,1309,16.7,13.7,83,11.32,98,9.4,301.1,334.7,303.2
873.9,1316,16.6,13.7,83,11.37,98,9.3,301.1,334.8,303.2
873.3,1322,16.5,13.7,84,11.38,98,9.3,301.1,334.9,303.2
872.6,1328,16.5,13.7,84,11.37,98,9.3,301.1,334.8,303.2
872.0,1334,16.4,13.7,84,11.37,98,9.2,301.1,334.8,303.2
871.4,1341,16.4,13.7,84,11.38,98,9.2,301.1,334.9,303.2
870.7,1347,16.3,13.7,84,11.36,98,9.1,301.2,334.8,303.2
870.1,1353,16.3,13.5,83,11.25,98,9.1,301.2,334.6,303.2
869.4,1359,16.3,13.3,82,11.08,98,9.0,301.3,334.2,303.3
868.8,1366,16.3,13.1,81,10.95,97,9.0,301.3,333.9,303.3
868.1,1372,16.3,13.0,81,10.90,97,8.9,301.4,333.7,303.3
867.5,1378,16.3,12.9,81,10.87,97,8.9,301.4,333.7,303.4
866.9,1385,16.2,12.9,81,10.85,97,8.9,301.4,333.7,303.4
866.2,1391,16.2,12.9,81,10.86,97,8.8,301.5,333.7,303.4
865.6,1397,16.1,12.9,81,10.87,97,8.8,301.4,333.7,303.4
864.9,1404,16.1,12.9,81,10.87,96,8.7,301.5,333.8,303.4
864.3,1410,16.0,12.9,82,10.88,96,8.7,301.5,333.8,303.4
863.6,1416,16.0,12.9,82,10.88,96,8.7,301.5,333.8,303.5
863.0,1423,15.9,12.8,82,10.86,96,8.7,301.5,333.8,303.5
862.4,1429,15.9,12.8,82,10.83,96,8.6,301.5,333.7,303.5
861.7,1435,15.8,12.8,82,10.82,95,8.6,301.5,333.7,303.5
861.1,1441,15.8,12.7,82,10.80,95,8.6,301.6,333.7,303.5
860.5,1447,15.8,12.7,82,10.77,95,8.6,301.6,333.6,303.5
859.9,1453,15.7,12.6,82,10.73,95,8.6,301.6,333.5,303.5
859.3,1459,15.7,12.6,82,10.70,95,8.6,301.6,333.4,303.5
858.7,1465,15.6,12.5,82,10.70,95,8.6,301.6,333.4,303.6
858.1,1471,15.6,12.6,82,10.73,95,8.6,301.6,333.5,303.6
857.5,1477,15.5,12.6,83,10.74,95,8.6,301.6,333.6,303.6
856.9,1483,15.5,12.6,83,10.73,95,8.6,301.6,333.6,303.6
856.3,1489,15.4,12.5,83,10.72,95,8.6,301.6,333.5,303.6
855.7,1495,15.4,12.5,83,10.70,95,8.7,301.7,333.5,303.6
855.1,1500,15.3,12.5,83,10.70,95,8.7,301.7,333.5,303.6
854.6,1506,15.3,12.5,83,10.73,95,8.7,301.7,333.6,303.6
854.0,1512,15.3,12.6,84,10.79,96,8.7,301.7,333.8,303.7
853.5,1517,15.2,12.6,84,10.82,96,8.8,301.7,333.9,303.7
852.9,1522,15.2,12.6,84,10.78,96,8.8,301.8,333.8,303.7
852.4,1527,15.1,12.5,84,10.73,96,8.9,301.7,333.7,303.7
851.9,1532,15.1,12.4,84,10.71,97,8.9,301.7,333.6,303.7
851.4,1537,15.0,12.5,85,10.74,97,9.0,301.7,333.7,303.7
850.9,1543,15.0,12.5,85,10.77,97,9.0,301.8,333.8,303.7
850.4,1548,15.0,12.5,85,10.81,98,9.1,301.8,333.9,303.7
850.0,1552,14.9,12.6,86,10.83,98,9.1,301.8,334.0,303.7
849.9,1553,14.9,12.6,86,10.84,98,9.1,301.8,334.0,303.7
849.3,1559,14.9,12.6,86,10.87,98,9.2,301.8,334.1,303.8
848.7,1564,14.8,12.6,87,10.89,98,9.2,301.8,334.2,303.8
848.2,1570,14.8,12.7,87,10.93,99,9.3,301.8,334.3,303.8
847.6,1576,14.7,12.7,88,10.96,99,9.3,301.8,334.4,303.8
847.0,1582,14.7,12.7,88,10.96,99,9.4,301.8,334.4,303.8
846.4,1587,14.6,12.7,88,10.98,99,9.4,301.8,334.5,303.8
845.9,1593,14.6,12.8,89,11.05,99,9.5,301.8,334.7,303.8
845.3,1599,14.5,12.9,90,11.17,99,9.5,301.8,335.0,303.9
844.7,1604,14.5,13.1,91,11.27,99,9.6,301.9,335.4,303.9
844.2,1610,14.5,13.1,91,11.29,99,9.6,301.9,335.4,303.9
843.6,1616,14.5,13.0,91,11.20,99,9.7,301.9,335.2,304.0
843.0,1621,14.5,12.8,90,11.07,99,9.7,302.0,334.9,304.0
842.5,1627,14.5,12.7,89,11.01,99,9.8,302.1,334.9,304.1
841.9,1633,14.5,12.7,89,11.01,99,9.8,302.1,334.9,304.1
841.4,1638,14.5,12.7,89,11.01,99,9.9,302.2,335.0,304.2
840.8,1644,14.5,12.6,89,11.00,98,9.9,302.2,335.0,304.2
840.2,1650,14.5,12.6,88,10.95,98,10.0,302.3,334.9,304.3
839.7,1655,14.4,12.5,88,10.89,98,10.0,302.3,334.8,304.3
839.1,1661,14.4,12.4,88,10.86,98,10.1,302.3,334.7,304.3
838.5,1667,14.4,12.4,88,10.85,97,10.1,302.4,334.7,304.3
837.9,1673,14.4,12.4,88,10.84,97,10.2,302.4,334.7,304.4
837.3,1679,14.3,12.4,88,10.85,96,10.2,302.4,334.8,304.4
836.7,1685,14.3,12.4,88,10.87,96,10.3,302.5,334.9,304.4
836.1,1691,14.2,12.4,89,10.86,96,10.3,302.5,334.9,304.4
835.5,1697,14.2,12.3,88,10.81,95,10.3,302.5,334.7,304.4
834.9,1703,14.1,12.2,88,10.75,95,10.4,302.5,334.6,304.4
834.3,1709,14.1,12.1,88,10.68,95,10.4,302.5,334.4,304.4
833.8,1715,14.1,12.0,87,10.60,94,10.4,302.5,334.2,304.4
833.2,1721,14.0,11.8,87,10.53,94,10.4,302.6,334.0,304.5
832.7,1726,14.0,11.7,86,10.44,94,10.5,302.6,333.8,304.5
832.2,1731,14.0,11.6,85,10.34,93,10.5,302.6,333.5,304.5
831.6,1737,14.0,11.4,84,10.22,93,10.5,302.6,333.2,304.5
831.1,1742,13.9,11.2,83,10.10,93,10.5,302.7,332.9,304.5
830.6,1748,13.9,11.1,83,10.02,92,10.5,302.7,332.7,304.6
830.0,1753,14.0,11.0,82,9.97,92,10.5,302.8,332.7,304.6
829.5,1759,14.0,11.0,82,9.97,92,10.5,302.9,332.7,304.7
828.9,1764,13.9,11.0,82,10.01,92,10.5,302.9,332.9,304.7
828.4,1770,13.9,11.1,83,10.04,92,10.5,302.9,333.0,304.7
827.8,1776,13.9,11.1,83,10.06,91,10.5,302.9,333.1,304.8
827.3,1781,13.8,11.1,83,10.06,91,10.5,302.9,333.1,304.8
826.7,1787,13.8,11.0,83,10.06,91,10.4,303.0,333.1,304.8
826.2,1793,13.8,11.0,83,10.06,91,10.4,303.1,333.2,304.9
825.6,1798,13.8,11.0,83,10.05,91,10.4,303.1,333.3,305.0
825.1,1804,13.8,10.9,83,9.99,91,10.4,303.2,333.1,305.0
824.5,1809,13.8,10.8,82,9.91,91,10.4,303.2,332.9,305.0
824.0,1815,13.8,10.6,81,9.78,90,10.4,303.3,332.6,305.0
823.5,1820,13.8,10.5,80,9.71,90,10.3,303.3,332.5,305.1
823.0,1825,13.8,10.6,81,9.78,90,10.3,303.4,332.7,305.2
822.4,1831,13.8,10.9,83,10.02,90,10.3,303.4,333.5,305.2
821.9,1836,13.7,11.3,86,10.30,90,10.3,303.4,334.3,305.3
821.3,1842,13.6,11.6,88,10.53,90,10.3,303.4,334.9,305.3
820.8,1848,13.6,11.8,89,10.67,90,10.3,303.3,335.3,305.3
820.2,1853,13.5,12.0,91,10.79,90,10.3,303.3,335.6,305.3
819.7,1859,13.4,12.1,92,10.88,90,10.3,303.3,335.9,305.3
819.1,1865,13.4,12.2,92,10.95,90,10.3,303.3,336.1,305.3
818.6,1870,13.3,12.2,93,10.98,90,10.3,303.3,336.2,305.3
818.1,1876,13.3,12.2,93,10.99,90,10.3,303.3,336.2,305.3
817.5,1881,13.3,12.2,93,10.98,90,10.3,303.4,336.3,305.4
817.0,1887,13.3,12.2,93,10.98,90,10.3,303.4,336.3,305.4
816.5,1892,13.3,12.2,93,10.97,90,10.4,303.5,336.4,305.5
816.0,1897,13.3,12.1,93,10.93,90,10.4,303.5,336.3,305.5
815.4,1903,13.3,12.0,92,10.87,90,10.4,303.6,336.2,305.6
814.9,1908,13.3,11.9,91,10.78,90,10.4,303.7,336.0,305.6
814.4,1914,13.3,11.6,90,10.63,90,10.5,303.8,335.7,305.7
813.8,1920,13.3,11.3,88,10.39,89,10.5,303.8,335.1,305.7
813.2,1926,13.3,10.8,84,10.04,89,10.6,303.9,334.1,305.8
812.7,1932,13.4,10.3,82,9.73,89,10.6,304.0,333.3,305.8
812.1,1938,13.4,10.2,81,9.65,89,10.6,304.1,333.2,305.9
811.5,1944,13.4,10.2,81,9.69,89,10.7,304.1,333.4,305.9
810.9,1950,13.3,10.2,81,9.69,89,10.8,304.2,333.4,305.9
810.4,1956,13.3,10.0,80,9.59,89,10.8,304.2,333.1,306.0
809.8,1962,13.3,9.9,80,9.52,89,10.9,304.3,333.0,306.0
809.2,1967,13.3,10.1,81,9.61,89,11.0,304.3,333.3,306.1
808.7,1973,13.3,10.5,83,9.89,89,11.0,304.3,334.1,306.1
808.1,1979,13.2,11.0,87,10.26,89,11.1,304.3,335.2,306.2
807.6,1985,13.1,11.4,89,10.51,90,11.2,304.3,335.9,306.2
807.0,1991,13.0,11.3,89,10.50,90,11.3,304.3,335.8,306.2
806.5,1996,13.0,11.1,88,10.35,90,11.4,304.3,335.4,306.2
805.9,2002,13.0,10.9,87,10.22,90,11.4,304.3,335.1,306.2
805.4,2008,13.0,10.8,86,10.13,90,11.5,304.4,334.9,306.3
804.8,2014,13.0,10.6,85,10.05,90,11.6,304.5,334.8,306.3
804.2,2020,13.0,10.5,85,9.99,91,11.7,304.5,334.6,306.4
803.7,2026,13.0,10.5,85,9.94,91,11.8,304.5,334.5,306.4
803.1,2032,12.9,10.4,84,9.90,91,11.9,304.6,334.4,306.4
802.5,2038,12.9,10.3,84,9.84,91,11.9,304.6,334.3,306.4
801.9,2044,12.9,10.2,84,9.80,92,12.0,304.6,334.2,306.4
801.4,2050,12.8,10.2,84,9.80,92,12.1,304.6,334.2,306.4
800.8,2056,12.8,10.2,84,9.81,92,12.1,304.7,334.3,306.5
800.3,2061,12.7,10.2,84,9.78,92,12.2,304.7,334.2,306.5
799.7,2067,12.7,10.1,84,9.75,93,12.2,304.7,334.1,306.5
799.2,2073,12.6,10.0,84,9.72,93,12.3,304.7,334.0,306.5
798.6,2079,12.6,10.0,84,9.69,93,12.3,304.7,334.0,306.5
798.1,2084,12.5,10.0,85,9.72,93,12.3,304.7,334.1,306.5
797.5,2090,12.5,10.1,86,9.80,93,12.4,304.7,334.3,306.5
