PRES,HGHT,TEMP,DWPT,RELH,MIXR,DRCT,SPED,THTA,THTE,THTV
1014.4,31,21.6,20.4,93,15.06,256,2.7,293.5,336.6,296.2
1013.8,36,21.9,20.5,92,15.10,265,1.5,293.9,337.1,296.5
1013.2,41,21.9,20.4,91,15.06,273,1.1,293.9,337.0,296.5
1012.7,45,22.0,20.3,90,14.97,278,1.0,294.1,337.0,296.7
1012.0,51,22.4,20.3,88,14.99,279,1.1,294.5,337.6,297.2
1011.5,55,22.6,20.2,87,14.93,280,1.1,294.8,337.7,297.4
1011.1,59,22.7,20.2,86,14.94,281,1.1,294.9,337.8,297.5
1010.5,64,22.8,20.4,86,15.07,283,1.1,295.0,338.4,297.7
1009.9,69,22.9,20.4,86,15.15,285,1.1,295.2,338.8,297.9
1009.3,75,23.1,20.5,85,15.20,288,1.1,295.4,339.2,298.1
1008.7,80,23.2,20.5,85,15.25,290,1.1,295.6,339.6,298.3
1008.1,85,23.3,20.5,84,15.24,293,1.0,295.8,339.8,298.5
1007.4,91,23.3,20.5,84,15.26,296,1.0,295.8,339.9,298.5
1006.8,96,23.3,20.5,84,15.27,299,1.0,295.9,340.0,298.6
1006.2,101,23.3,20.5,85,15.29,302,0.9,295.9,340.0,298.6
1005.6,106,23.2,20.5,85,15.31,306,0.9,295.9,340.1,298.6
1005.1,111,23.2,20.6,85,15.33,311,0.8,295.9,340.2,298.6
1004.5,116,23.2,20.6,85,15.34,315,0.8,295.9,340.2,298.7
1004.0,121,23.1,20.6,85,15.35,321,0.7,296.0,340.3,298.7
1003.4,126,23.1,20.6,86,15.36,327,0.6,296.0,340.3,298.7
1002.9,131,23.0,20.6,86,15.36,334,0.6,295.9,340.3,298.7
1002.3,136,23.0,20.6,86,15.41,342,0.5,296.0,340.5,298.7
1001.7,141,23.0,20.6,87,15.47,351,0.5,296.0,340.7,298.7
1001.1,146,22.9,20.7,87,15.51,3,0.4,296.0,340.8,298.7
1000.4,152,22.9,20.7,87,15.53,16,0.4,296.0,340.9,298.8
1000.0,156,22.9,20.7,87,15.55,16,0.4,296.0,340.9,298.8
999.7,158,22.9,20.7,88,15.56,31,0.4,296.1,341.0,298.8
999.1,164,22.9,20.7,88,15.60,46,0.4,296.1,341.2,298.9
998.4,169,22.8,20.7,88,15.58,59,0.4,296.1,341.1,298.9
997.8,175,22.8,20.7,88,15.56,71,0.5,296.1,341.1,298.9
997.2,180,22.7,20.7,88,15.62,80,0.6,296.1,341.3,298.9
996.6,186,22.7,20.8,89,15.67,88,0.6,296.2,341.5,298.9
996.0,191,22.7,20.8,89,15.67,94,0.7,296.2,341.5,298.9
995.4,196,22.7,20.8,89,15.74,99,0.8,296.2,341.7,299.0
994.8,201,22.6,20.9,90,15.84,104,0.9,296.2,342.0,299.0
994.3,206,22.6,21.0,91,15.90,107,0.9,296.2,342.1,299.0
993.7,211,22.5,20.9,91,15.89,111,1.0,296.2,342.1,299.0
993.2,216,22.5,21.0,91,15.93,113,1.1,296.2,342.2,299.0
992.6,221,22.4,21.0,92,15.99,116,1.2,296.2,342.4,299.0
992.0,226,22.4,21.0,92,16.03,118,1.2,296.2,342.5,299.0
991.5,231,22.3,21.1,93,16.04,120,1.3,296.2,342.6,299.0
990.9,236,22.3,21.1,93,16.07,121,1.4,296.2,342.7,299.0
990.3,241,22.2,21.1,93,16.13,123,1.4,296.2,342.8,299.1
989.8,245,22.2,21.1,94,16.15,124,1.5,296.2,342.9,299.1
989.2,250,22.1,21.1,94,16.17,126,1.5,296.2,343.0,299.1
988.7,255,22.1,21.1,94,16.18,127,1.5,296.2,343.0,299.1
988.1,260,22.0,21.1,95,16.19,128,1.6,296.2,343.0,299.1
987.6,265,22.0,21.1,95,16.18,129,1.6,296.2,343.0,299.1
987.0,270,22.0,21.1,95,16.15,130,1.6,296.2,342.9,299.1
986.5,274,21.9,21.0,95,16.07,130,1.6,296.2,342.7,299.1
986.0,279,21.9,20.9,94,15.97,131,1.7,296.2,342.4,299.1
985.5,283,21.9,20.8,94,15.92,132,1.7,296.2,342.3,299.1
985.0,287,21.8,20.8,94,15.90,133,1.7,296.3,342.2,299.1
984.5,292,21.8,20.8,94,15.90,133,1.7,296.3,342.2,299.1
984.1,296,21.8,20.8,94,15.89,134,1.7,296.3,342.2,299.1
983.6,300,21.7,20.8,94,15.91,134,1.6,296.3,342.3,299.1
983.1,304,21.7,20.8,95,15.91,134,1.6,296.3,342.3,299.1
982.6,309,21.6,20.7,95,15.88,134,1.6,296.3,342.2,299.1
982.1,313,21.6,20.7,94,15.82,133,1.6,296.3,342.0,299.1
981.7,317,21.6,20.6,94,15.79,133,1.6,296.3,342.0,299.1
981.2,321,21.5,20.6,95,15.79,132,1.6,296.3,342.0,299.1
980.7,326,21.5,20.6,95,15.80,132,1.6,296.3,342.0,299.1
980.2,330,21.5,20.6,95,15.79,131,1.6,296.3,341.9,299.1
979.8,334,21.4,20.6,95,15.76,130,1.6,296.3,341.8,299.1
979.3,338,21.4,20.5,95,15.72,128,1.6,296.3,341.8,299.1
978.8,342,21.3,20.5,95,15.68,127,1.6,296.3,341.7,299.1
978.4,346,21.3,20.4,95,15.63,126,1.6,296.3,341.5,299.1
978.0,350,21.3,20.4,94,15.58,124,1.6,296.3,341.4,299.1
977.5,354,21.3,20.3,94,15.54,123,1.6,296.3,341.3,299.1
977.1,358,21.2,20.3,94,15.52,122,1.6,296.3,341.2,299.1
976.6,362,21.2,20.3,95,15.55,120,1.6,296.3,341.3,299.1
976.2,365,21.2,20.3,95,15.59,119,1.6,296.3,341.4,299.1
975.8,369,21.1,20.4,95,15.62,118,1.6,296.3,341.5,299.1
975.3,373,21.1,20.4,96,15.63,117,1.7,296.3,341.6,299.1
974.9,377,21.1,20.4,96,15.63,116,1.7,296.3,341.5,299.1
974.4,382,21.0,20.4,96,15.68,116,1.7,296.4,341.7,299.1
973.9,386,21.0,20.5,97,15.73,115,1.7,296.4,341.9,299.1
973.4,391,20.9,20.5,97,15.78,115,1.8,296.4,342.0,299.2
972.9,395,20.9,20.5,98,15.79,115,1.8,296.3,342.0,299.1
972.3,400,20.8,20.5,98,15.76,115,1.8,296.3,341.9,299.1
971.8,405,20.8,20.4,98,15.70,115,1.8,296.3,341.7,299.1
971.2,410,20.7,20.3,97,15.60,116,1.9,296.4,341.5,299.1
970.7,415,20.7,20.1,96,15.42,116,1.9,296.4,341.0,299.1
970.1,420,20.7,19.8,95,15.20,117,1.9,296.4,340.4,299.1
969.5,425,20.7,19.6,94,15.01,117,1.9,296.4,339.9,299.1
969.0,430,20.7,19.6,93,14.95,118,1.9,296.5,339.7,299.1
968.4,435,20.6,19.6,94,14.99,119,1.9,296.5,339.9,299.1
967.9,440,20.6,19.7,95,15.11,120,1.9,296.5,340.2,299.2
967.4,445,20.5,19.9,96,15.25,120,2.0,296.5,340.6,299.2
966.8,449,20.5,20.0,97,15.36,121,2.0,296.4,340.9,299.2
966.3,454,20.4,20.0,98,15.40,122,2.0,296.4,341.0,299.2
965.8,459,20.3,19.9,97,15.33,123,2.0,296.4,340.8,299.1
965.2,464,20.3,19.7,97,15.16,123,2.0,296.4,340.3,299.1
964.6,469,20.3,19.6,96,15.03,123,2.0,296.5,340.0,299.1
964.0,475,20.3,19.6,96,15.02,124,2.0,296.5,340.0,299.2
963.4,480,20.2,19.6,96,15.07,124,2.0,296.5,340.1,299.2
962.8,486,20.2,19.6,96,15.06,124,2.0,296.5,340.1,299.2
962.2,491,20.1,19.5,96,14.96,123,2.0,296.5,339.8,299.2
961.6,496,20.1,19.3,96,14.84,123,2.0,296.5,339.5,299.1
961.0,502,20.0,19.2,95,14.76,123,2.0,296.5,339.3,299.2
960.4,507,20.0,19.1,95,14.68,122,2.0,296.6,339.1,299.2
959.9,512,20.0,19.0,94,14.57,121,2.0,296.6,338.8,299.2
959.3,517,20.0,18.9,94,14.52,120,2.0,296.6,338.7,299.2
958.8,522,20.0,18.9,94,14.50,120,2.0,296.7,338.7,299.2
958.2,527,19.9,18.9,94,14.49,119,2.0,296.7,338.7,299.3
957.7,532,19.9,18.9,94,14.47,118,2.0,296.7,338.6,299.3
957.2,537,19.9,18.8,94,14.43,116,2.0,296.7,338.5,299.3
956.6,542,19.8,18.7,93,14.37,115,2.1,296.7,338.4,299.3
956.0,547,19.8,18.6,93,14.29,114,2.1,296.7,338.2,299.3
955.5,552,19.8,18.5,92,14.21,113,2.1,296.8,338.0,299.3
954.9,557,19.8,18.5,92,14.16,112,2.1,296.8,337.9,299.3
954.3,562,19.8,18.4,92,14.12,111,2.1,296.8,337.8,299.4
953.8,567,19.7,18.4,92,14.09,110,2.1,296.8,337.7,299.4
953.2,572,19.7,18.4,92,14.10,109,2.2,296.8,337.7,299.4
952.6,577,19.6,18.4,93,14.13,109,2.2,296.9,337.8,299.4
952.1,583,19.6,18.4,93,14.12,108,2.2,296.9,337.8,299.4
951.5,588,19.5,18.3,93,14.08,108,2.2,296.9,337.7,299.4
950.9,593,19.5,18.3,93,14.02,107,2.3,296.9,337.6,299.4
950.3,598,19.5,18.2,92,13.98,107,2.3,296.9,337.5,299.4
949.8,604,19.4,18.2,92,13.94,107,2.3,296.9,337.4,299.4
949.2,609,19.4,18.1,92,13.90,107,2.3,296.9,337.3,299.4
948.6,614,19.3,18.0,92,13.84,107,2.3,296.9,337.1,299.4
948.1,619,19.3,17.9,92,13.75,107,2.4,296.9,336.8,299.4
947.5,624,19.3,17.8,91,13.69,108,2.4,297.0,336.7,299.4
947.0,629,19.3,17.8,91,13.67,108,2.4,297.0,336.7,299.4
946.4,634,19.2,17.8,91,13.67,108,2.4,297.0,336.7,299.4
945.9,639,19.2,17.8,92,13.66,108,2.5,297.0,336.7,299.4
945.3,644,19.2,17.7,91,13.63,109,2.5,297.0,336.6,299.5
944.8,649,19.1,17.7,91,13.59,109,2.5,297.0,336.5,299.5
944.2,654,19.1,17.6,91,13.51,110,2.5,297.1,336.3,299.5
943.7,659,19.1,17.4,90,13.40,110,2.5,297.1,336.0,299.5
943.1,665,19.1,17.2,89,13.21,110,2.5,297.1,335.5,299.5
942.5,670,19.1,17.0,87,13.02,111,2.5,297.2,335.1,299.6
941.9,676,19.1,16.9,87,12.94,111,2.6,297.3,335.0,299.6
941.3,681,19.1,16.9,87,12.95,111,2.6,297.4,335.1,299.7
940.7,686,19.1,16.9,87,12.95,111,2.6,297.4,335.1,299.7
940.1,692,19.0,16.8,87,12.93,111,2.5,297.4,335.0,299.7
939.6,697,19.0,16.8,87,12.92,112,2.5,297.4,335.0,299.7
939.0,702,19.0,16.8,87,12.94,112,2.5,297.4,335.1,299.7
938.5,706,18.9,16.8,88,12.96,112,2.5,297.4,335.2,299.7
938.0,711,18.9,16.8,88,12.97,112,2.5,297.5,335.2,299.8
937.5,716,18.9,16.8,88,12.98,112,2.5,297.5,335.3,299.8
936.9,721,18.8,16.8,88,12.96,112,2.4,297.5,335.2,299.8
936.4,726,18.8,16.8,88,12.95,112,2.4,297.5,335.2,299.8
935.8,731,18.8,16.8,88,12.96,112,2.4,297.5,335.2,299.8
935.2,736,18.7,16.9,89,13.04,112,2.3,297.5,335.5,299.8
934.7,742,18.7,17.0,90,13.14,111,2.3,297.5,335.8,299.9
934.1,747,18.7,17.0,90,13.20,111,2.3,297.6,336.0,299.9
933.5,752,18.6,17.1,91,13.22,111,2.2,297.6,336.1,299.9
932.9,758,18.6,17.0,91,13.22,111,2.2,297.6,336.1,299.9
932.3,763,18.5,17.0,91,13.22,112,2.1,297.6,336.1,299.9
931.8,768,18.5,17.0,91,13.21,112,2.1,297.6,336.1,300.0
931.2,774,18.5,17.0,91,13.22,112,2.0,297.6,336.1,300.0
930.6,779,18.4,17.0,91,13.22,112,2.0,297.6,336.1,300.0
930.1,784,18.4,17.0,92,13.22,112,1.9,297.6,336.2,300.0
929.5,789,18.4,17.0,92,13.22,113,1.9,297.7,336.2,300.0
928.9,795,18.3,16.9,92,13.19,113,1.9,297.7,336.1,300.1
928.3,800,18.3,16.8,91,13.09,114,1.8,297.7,335.9,300.0
927.8,805,18.3,16.5,89,12.84,115,1.8,297.7,335.2,300.0
927.2,811,18.3,15.9,86,12.36,116,1.7,297.8,333.9,300.0
926.6,816,18.4,15.1,81,11.72,117,1.7,298.0,332.2,300.1
926.0,822,18.5,14.4,77,11.23,118,1.7,298.1,331.0,300.1
925.4,827,18.5,14.2,76,11.10,119,1.6,298.2,330.7,300.2
925.0,831,18.5,14.3,76,11.14,119,1.6,298.2,330.9,300.2
924.8,833,18.5,14.3,76,11.16,120,1.6,298.3,330.9,300.3
924.3,838,18.5,14.4,77,11.20,121,1.6,298.3,331.1,300.3
923.7,843,18.4,14.4,77,11.21,122,1.5,298.3,331.1,300.3
923.2,848,18.4,14.3,77,11.18,124,1.5,298.3,331.0,300.3
922.6,854,18.3,14.2,77,11.10,125,1.5,298.3,330.8,300.3
922.0,859,18.3,14.0,76,10.99,127,1.5,298.3,330.5,300.3
921.4,864,18.3,13.9,76,10.89,128,1.4,298.3,330.3,300.3
920.8,870,18.2,13.7,75,10.76,130,1.4,298.3,329.9,300.3
920.3,875,18.2,13.4,73,10.53,131,1.4,298.4,329.3,300.3
919.7,881,18.2,13.2,72,10.40,132,1.4,298.4,329.0,300.3
919.1,886,18.2,13.2,72,10.41,134,1.4,298.5,329.1,300.3
918.5,891,18.2,13.2,73,10.44,135,1.3,298.5,329.1,300.4
918.0,897,18.1,13.2,73,10.43,135,1.3,298.5,329.1,300.4
917.4,902,18.1,13.1,73,10.39,136,1.3,298.5,329.0,300.4
916.9,907,18.0,13.1,73,10.35,137,1.3,298.5,328.9,300.4
916.4,911,18.0,13.0,73,10.33,137,1.3,298.5,328.9,300.4
915.9,916,18.0,13.1,73,10.37,137,1.3,298.5,329.0,300.4
915.4,921,17.9,13.1,74,10.43,137,1.3,298.5,329.1,300.4
914.9,925,17.9,13.2,74,10.46,136,1.3,298.5,329.3,300.4
914.4,930,17.9,13.2,74,10.48,136,1.3,298.5,329.3,300.4
913.9,934,17.8,13.2,74,10.48,135,1.3,298.5,329.3,300.4
913.5,939,17.8,13.1,74,10.43,134,1.3,298.5,329.2,300.4
912.9,944,17.8,12.9,73,10.33,133,1.3,298.6,328.9,300.4
912.4,949,17.8,12.7,72,10.18,132,1.3,298.6,328.6,300.5
911.9,954,17.8,12.6,72,10.07,131,1.3,298.7,328.3,300.5
911.3,959,17.7,12.5,71,10.05,130,1.3,298.7,328.3,300.5
910.8,964,17.7,12.5,72,10.08,129,1.3,298.7,328.4,300.5
910.2,969,17.6,12.6,72,10.12,129,1.4,298.7,328.5,300.5
909.7,975,17.6,12.6,73,10.14,128,1.4,298.7,328.6,300.5
909.1,980,17.6,12.6,73,10.16,127,1.4,298.7,328.6,300.6
908.6,985,17.5,12.7,73,10.21,127,1.4,298.7,328.8,300.6
908.1,989,17.5,12.8,74,10.28,127,1.4,298.7,329.0,300.6
907.6,994,17.5,12.9,75,10.38,127,1.5,298.8,329.3,300.6
907.1,999,17.5,13.0,75,10.44,127,1.5,298.8,329.5,300.7
906.6,1004,17.5,12.9,75,10.38,127,1.5,298.9,329.4,300.7
906.1,1008,17.4,12.8,74,10.27,128,1.5,298.9,329.1,300.7
905.6,1013,17.4,12.7,74,10.21,129,1.6,298.9,328.9,300.7
905.0,1018,17.4,12.6,74,10.19,129,1.6,298.9,328.9,300.7
904.5,1023,17.3,12.6,74,10.20,130,1.6,298.9,328.9,300.7
904.0,1028,17.3,12.6,74,10.21,131,1.6,298.9,329.0,300.8
903.4,1033,17.2,12.6,74,10.22,133,1.6,298.9,329.0,300.8
902.9,1039,17.2,12.6,74,10.21,134,1.7,298.9,329.0,300.8
902.3,1044,17.1,12.6,75,10.23,135,1.7,298.9,329.1,300.8
901.8,1049,17.1,12.7,75,10.26,136,1.7,298.9,329.2,300.8
901.2,1054,17.1,12.8,76,10.34,137,1.8,299.0,329.4,300.8
900.7,1060,17.0,12.9,77,10.46,139,1.8,299.0,329.8,300.9
900.1,1065,17.0,13.2,79,10.67,140,1.8,299.0,330.4,300.9
899.6,1070,17.0,13.6,81,10.98,141,1.8,299.0,331.3,301.0
899.1,1075,16.9,14.0,83,11.26,142,1.9,299.0,332.1,301.0
898.5,1080,16.9,14.3,85,11.50,142,1.9,299.0,332.8,301.1
898.0,1085,16.8,14.5,86,11.65,143,1.9,299.0,333.2,301.1
897.5,1090,16.8,14.5,87,11.68,143,2.0,299.0,333.3,301.1
896.9,1095,16.7,14.5,87,11.66,144,2.0,299.0,333.3,301.1
896.4,1100,16.7,14.5,87,11.68,144,2.0,299.0,333.3,301.1
895.9,1105,16.7,14.6,88,11.75,145,2.1,299.0,333.5,301.2
895.4,1110,16.6,14.7,88,11.84,145,2.1,299.1,333.8,301.2
894.8,1115,16.6,14.8,89,11.90,145,2.1,299.1,334.0,301.2
894.3,1120,16.6,14.8,89,11.91,145,2.2,299.1,334.1,301.3
893.8,1125,16.5,14.8,89,11.92,145,2.2,299.1,334.1,301.3
893.3,1130,16.5,14.8,90,11.95,144,2.2,299.2,334.2,301.3
892.8,1135,16.5,14.8,90,11.94,144,2.2,299.2,334.2,301.3
892.2,1140,16.5,14.7,89,11.90,143,2.3,299.2,334.2,301.4
891.7,1145,16.5,14.7,89,11.87,143,2.3,299.3,334.1,301.4
891.2,1150,16.5,14.7,89,11.86,142,2.3,299.3,334.2,301.5
890.6,1156,16.5,14.7,89,11.86,142,2.4,299.4,334.3,301.5
890.0,1161,16.5,14.7,89,11.88,141,2.4,299.4,334.4,301.6
889.4,1167,16.5,14.7,89,11.87,140,2.4,299.5,334.4,301.6
888.8,1173,16.4,14.6,89,11.83,140,2.5,299.5,334.3,301.6
888.2,1179,16.4,14.5,89,11.76,139,2.5,299.5,334.1,301.6
887.6,1184,16.4,14.5,89,11.75,138,2.5,299.5,334.1,301.6
887.0,1190,16.3,14.5,89,11.75,137,2.6,299.6,334.2,301.7
886.5,1195,16.3,14.4,88,11.73,136,2.6,299.6,334.1,301.7
885.9,1201,16.3,14.4,88,11.70,135,2.6,299.7,334.1,301.8
885.4,1206,16.3,14.4,88,11.70,134,2.7,299.7,334.1,301.8
884.9,1211,16.3,14.3,88,11.69,133,2.7,299.7,334.1,301.8
884.3,1216,16.2,14.3,88,11.69,133,2.7,299.7,334.2,301.8
883.8,1221,16.2,14.3,89,11.69,132,2.8,299.7,334.2,301.8
883.3,1226,16.2,14.3,89,11.71,131,2.8,299.8,334.2,301.9
882.8,1231,16.1,14.3,89,11.72,130,2.9,299.8,334.3,301.9
882.2,1236,16.1,14.3,89,11.70,129,2.9,299.8,334.2,301.9
881.7,1241,16.1,14.2,89,11.66,128,3.0,299.8,334.1,301.9
881.2,1246,16.0,14.2,89,11.64,127,3.0,299.8,334.1,301.9
880.6,1252,16.0,14.2,89,11.60,126,3.1,299.8,334.0,301.9
880.1,1257,15.9,14.1,89,11.57,126,3.1,299.8,333.9,301.9
879.5,1262,15.9,14.1,89,11.57,125,3.2,299.8,333.9,301.9
879.0,1267,15.9,14.1,89,11.58,124,3.2,299.8,334.0,301.9
878.5,1273,15.8,14.1,90,11.60,124,3.3,299.9,334.1,302.0
878.0,1277,15.8,14.1,90,11.62,123,3.3,299.9,334.1,302.0
877.5,1282,15.8,14.1,90,11.62,123,3.4,299.9,334.2,302.0
877.0,1287,15.8,14.1,90,11.62,122,3.5,300.0,334.2,302.1
876.5,1291,15.7,14.1,90,11.61,122,3.5,300.0,334.2,302.1
876.1,1296,15.7,14.1,90,11.63,121,3.6,300.0,334.3,302.1
875.6,1300,15.7,14.2,91,11.67,121,3.6,300.0,334.4,302.1
875.2,1305,15.6,14.2,91,11.72,121,3.7,300.0,334.5,302.1
874.7,1309,15.6,14.2,92,11.75,120,3.8,300.0,334.6,302.1
874.2,1314,15.5,14.3,92,11.78,120,3.8,300.0,334.7,302.1
873.7,1319,15.5,14.3,92,11.78,120,3.9,300.0,334.7,302.1
873.2,1324,15.4,14.3,93,11.78,120,3.9,300.0,334.7,302.1
872.7,1329,15.4,14.2,93,11.78,119,4.0,300.0,334.7,302.1
872.1,1334,15.3,14.2,93,11.78,119,4.0,300.0,334.7,302.1
871.6,1340,15.3,14.2,93,11.78,119,4.1,300.0,334.7,302.1
871.0,1345,15.3,14.2,93,11.77,118,4.1,300.0,334.7,302.1
870.5,1350,15.2,14.2,93,11.76,118,4.2,300.0,334.7,302.1
869.9,1356,15.2,14.2,94,11.76,118,4.2,300.1,334.7,302.2
869.3,1361,15.2,14.1,94,11.74,117,4.3,300.1,334.7,302.2
868.8,1367,15.1,14.1,94,11.73,117,4.3,300.1,334.7,302.2
868.2,1373,15.1,14.1,94,11.74,117,4.4,300.1,334.7,302.2
867.6,1378,15.1,14.1,94,11.76,116,4.4,300.2,334.9,302.3
867.0,1384,15.0,14.1,94,11.78,116,4.4,300.2,334.9,302.3
866.5,1390,15.0,14.2,95,11.82,116,4.5,300.2,335.0,302.3
865.9,1395,14.9,14.2,95,11.84,115,4.5,300.2,335.1,302.3
865.3,1401,14.9,14.2,96,11.83,115,4.5,300.2,335.1,302.3
864.8,1406,14.8,14.1,95,11.79,114,4.5,300.2,335.0,302.3
864.3,1411,14.8,14.1,95,11.76,114,4.5,300.2,334.9,302.3
863.7,1416,14.8,14.1,96,11.76,114,4.5,300.2,334.9,302.3
863.3,1421,14.7,14.1,96,11.76,113,4.5,300.2,334.9,302.3
862.8,1426,14.7,14.1,96,11.78,113,4.5,300.2,335.0,302.3
862.3,1430,14.6,14.1,96,11.79,113,4.5,300.2,335.0,302.4
861.8,1435,14.6,14.1,97,11.82,112,4.5,300.2,335.1,302.4
861.4,1440,14.6,14.2,97,11.87,112,4.4,300.2,335.3,302.4
860.9,1445,14.5,14.2,98,11.89,112,4.4,300.2,335.3,302.4
860.4,1449,14.5,14.1,98,11.87,112,4.3,300.2,335.2,302.4
859.9,1454,14.4,14.1,98,11.81,112,4.3,300.2,335.1,302.4
859.4,1459,14.4,14.0,98,11.77,112,4.2,300.2,335.0,302.4
858.9,1464,14.3,14.0,98,11.76,112,4.2,300.2,334.9,302.4
858.4,1469,14.3,13.9,98,11.75,112,4.1,300.3,334.9,302.4
857.9,1474,14.3,13.9,98,11.71,112,4.0,300.3,334.8,302.4
857.4,1479,14.2,13.9,98,11.69,112,3.9,300.3,334.8,302.4
856.9,1484,14.2,13.9,98,11.71,112,3.8,300.3,334.8,302.4
856.4,1489,14.2,13.9,98,11.73,112,3.7,300.3,334.9,302.4
855.9,1494,14.1,13.9,99,11.75,113,3.7,300.3,335.0,302.4
855.3,1499,14.1,13.9,99,11.76,113,3.6,300.3,335.0,302.5
854.8,1505,14.0,13.9,99,11.73,114,3.5,300.4,335.0,302.5
854.2,1510,14.0,13.8,98,11.68,114,3.4,300.4,334.9,302.5
853.7,1516,14.0,13.7,98,11.64,115,3.3,300.5,334.8,302.6
853.1,1521,14.0,13.7,98,11.62,115,3.2,300.5,334.8,302.6
852.6,1527,14.0,13.7,98,11.63,116,3.1,300.5,334.9,302.6
852.0,1532,13.9,13.7,99,11.67,117,3.0,300.5,335.0,302.6
851.4,1538,13.9,13.7,99,11.69,117,2.9,300.5,335.1,302.7
850.9,1544,13.9,13.7,99,11.66,118,2.8,300.5,335.0,302.7
850.3,1549,13.8,13.6,99,11.61,119,2.8,300.6,334.9,302.7
850.0,1552,13.8,13.6,99,11.60,119,2.8,300.6,334.9,302.7
849.8,1555,13.8,13.6,99,11.59,119,2.7,300.6,334.8,302.7
849.2,1560,13.8,13.6,99,11.59,120,2.6,300.6,334.9,302.7
848.7,1565,13.7,13.6,99,11.58,121,2.6,300.6,334.9,302.7
848.1,1571,13.7,13.5,99,11.55,122,2.5,300.7,334.8,302.7
847.6,1576,13.6,13.4,99,11.50,122,2.5,300.6,334.6,302.7
847.1,1581,13.6,13.4,99,11.49,123,2.4,300.7,334.6,302.7
846.6,1586,13.6,13.4,99,11.53,123,2.4,300.7,334.8,302.8
846.1,1591,13.6,13.4,99,11.52,123,2.4,300.7,334.8,302.8
845.6,1596,13.5,13.4,99,11.52,124,2.3,300.7,334.8,302.8
845.1,1601,13.5,13.4,99,11.53,124,2.3,300.8,334.9,302.9
844.6,1606,13.5,13.4,99,11.50,124,2.3,300.8,334.8,302.9
844.1,1611,13.5,13.2,98,11.38,124,2.3,300.8,334.5,302.9
843.6,1616,13.4,12.9,96,11.13,124,2.2,300.8,333.8,302.8
843.1,1621,13.4,12.4,94,10.81,124,2.2,300.8,332.9,302.8
842.6,1626,13.4,12.2,92,10.64,124,2.2,300.9,332.4,302.8
842.1,1631,13.4,12.1,92,10.63,124,2.2,301.0,332.5,302.9
841.5,1637,13.5,12.2,92,10.66,124,2.2,301.1,332.8,303.1
841.0,1642,13.5,12.2,92,10.70,124,2.2,301.2,333.0,303.1
840.5,1648,13.5,12.2,92,10.70,124,2.2,301.3,333.0,303.2
839.9,1653,13.5,12.2,92,10.69,124,2.2,301.3,333.1,303.3
839.4,1659,13.5,12.2,92,10.70,124,2.2,301.3,333.1,303.3
838.8,1664,13.5,12.2,92,10.68,124,2.2,301.4,333.1,303.3
838.3,1670,13.4,12.1,92,10.62,124,2.2,301.4,332.9,303.3
837.7,1675,13.4,12.1,92,10.62,124,2.2,301.4,332.9,303.3
837.1,1681,13.3,12.1,92,10.63,125,2.2,301.4,333.0,303.3
836.6,1687,13.3,12.1,92,10.63,125,2.2,301.4,333.0,303.3
836.0,1692,13.2,12.0,92,10.59,126,2.2,301.4,332.9,303.3
835.4,1698,13.2,11.9,92,10.55,126,2.2,301.4,332.8,303.3
834.9,1704,13.1,11.9,92,10.54,127,2.2,301.4,332.7,303.3
834.3,1710,13.1,11.9,93,10.55,127,2.2,301.4,332.8,303.3
833.7,1715,13.0,11.9,93,10.56,128,2.2,301.4,332.8,303.3
833.2,1721,13.0,11.9,94,10.60,129,2.2,301.4,332.9,303.3
832.6,1727,12.9,12.0,94,10.63,129,2.2,301.4,333.0,303.3
832.0,1733,12.8,12.0,95,10.65,130,2.2,301.4,333.0,303.3
831.4,1739,12.8,12.0,95,10.65,131,2.2,301.4,333.0,303.3
830.8,1745,12.7,12.0,95,10.64,131,2.2,301.4,333.0,303.3
830.2,1751,12.7,11.9,95,10.61,132,2.2,301.4,332.9,303.3
829.6,1757,12.6,11.8,95,10.55,133,2.2,301.4,332.7,303.3
829.1,1763,12.5,11.7,95,10.47,133,2.2,301.4,332.5,303.3
828.5,1768,12.5,11.7,95,10.45,133,2.2,301.4,332.5,303.3
828.0,1774,12.5,11.7,95,10.52,133,2.1,301.4,332.7,303.3
827.5,1779,12.4,11.8,96,10.57,133,2.1,301.4,332.8,303.3
827.0,1784,12.3,11.8,96,10.56,133,2.1,301.4,332.8,303.3
826.5,1789,12.3,11.7,96,10.53,133,2.1,301.4,332.7,303.3
826.0,1794,12.2,11.7,96,10.49,132,2.1,301.4,332.6,303.3
825.6,1798,12.2,11.6,96,10.44,131,2.1,301.4,332.4,303.3
825.1,1803,12.2,11.5,96,10.41,130,2.0,301.4,332.4,303.3
824.7,1807,12.1,11.6,96,10.44,129,2.0,301.4,332.5,303.3
824.3,1812,12.1,11.7,97,10.53,127,2.0,301.4,332.7,303.3
823.8,1816,12.1,11.8,98,10.63,125,2.0,301.4,333.0,303.4
823.4,1821,12.0,11.9,99,10.68,123,2.0,301.4,333.2,303.4
822.9,1825,12.0,11.9,99,10.69,121,2.0,301.5,333.2,303.4
822.4,1830,11.9,11.8,99,10.67,118,2.0,301.5,333.2,303.4
