PRES,HGHT,TEMP,DWPT,RELH,MIXR,DRCT,SPED,THTA,THTE,THTV
1019.2,31,24.0,18.0,69,12.84,53,7.0,295.5,332.6,297.8
1018.9,33,23.9,18.9,74,13.63,56,5.5,295.5,334.8,297.9
1018.5,37,23.8,18.6,73,13.34,58,5.0,295.4,333.9,297.8
1018.1,40,23.7,18.5,73,13.29,59,5.1,295.4,333.7,297.7
1017.3,47,23.5,18.5,74,13.32,59,5.5,295.2,333.6,297.6
1016.4,54,23.3,18.5,74,13.29,59,6.0,295.1,333.4,297.5
1015.6,62,23.1,18.3,74,13.13,59,6.5,295.0,332.8,297.3
1015.0,67,23.0,18.0,73,12.88,59,6.9,294.9,331.9,297.1
1014.3,73,22.8,17.6,72,12.60,59,7.4,294.8,331.1,297.0
1013.6,79,22.6,17.3,72,12.34,59,7.8,294.6,330.2,296.8
1012.9,84,22.4,16.9,71,12.06,59,8.2,294.5,329.2,296.6
1012.3,90,22.2,16.7,71,11.86,59,8.6,294.3,328.4,296.4
1011.7,95,22.1,16.6,71,11.86,59,8.9,294.3,328.4,296.4
1011.0,101,22.1,16.7,72,11.90,59,9.3,294.3,328.5,296.4
1010.4,106,22.0,16.6,72,11.84,59,9.6,294.3,328.3,296.4
1009.7,112,21.9,16.5,71,11.78,59,9.9,294.3,328.2,296.3
1009.1,117,21.9,16.5,72,11.77,59,10.2,294.2,328.1,296.3
1008.5,123,21.8,16.5,72,11.76,59,10.4,294.2,328.1,296.3
1007.8,128,21.8,16.5,72,11.76,59,10.7,294.3,328.1,296.3
1007.2,134,21.7,16.4,72,11.75,59,10.9,294.3,328.1,296.3
1006.5,140,21.7,16.4,72,11.74,59,11.1,294.3,328.0,296.3
1005.9,145,21.6,16.4,72,11.73,59,11.2,294.2,328.0,296.3
1005.3,150,21.6,16.4,72,11.71,59,11.3,294.3,328.0,296.3
1004.6,156,21.5,16.3,72,11.70,59,11.5,294.3,327.9,296.3
1004.0,161,21.4,16.4,73,11.73,59,11.5,294.3,328.0,296.3
1003.4,167,21.4,16.4,73,11.79,59,11.6,294.3,328.2,296.3
1002.8,172,21.3,16.4,74,11.81,58,11.7,294.3,328.2,296.3
1002.1,178,21.3,16.4,74,11.76,58,11.7,294.3,328.1,296.3
1001.5,183,21.2,16.3,74,11.72,58,11.7,294.2,328.0,296.3
1000.9,188,21.2,16.3,74,11.70,58,11.7,294.2,327.9,296.3
1000.3,194,21.1,16.3,74,11.71,58,11.7,294.2,327.9,296.3
1000.0,196,21.1,16.3,74,11.71,58,11.7,294.2,328.0,296.3
999.6,199,21.1,16.3,74,11.73,58,11.7,294.2,328.0,296.3
999.0,205,21.0,16.3,74,11.74,58,11.7,294.2,328.0,296.3
998.3,210,21.0,16.3,75,11.76,57,11.7,294.3,328.1,296.3
997.7,216,20.9,16.3,75,11.76,57,11.7,294.2,328.1,296.3
997.1,221,20.8,16.3,75,11.75,57,11.7,294.2,328.0,296.3
996.5,227,20.8,16.2,75,11.72,57,11.7,294.2,328.0,296.3
995.9,232,20.7,16.2,75,11.72,57,11.7,294.2,328.0,296.3
995.3,237,20.7,16.2,76,11.74,56,11.7,294.2,328.0,296.3
994.8,242,20.6,16.2,76,11.75,56,11.7,294.2,328.0,296.3
994.2,246,20.6,16.2,76,11.75,56,11.7,294.2,328.0,296.3
993.7,251,20.5,16.2,76,11.77,56,11.7,294.2,328.1,296.3
993.2,255,20.5,16.2,77,11.77,56,11.7,294.2,328.1,296.3
992.7,260,20.5,16.2,77,11.76,56,11.7,294.2,328.0,296.3
992.2,264,20.4,16.2,77,11.75,55,11.7,294.2,328.0,296.3
991.6,269,20.4,16.2,77,11.78,55,11.7,294.2,328.1,296.3
991.1,273,20.3,16.2,77,11.80,55,11.8,294.2,328.2,296.3
990.6,278,20.3,16.2,77,11.77,55,11.8,294.2,328.1,296.3
990.1,282,20.3,16.1,77,11.73,55,11.8,294.2,328.0,296.3
989.6,286,20.2,16.1,77,11.72,55,11.9,294.2,327.9,296.3
989.1,291,20.2,16.1,77,11.71,55,11.9,294.2,328.0,296.3
988.6,295,20.1,16.1,78,11.73,56,11.9,294.3,328.0,296.3
988.2,299,20.1,16.2,78,11.76,56,12.0,294.2,328.1,296.3
987.6,304,20.1,16.2,78,11.79,56,12.0,294.3,328.2,296.3
987.1,308,20.0,16.2,79,11.79,56,12.0,294.2,328.2,296.3
986.6,313,20.0,16.2,79,11.78,56,12.0,294.2,328.1,296.3
986.0,318,19.9,16.2,79,11.79,57,12.1,294.2,328.2,296.3
985.5,323,19.9,16.2,79,11.80,57,12.1,294.2,328.2,296.3
984.9,328,19.8,16.1,79,11.80,58,12.1,294.2,328.2,296.3
984.3,333,19.8,16.1,79,11.78,58,12.1,294.2,328.1,296.3
983.8,337,19.7,16.1,80,11.77,58,12.1,294.2,328.1,296.3
983.2,342,19.7,16.1,80,11.78,59,12.2,294.3,328.1,296.3
982.7,347,19.7,16.1,80,11.80,60,12.2,294.3,328.2,296.3
982.1,352,19.6,16.2,80,11.84,60,12.2,294.3,328.3,296.4
981.5,357,19.6,16.2,81,11.86,61,12.2,294.3,328.4,296.4
980.9,363,19.5,16.2,81,11.85,61,12.2,294.3,328.4,296.4
980.3,368,19.5,16.1,81,11.83,62,12.2,294.3,328.3,296.4
979.7,374,19.4,16.1,81,11.84,63,12.2,294.3,328.3,296.4
979.0,380,19.4,16.1,82,11.85,63,12.2,294.3,328.4,296.4
978.4,385,19.3,16.1,82,11.84,64,12.2,294.3,328.3,296.4
977.7,391,19.2,16.0,82,11.81,65,12.1,294.3,328.2,296.3
977.0,397,19.2,16.0,82,11.81,66,12.1,294.3,328.2,296.4
976.4,403,19.1,16.1,82,11.84,66,12.1,294.3,328.3,296.4
975.7,409,19.1,16.1,83,11.86,67,12.1,294.3,328.4,296.4
975.1,414,19.0,16.1,83,11.87,68,12.1,294.3,328.4,296.4
974.5,420,19.0,16.1,83,11.86,68,12.1,294.3,328.4,296.4
973.9,425,18.9,16.0,83,11.85,69,12.1,294.3,328.4,296.4
973.3,430,18.9,16.0,83,11.83,69,12.1,294.3,328.3,296.4
972.7,435,18.8,16.0,84,11.83,70,12.1,294.3,328.3,296.4
972.1,441,18.8,16.0,84,11.84,71,12.1,294.3,328.3,296.4
971.5,446,18.7,16.0,84,11.83,71,12.1,294.3,328.3,296.4
970.9,451,18.7,15.9,84,11.81,71,12.1,294.3,328.2,296.4
970.3,456,18.6,15.9,84,11.81,72,12.1,294.3,328.2,296.4
969.8,461,18.6,16.0,85,11.84,72,12.1,294.3,328.3,296.4
969.2,466,18.5,16.0,85,11.85,72,12.1,294.3,328.4,296.4
968.7,470,18.5,15.9,85,11.83,73,12.1,294.3,328.3,296.4
968.2,475,18.5,15.9,85,11.83,73,12.1,294.3,328.3,296.4
967.7,479,18.4,15.9,85,11.85,73,12.1,294.3,328.4,296.4
967.2,484,18.4,15.9,86,11.85,73,12.1,294.3,328.4,296.4
966.7,488,18.3,15.9,86,11.85,73,12.2,294.3,328.4,296.4
966.2,493,18.3,15.9,86,11.83,73,12.2,294.3,328.3,296.4
965.7,498,18.2,15.9,86,11.83,73,12.2,294.3,328.3,296.4
965.1,502,18.2,15.9,87,11.87,73,12.2,294.3,328.4,296.4
964.6,507,18.1,15.9,87,11.87,73,12.3,294.3,328.4,296.4
964.0,512,18.1,15.9,87,11.84,73,12.3,294.3,328.3,296.4
963.5,517,18.0,15.8,87,11.82,72,12.3,294.3,328.3,296.4
962.9,522,18.0,15.9,87,11.85,72,12.3,294.3,328.4,296.4
962.4,527,17.9,15.9,88,11.87,72,12.4,294.3,328.4,296.4
961.8,532,17.9,15.9,88,11.91,72,12.4,294.3,328.5,296.4
961.3,537,17.9,15.9,88,11.90,71,12.4,294.3,328.5,296.4
960.7,542,17.8,15.9,88,11.88,71,12.5,294.3,328.5,296.4
960.1,548,17.8,15.8,88,11.86,71,12.5,294.3,328.4,296.4
959.5,553,17.7,15.8,88,11.82,71,12.5,294.3,328.3,296.4
958.8,559,17.7,15.7,88,11.80,70,12.5,294.3,328.3,296.4
958.2,564,17.6,15.7,89,11.80,70,12.5,294.3,328.3,296.4
957.6,570,17.6,15.7,89,11.79,70,12.5,294.3,328.3,296.4
957.0,575,17.5,15.6,89,11.74,70,12.6,294.3,328.1,296.4
956.4,581,17.5,15.5,88,11.68,69,12.6,294.4,328.0,296.4
955.8,586,17.4,15.5,88,11.67,69,12.6,294.4,327.9,296.4
955.2,591,17.4,15.5,89,11.69,69,12.6,294.4,328.0,296.4
954.6,597,17.3,15.5,89,11.68,69,12.6,294.4,328.0,296.4
954.0,602,17.3,15.5,89,11.66,68,12.5,294.4,327.9,296.4
953.4,607,17.2,15.4,89,11.65,68,12.5,294.4,327.9,296.4
952.8,612,17.2,15.4,89,11.65,68,12.5,294.4,327.9,296.4
952.3,618,17.1,15.4,90,11.64,68,12.5,294.4,327.9,296.4
951.7,623,17.1,15.4,90,11.64,68,12.5,294.4,327.9,296.4
951.1,628,17.1,15.5,90,11.69,68,12.5,294.4,328.0,296.5
950.5,633,17.0,15.6,91,11.77,68,12.5,294.4,328.2,296.5
950.0,638,16.9,15.6,92,11.78,68,12.4,294.4,328.2,296.4
949.4,644,16.9,15.5,91,11.72,68,12.4,294.4,328.1,296.4
948.8,649,16.8,15.4,91,11.67,68,12.4,294.4,327.9,296.4
948.2,654,16.8,15.3,91,11.62,68,12.4,294.4,327.8,296.4
947.6,660,16.7,15.3,91,11.58,68,12.4,294.4,327.7,296.4
947.0,665,16.7,15.3,91,11.58,68,12.3,294.4,327.7,296.4
946.4,671,16.7,15.3,92,11.63,68,12.3,294.4,327.9,296.5
945.8,676,16.6,15.3,92,11.66,68,12.3,294.4,327.9,296.4
945.2,681,16.5,15.3,93,11.67,68,12.3,294.4,327.9,296.4
944.5,687,16.5,15.3,93,11.68,68,12.3,294.4,328.0,296.4
943.9,693,16.4,15.3,93,11.66,68,12.3,294.4,327.9,296.4
943.3,698,16.4,15.3,93,11.65,68,12.3,294.4,327.9,296.4
942.7,704,16.3,15.3,94,11.68,68,12.3,294.4,328.0,296.4
942.1,709,16.3,15.3,94,11.72,68,12.2,294.4,328.1,296.4
941.5,715,16.2,15.4,95,11.75,68,12.2,294.4,328.2,296.5
940.8,721,16.2,15.4,95,11.76,68,12.2,294.4,328.2,296.5
940.2,726,16.1,15.4,95,11.76,68,12.2,294.4,328.2,296.5
939.6,732,16.0,15.4,96,11.75,68,12.2,294.4,328.2,296.5
939.0,738,16.0,15.4,96,11.76,68,12.2,294.4,328.2,296.5
938.4,743,15.9,15.3,96,11.75,68,12.2,294.4,328.2,296.5
937.7,749,15.9,15.3,96,11.72,68,12.2,294.4,328.1,296.5
937.1,755,15.8,15.2,96,11.69,68,12.2,294.4,328.0,296.5
936.4,761,15.8,15.2,96,11.70,67,12.2,294.4,328.1,296.5
935.8,767,15.7,15.2,97,11.72,67,12.2,294.4,328.1,296.5
935.1,773,15.7,15.3,97,11.74,67,12.3,294.4,328.2,296.5
934.4,779,15.6,15.3,98,11.75,67,12.3,294.4,328.2,296.5
933.7,786,15.5,15.3,98,11.78,67,12.3,294.4,328.3,296.5
932.9,793,15.5,15.3,99,11.76,67,12.3,294.4,328.2,296.5
932.2,799,15.4,15.2,99,11.73,67,12.4,294.4,328.1,296.5
931.5,806,15.3,15.2,99,11.71,67,12.4,294.4,328.1,296.5
930.7,812,15.3,15.1,99,11.69,67,12.4,294.4,328.0,296.5
930.0,819,15.2,15.1,99,11.66,67,12.5,294.4,327.9,296.5
929.4,825,15.1,15.0,99,11.59,67,12.5,294.4,327.7,296.4
928.7,831,15.1,14.8,98,11.50,67,12.6,294.4,327.5,296.4
928.1,837,15.0,14.7,98,11.40,67,12.6,294.4,327.2,296.4
927.5,842,15.0,14.6,98,11.34,67,12.7,294.4,327.0,296.4
926.9,847,14.9,14.5,97,11.30,67,12.8,294.4,326.9,296.4
926.4,853,14.9,14.4,97,11.23,68,12.8,294.4,326.8,296.4
925.8,858,14.9,14.4,97,11.24,68,12.9,294.4,326.8,296.4
925.3,863,14.8,14.5,98,11.28,68,12.9,294.4,326.9,296.4
925.0,865,14.8,14.5,98,11.28,68,13.0,294.4,326.9,296.4
924.7,868,14.8,14.5,98,11.29,68,13.0,294.5,327.0,296.5
924.2,873,14.8,14.5,98,11.30,69,13.1,294.5,327.0,296.5
923.6,878,14.7,14.5,99,11.30,69,13.1,294.5,327.0,296.5
923.1,883,14.7,14.5,99,11.29,70,13.2,294.5,327.0,296.5
922.5,888,14.6,14.4,99,11.27,70,13.2,294.5,327.0,296.5
922.0,893,14.6,14.4,99,11.27,70,13.3,294.5,326.9,296.5
921.4,898,14.5,14.4,99,11.28,71,13.3,294.5,327.0,296.5
920.9,903,14.5,14.4,99,11.24,71,13.4,294.5,326.8,296.5
920.3,908,14.4,14.2,98,11.12,72,13.4,294.5,326.5,296.5
919.8,913,14.4,13.8,96,10.87,72,13.5,294.5,325.9,296.5
919.2,918,14.5,13.3,93,10.49,72,13.5,294.6,324.9,296.5
918.7,923,14.5,13.1,91,10.33,73,13.6,294.7,324.6,296.5
918.1,928,14.5,13.2,92,10.44,73,13.6,294.7,324.9,296.6
917.5,934,14.4,13.4,94,10.58,74,13.7,294.7,325.3,296.6
916.9,940,14.3,13.4,94,10.58,74,13.7,294.7,325.3,296.6
916.3,946,14.3,13.4,95,10.61,74,13.7,294.7,325.3,296.6
915.6,952,14.2,13.4,95,10.62,74,13.8,294.7,325.3,296.6
914.9,958,14.2,13.1,93,10.40,75,13.8,294.7,324.8,296.6
914.2,964,14.2,12.8,92,10.23,75,13.9,294.8,324.3,296.6
913.6,971,14.2,13.0,93,10.34,75,13.9,294.8,324.7,296.6
912.9,977,14.1,13.4,96,10.64,75,13.9,294.8,325.5,296.7
912.3,982,14.0,13.7,98,10.85,75,14.0,294.8,326.1,296.7
911.7,988,13.9,13.7,99,10.86,75,14.0,294.7,326.1,296.6
911.1,994,13.8,13.6,99,10.84,76,14.1,294.7,326.0,296.6
910.5,999,13.8,13.6,99,10.84,76,14.1,294.7,326.0,296.6
909.9,1005,13.7,13.6,99,10.82,76,14.1,294.7,325.9,296.6
909.3,1010,13.7,13.6,99,10.80,76,14.2,294.7,325.9,296.6
908.7,1015,13.6,13.5,99,10.78,76,14.2,294.7,325.8,296.6
908.2,1020,13.6,13.5,99,10.74,76,14.2,294.7,325.8,296.6
907.6,1026,13.6,13.4,99,10.69,76,14.2,294.8,325.6,296.6
907.1,1031,13.5,13.3,99,10.66,76,14.3,294.7,325.5,296.6
906.5,1036,13.5,13.3,99,10.66,76,14.3,294.8,325.5,296.6
905.9,1041,13.4,13.3,99,10.66,76,14.3,294.8,325.6,296.7
905.4,1046,13.4,13.4,100,10.70,76,14.3,294.8,325.7,296.7
904.8,1052,13.4,13.4,100,10.73,76,14.3,294.9,325.9,296.8
904.3,1057,13.4,13.3,100,10.71,76,14.3,294.9,325.8,296.8
903.8,1061,13.4,13.3,100,10.70,76,14.3,294.9,325.8,296.8
903.3,1066,13.4,13.3,100,10.71,76,14.3,294.9,325.9,296.8
902.8,1071,13.3,13.3,100,10.70,76,14.3,295.0,325.9,296.9
902.3,1075,13.3,13.2,100,10.64,76,14.3,295.0,325.7,296.8
901.8,1080,13.2,13.1,99,10.55,76,14.3,295.0,325.5,296.8
901.4,1084,13.2,13.0,99,10.48,76,14.3,295.0,325.3,296.8
900.9,1088,13.2,12.8,98,10.37,76,14.2,295.0,325.0,296.8
900.5,1092,13.2,12.7,97,10.32,76,14.2,295.0,324.8,296.8
900.0,1096,13.1,12.8,98,10.39,76,14.2,295.0,325.1,296.9
899.6,1101,13.1,12.8,98,10.39,76,14.2,295.0,325.1,296.9
899.1,1105,13.1,12.7,98,10.31,76,14.2,295.0,324.9,296.9
898.7,1109,13.0,12.6,97,10.24,76,14.2,295.0,324.7,296.9
898.2,1114,13.0,12.5,97,10.22,76,14.2,295.1,324.7,296.9
897.7,1118,13.1,12.7,98,10.33,76,14.2,295.2,325.1,297.0
897.2,1123,13.2,13.1,100,10.62,77,14.2,295.3,326.1,297.2
896.7,1128,13.3,13.3,100,10.73,77,14.3,295.5,326.5,297.4
896.2,1132,13.3,13.3,100,10.77,77,14.3,295.6,326.7,297.5
895.7,1137,13.2,13.2,100,10.73,77,14.3,295.5,326.6,297.4
895.3,1141,13.1,13.0,99,10.57,77,14.3,295.4,326.0,297.3
894.8,1146,13.0,12.7,98,10.38,77,14.4,295.3,325.4,297.2
894.3,1151,12.9,12.5,98,10.25,77,14.4,295.3,325.0,297.1
893.8,1155,12.8,12.6,98,10.29,77,14.4,295.3,325.1,297.1
893.3,1160,12.8,12.7,99,10.41,77,14.5,295.3,325.5,297.2
892.7,1165,12.9,12.9,100,10.53,77,14.5,295.5,326.0,297.4
892.2,1170,13.0,13.0,100,10.58,77,14.6,295.6,326.2,297.5
891.6,1176,12.9,12.9,100,10.57,78,14.7,295.6,326.2,297.5
891.0,1181,12.9,12.9,100,10.53,78,14.7,295.6,326.1,297.5
890.4,1187,12.7,12.5,98,10.25,78,14.8,295.5,325.2,297.3
889.8,1193,12.7,12.3,97,10.13,78,14.8,295.5,324.9,297.3
889.2,1199,12.6,12.2,98,10.11,78,14.9,295.5,324.8,297.3
888.6,1205,12.5,12.0,96,9.94,78,14.9,295.5,324.3,297.3
887.9,1211,12.4,11.7,95,9.78,79,15.0,295.4,323.8,297.2
887.3,1217,12.3,11.7,96,9.78,79,15.0,295.4,323.8,297.2
886.7,1223,12.3,11.7,96,9.81,79,15.1,295.4,323.9,297.2
886.1,1228,12.2,11.7,97,9.81,79,15.1,295.4,323.9,297.1
885.5,1234,12.2,11.7,97,9.78,79,15.2,295.4,323.8,297.2
884.9,1239,12.2,11.6,96,9.74,79,15.2,295.4,323.7,297.2
884.4,1244,12.1,11.6,97,9.75,79,15.2,295.5,323.7,297.2
883.8,1249,12.1,11.6,97,9.76,79,15.3,295.5,323.8,297.2
883.3,1254,12.1,11.6,97,9.74,79,15.3,295.5,323.8,297.2
882.8,1259,12.0,11.5,97,9.72,80,15.3,295.5,323.7,297.2
882.3,1264,12.0,11.5,97,9.72,80,15.3,295.5,323.8,297.3
881.8,1269,11.9,11.5,97,9.73,80,15.4,295.5,323.8,297.3
881.3,1273,11.9,11.5,98,9.74,80,15.4,295.5,323.8,297.3
880.8,1278,11.9,11.6,98,9.78,80,15.4,295.5,323.9,297.3
880.4,1282,11.8,11.6,99,9.81,80,15.4,295.6,324.0,297.3
879.9,1287,11.8,11.6,99,9.80,80,15.4,295.6,324.0,297.3
879.5,1291,11.8,11.6,98,9.77,80,15.4,295.6,324.0,297.3
879.0,1295,11.7,11.5,98,9.74,80,15.4,295.6,323.9,297.3
878.6,1300,11.7,11.4,98,9.67,81,15.4,295.6,323.7,297.3
878.1,1304,11.7,11.3,97,9.59,81,15.4,295.7,323.5,297.4
877.7,1308,11.7,11.2,96,9.55,81,15.4,295.7,323.5,297.4
877.2,1312,11.7,11.2,96,9.54,81,15.4,295.8,323.5,297.5
876.8,1317,11.7,11.1,96,9.52,81,15.4,295.8,323.5,297.5
876.3,1321,11.7,11.1,96,9.48,82,15.4,295.8,323.4,297.5
875.9,1325,11.7,11.0,95,9.44,82,15.4,295.8,323.3,297.5
875.5,1329,11.7,10.9,95,9.42,82,15.4,295.9,323.3,297.5
875.1,1333,11.7,10.9,95,9.41,82,15.4,295.9,323.3,297.6
874.7,1337,11.6,10.8,95,9.36,82,15.4,295.9,323.1,297.6
874.3,1340,11.7,10.7,94,9.29,83,15.4,295.9,323.0,297.6
873.9,1344,11.7,10.6,93,9.24,83,15.4,296.0,322.9,297.6
873.5,1348,11.7,10.6,93,9.22,83,15.4,296.0,322.9,297.7
873.1,1351,11.7,10.5,93,9.19,83,15.4,296.1,322.9,297.7
872.8,1355,11.7,10.4,92,9.14,84,15.4,296.1,322.7,297.7
872.4,1359,11.7,10.3,91,9.06,84,15.5,296.1,322.6,297.8
872.0,1363,11.7,10.2,90,8.97,84,15.5,296.2,322.4,297.8
871.6,1367,11.7,10.0,89,8.89,84,15.5,296.2,322.2,297.8
871.2,1371,11.7,9.9,89,8.82,84,15.6,296.3,322.1,297.9
870.7,1375,11.7,9.8,88,8.79,85,15.6,296.3,322.0,297.9
870.3,1379,11.7,9.9,88,8.81,85,15.6,296.4,322.1,298.0
869.8,1384,11.7,9.9,89,8.82,85,15.7,296.4,322.2,298.0
869.3,1388,11.6,9.9,89,8.83,85,15.7,296.4,322.2,298.0
868.8,1393,11.6,9.9,89,8.84,85,15.8,296.4,322.3,298.0
868.4,1397,11.6,9.9,89,8.84,85,15.8,296.4,322.2,298.0
867.9,1402,11.5,9.8,89,8.81,85,15.9,296.4,322.2,298.0
867.4,1406,11.5,9.8,89,8.81,85,15.9,296.4,322.2,298.0
867.0,1411,11.5,9.8,90,8.82,85,15.9,296.5,322.2,298.0
866.5,1415,11.4,9.8,90,8.83,85,16.0,296.5,322.3,298.0
866.1,1419,11.4,9.8,90,8.81,86,16.0,296.5,322.2,298.0
865.6,1424,11.4,9.7,90,8.79,85,16.0,296.5,322.2,298.1
865.2,1428,11.3,9.7,90,8.78,85,16.0,296.5,322.2,298.1
864.8,1432,11.3,9.7,90,8.77,85,16.0,296.5,322.1,298.0
864.3,1437,11.3,9.7,90,8.76,85,16.0,296.5,322.1,298.1
863.9,1441,11.2,9.6,89,8.70,85,16.0,296.5,322.0,298.1
863.5,1445,11.3,9.4,88,8.60,85,16.0,296.6,321.8,298.1
863.1,1449,11.3,9.2,87,8.51,85,16.0,296.6,321.6,298.2
862.7,1453,11.3,9.2,87,8.48,85,16.0,296.7,321.5,298.2
862.2,1457,11.3,9.2,87,8.50,84,15.9,296.7,321.6,298.2
861.8,1461,11.2,9.2,88,8.52,84,15.9,296.7,321.7,298.2
861.4,1465,11.2,9.2,88,8.52,84,15.9,296.7,321.6,298.2
861.0,1469,11.1,9.2,88,8.51,83,15.8,296.7,321.6,298.2
860.5,1474,11.1,9.1,88,8.49,83,15.8,296.7,321.6,298.2
860.0,1478,11.0,9.1,88,8.46,82,15.8,296.7,321.5,298.2
859.5,1483,11.0,9.0,87,8.41,82,15.7,296.7,321.4,298.2
859.0,1488,11.0,8.8,86,8.28,82,15.7,296.7,321.0,298.2
858.5,1493,11.0,8.4,84,8.07,81,15.7,296.8,320.5,298.3
858.0,1498,11.0,8.1,82,7.93,81,15.7,296.9,320.2,298.3
857.5,1502,11.0,8.0,82,7.90,80,15.7,296.9,320.2,298.3
857.1,1507,11.0,8.0,82,7.86,80,15.7,296.9,320.0,298.3
856.6,1512,11.0,7.9,81,7.81,79,15.7,297.0,319.9,298.4
856.1,1516,10.9,7.8,81,7.76,79,15.7,297.0,319.8,298.4
855.7,1521,10.9,7.7,80,7.73,78,15.7,297.0,319.7,298.4
855.2,1525,10.9,7.7,81,7.72,78,15.7,297.0,319.7,298.4
854.7,1530,10.9,7.6,80,7.67,77,15.7,297.0,319.6,298.4
854.3,1534,10.9,7.4,79,7.59,77,15.8,297.1,319.4,298.4
853.8,1539,10.9,7.3,79,7.54,77,15.8,297.1,319.4,298.5
853.3,1544,10.8,7.3,79,7.56,76,15.8,297.1,319.4,298.5
852.9,1548,10.8,7.4,80,7.60,76,15.8,297.2,319.6,298.5
852.4,1553,10.8,7.5,80,7.63,76,15.9,297.2,319.7,298.6
851.9,1557,10.8,7.5,80,7.64,76,15.9,297.2,319.7,298.6
851.4,1562,10.7,7.5,80,7.64,76,15.9,297.2,319.8,298.6
850.9,1567,10.7,7.5,80,7.65,76,15.9,297.2,319.8,298.6
850.4,1572,10.7,7.5,81,7.67,76,15.9,297.2,319.8,298.6
850.0,1576,10.6,7.5,81,7.67,76,15.9,297.3,319.9,298.7
849.9,1578,10.6,7.5,81,7.67,76,15.8,297.3,319.9,298.7
849.3,1583,10.6,7.4,80,7.61,76,15.8,297.3,319.8,298.7
848.8,1588,10.7,7.2,79,7.51,77,15.8,297.4,319.6,298.8
848.2,1594,10.7,7.0,78,7.43,77,15.7,297.5,319.5,298.8
847.7,1599,10.7,6.9,77,7.38,77,15.6,297.6,319.4,298.9
847.2,1604,10.7,6.8,77,7.34,77,15.6,297.6,319.3,298.9
846.6,1609,10.7,6.7,76,7.30,77,15.5,297.7,319.3,299.0
846.1,1614,10.7,6.7,76,7.29,78,15.4,297.7,319.2,299.0
845.6,1620,10.6,6.7,76,7.28,78,15.3,297.7,319.2,299.0
845.1,1625,10.6,6.6,76,7.24,78,15.1,297.7,319.2,299.0
844.6,1630,10.6,6.6,76,7.23,78,15.0,297.7,319.1,299.0
844.1,1635,10.5,6.5,76,7.20,78,14.9,297.7,319.1,299.0
843.6,1639,10.5,6.3,75,7.12,79,14.8,297.8,318.9,299.1
843.1,1644,10.5,6.2,75,7.05,79,14.7,297.8,318.7,299.1
842.6,1649,10.5,6.0,74,6.99,79,14.5,297.8,318.6,299.1
842.2,1654,10.4,6.0,74,6.97,79,14.4,297.8,318.5,299.1
841.7,1658,10.4,6.0,74,6.98,79,14.3,297.8,318.5,299.1
841.2,1663,10.3,6.0,75,6.98,79,14.2,297.8,318.5,299.1
840.7,1668,10.3,6.0,75,6.99,79,14.2,297.8,318.6,299.1
840.2,1672,10.2,5.9,75,6.96,79,14.1,297.8,318.5,299.1
839.8,1677,10.2,5.8,74,6.89,80,14.0,297.8,318.3,299.1
839.3,1682,10.2,5.6,73,6.82,80,14.0,297.8,318.1,299.1
838.7,1687,10.1,5.4,73,6.74,80,14.0,297.9,317.9,299.1
838.2,1692,10.1,5.2,72,6.65,80,14.0,297.9,317.7,299.1
837.7,1697,10.1,5.1,71,6.58,80,14.0,298.0,317.6,299.2
837.2,1702,10.1,5.0,70,6.54,80,14.0,298.0,317.5,299.2
836.7,1707,10.2,4.9,70,6.52,80,14.0,298.1,317.5,299.3
836.2,1712,10.2,4.9,70,6.53,80,14.0,298.2,317.7,299.4
835.8,1717,10.3,5.0,70,6.54,81,14.1,298.3,317.8,299.5
835.3,1722,10.3,4.9,69,6.52,81,14.2,298.4,317.8,299.6
834.8,1726,10.3,4.9,69,6.51,81,14.2,298.4,317.8,299.6
834.4,1731,10.2,4.9,69,6.51,81,14.3,298.4,317.8,299.6
833.9,1736,10.2,4.9,69,6.51,81,14.4,298.4,317.8,299.6
833.5,1740,10.2,4.9,70,6.51,81,14.5,298.5,317.9,299.6
833.0,1745,10.1,4.9,70,6.52,81,14.5,298.5,317.9,299.6
832.5,1749,10.1,4.9,70,6.52,81,14.6,298.5,317.9,299.7
832.1,1754,10.1,4.8,70,6.50,81,14.7,298.5,317.9,299.7
831.6,1759,10.1,4.7,70,6.47,81,14.8,298.5,317.8,299.7
831.1,1764,10.1,4.7,69,6.44,81,14.9,298.6,317.8,299.7
830.6,1769,10.0,4.6,69,6.40,81,14.9,298.6,317.7,299.8
830.1,1774,10.0,4.5,68,6.37,81,15.0,298.7,317.7,299.8
829.6,1779,10.0,4.4,68,6.34,80,15.1,298.7,317.6,299.8
829.1,1784,10.0,4.4,68,6.32,80,15.1,298.8,317.6,299.9
828.5,1789,10.0,4.3,68,6.31,80,15.2,298.8,317.7,300.0
828.0,1794,10.0,4.3,68,6.30,80,15.2,298.9,317.7,300.0
827.5,1800,10.0,4.3,68,6.31,80,15.3,298.9,317.7,300.0
827.0,1805,9.9,4.3,68,6.32,80,15.3,298.8,317.7,300.0
826.5,1810,9.9,4.3,68,6.31,80,15.3,298.8,317.7,300.0
825.9,1815,9.8,4.2,68,6.29,79,15.4,298.9,317.7,300.0
825.4,1820,9.8,4.2,68,6.28,79,15.4,298.9,317.6,300.0
824.9,1825,9.7,4.2,68,6.27,79,15.4,298.9,317.6,300.0
824.4,1830,9.7,4.2,68,6.27,79,15.5,298.9,317.6,300.0
823.9,1836,9.6,4.2,69,6.28,79,15.5,298.9,317.6,300.0
