PRES,HGHT,TEMP,DWPT,RELH,MIXR,DRCT,SPED,THTA,THTE,THTV
1012.6,31,24.5,20.6,79,15.29,79,5.9,296.6,340.9,299.3
1012.1,35,24.6,20.5,78,15.18,76,4.1,296.7,340.8,299.4
1011.6,40,24.7,20.5,78,15.18,75,3.9,296.8,340.8,299.5
1010.8,46,24.7,20.5,77,15.15,75,4.0,296.9,340.8,299.6
1010.2,52,24.6,20.4,77,15.08,75,4.3,296.9,340.7,299.6
1009.4,58,24.7,20.4,77,15.11,75,4.6,297.0,340.9,299.7
1008.7,65,24.7,20.5,78,15.21,75,4.9,297.1,341.2,299.8
1008.1,70,24.6,20.5,78,15.23,75,5.1,297.1,341.3,299.8
1007.4,76,24.6,20.5,78,15.20,75,5.3,297.1,341.2,299.8
1006.8,81,24.5,20.4,78,15.18,76,5.5,297.1,341.1,299.8
1006.1,87,24.5,20.4,78,15.14,76,5.7,297.1,341.0,299.8
1005.5,92,24.4,20.3,78,15.06,76,5.9,297.1,340.8,299.8
1004.9,98,24.3,20.2,78,15.01,76,6.1,297.1,340.6,299.7
1004.3,103,24.3,20.1,78,14.94,76,6.2,297.1,340.4,299.7
1003.7,108,24.2,20.0,77,14.83,76,6.3,297.0,340.1,299.7
1003.1,113,24.1,19.9,77,14.74,76,6.5,297.0,339.8,299.7
1002.6,118,24.1,19.9,78,14.78,76,6.6,297.0,339.9,299.6
1002.0,123,24.1,20.0,78,14.86,76,6.6,297.0,340.2,299.7
1001.4,128,24.0,20.0,78,14.90,76,6.7,297.0,340.3,299.7
1000.9,133,24.0,20.0,79,14.87,76,6.8,297.0,340.2,299.7
1000.3,138,23.9,19.9,78,14.79,77,6.8,297.0,340.0,299.7
1000.0,141,23.9,19.9,78,14.76,77,6.8,297.0,339.9,299.7
999.7,143,23.8,19.8,78,14.73,77,6.9,297.0,339.8,299.6
999.2,148,23.8,19.8,78,14.68,77,6.9,297.0,339.6,299.6
998.7,152,23.7,19.7,78,14.64,77,6.9,297.0,339.5,299.6
998.1,157,23.7,19.7,78,14.62,77,6.9,297.0,339.5,299.6
997.6,161,23.7,19.7,78,14.63,77,6.9,297.0,339.5,299.6
997.1,166,23.6,19.7,79,14.66,77,6.9,297.0,339.6,299.6
996.6,170,23.6,19.7,79,14.68,77,6.9,297.0,339.6,299.6
996.2,174,23.5,19.7,79,14.68,77,6.9,297.0,339.6,299.6
995.7,178,23.5,19.7,79,14.68,77,6.9,297.0,339.6,299.6
995.2,183,23.5,19.8,80,14.72,77,6.9,297.0,339.7,299.6
994.8,186,23.4,19.8,80,14.75,77,6.9,297.0,339.8,299.6
994.3,190,23.4,19.8,80,14.74,77,6.9,297.0,339.8,299.6
993.9,194,23.4,19.8,80,14.75,77,6.9,297.0,339.8,299.6
993.4,199,23.3,19.8,80,14.76,77,6.9,297.0,339.9,299.7
992.9,203,23.3,19.7,81,14.75,77,6.9,297.0,339.8,299.7
992.4,208,23.2,19.7,81,14.72,77,6.9,297.0,339.7,299.6
991.8,213,23.2,19.7,81,14.72,77,6.9,297.0,339.7,299.6
991.2,218,23.1,19.7,81,14.76,77,6.9,297.0,339.9,299.6
990.5,224,23.1,19.8,82,14.79,77,7.0,297.0,340.0,299.7
989.9,229,23.0,19.7,82,14.79,77,7.0,297.0,339.9,299.6
989.3,235,23.0,19.7,82,14.80,77,7.0,297.0,340.0,299.6
988.6,241,22.9,19.8,82,14.83,77,7.0,297.0,340.1,299.7
988.0,246,22.9,19.7,83,14.81,77,7.0,297.0,340.0,299.7
987.5,251,22.8,19.7,83,14.75,77,7.0,297.0,339.8,299.6
986.9,256,22.7,19.6,82,14.69,77,7.0,297.0,339.6,299.6
986.3,261,22.7,19.5,82,14.63,77,7.0,297.0,339.5,299.6
985.7,267,22.6,19.5,82,14.60,76,7.0,297.0,339.4,299.6
985.1,272,22.6,19.5,83,14.61,76,7.0,297.0,339.4,299.6
984.5,277,22.5,19.5,83,14.64,76,7.0,297.0,339.5,299.6
983.9,282,22.5,19.5,83,14.64,76,7.0,297.0,339.5,299.6
983.3,288,22.4,19.5,83,14.64,76,7.0,297.0,339.5,299.6
982.7,293,22.4,19.5,84,14.63,76,7.0,297.0,339.5,299.6
982.1,298,22.3,19.5,84,14.64,76,7.0,297.0,339.5,299.6
981.5,304,22.3,19.4,84,14.64,76,7.0,297.0,339.5,299.6
980.9,309,22.2,19.4,84,14.65,76,7.0,297.0,339.5,299.6
980.3,314,22.2,19.4,84,14.65,77,7.0,297.0,339.5,299.6
979.7,320,22.1,19.4,85,14.66,77,7.0,297.0,339.6,299.6
979.1,325,22.1,19.4,85,14.65,77,7.0,297.0,339.5,299.6
978.4,331,22.0,19.4,85,14.64,77,7.0,297.0,339.5,299.6
977.8,337,21.9,19.4,85,14.64,77,7.0,297.0,339.5,299.6
977.2,342,21.9,19.4,86,14.65,77,6.9,297.0,339.5,299.6
976.6,348,21.8,19.4,86,14.64,77,6.9,297.0,339.5,299.6
976.0,353,21.8,19.4,86,14.64,78,6.9,297.0,339.5,299.6
975.4,358,21.7,19.3,86,14.64,78,6.9,297.0,339.5,299.6
974.9,363,21.7,19.3,86,14.65,78,6.9,297.0,339.5,299.6
974.3,368,21.6,19.3,87,14.62,78,6.8,297.0,339.4,299.6
973.8,372,21.6,19.3,87,14.59,78,6.8,297.0,339.3,299.6
973.3,377,21.6,19.2,87,14.58,79,6.8,297.0,339.3,299.6
972.8,381,21.5,19.2,87,14.57,79,6.8,297.0,339.3,299.6
972.3,386,21.5,19.2,87,14.58,79,6.8,297.0,339.3,299.6
971.8,390,21.5,19.2,87,14.59,79,6.7,297.0,339.4,299.6
971.3,395,21.4,19.2,87,14.59,80,6.7,297.0,339.4,299.6
970.8,400,21.4,19.2,87,14.57,80,6.7,297.0,339.3,299.6
970.2,404,21.3,19.2,87,14.55,80,6.7,297.0,339.3,299.6
969.7,409,21.3,19.1,88,14.54,80,6.7,297.0,339.3,299.6
969.2,413,21.3,19.1,88,14.54,80,6.7,297.0,339.2,299.6
968.7,418,21.2,19.1,88,14.55,81,6.7,297.0,339.3,299.6
968.2,422,21.2,19.1,88,14.56,81,6.7,297.1,339.3,299.6
967.7,427,21.1,19.1,88,14.57,81,6.7,297.0,339.3,299.6
967.2,432,21.1,19.1,89,14.58,81,6.7,297.0,339.4,299.6
966.7,436,21.0,19.1,89,14.57,81,6.7,297.0,339.3,299.6
966.1,441,21.0,19.1,89,14.55,81,6.7,297.0,339.3,299.6
965.6,446,20.9,19.0,89,14.51,81,6.7,297.0,339.2,299.6
965.1,451,20.9,19.0,89,14.50,81,6.7,297.0,339.1,299.6
964.6,455,20.9,19.0,89,14.50,81,6.8,297.0,339.1,299.6
964.1,460,20.8,19.0,89,14.52,81,6.8,297.1,339.2,299.6
963.6,464,20.8,19.1,90,14.55,81,6.8,297.1,339.3,299.7
963.0,469,20.7,19.1,90,14.58,81,6.9,297.1,339.4,299.6
962.5,474,20.7,19.1,90,14.57,81,6.9,297.1,339.3,299.6
962.0,479,20.6,19.0,90,14.51,80,6.9,297.0,339.2,299.6
961.4,483,20.6,18.9,90,14.44,80,7.0,297.1,339.0,299.6
960.9,488,20.6,18.9,90,14.42,80,7.0,297.1,338.9,299.6
960.4,493,20.5,18.9,90,14.44,80,7.1,297.1,339.0,299.7
959.8,498,20.5,18.9,91,14.46,79,7.1,297.1,339.1,299.7
959.3,503,20.4,18.9,91,14.43,79,7.2,297.1,339.0,299.7
958.7,508,20.4,18.8,91,14.40,79,7.3,297.1,338.9,299.7
958.2,513,20.4,18.8,91,14.40,79,7.3,297.1,338.9,299.7
957.6,518,20.3,18.8,91,14.40,78,7.4,297.1,338.9,299.7
957.0,523,20.3,18.8,91,14.39,78,7.5,297.1,338.9,299.7
956.5,529,20.2,18.8,91,14.38,78,7.5,297.1,338.9,299.7
955.9,534,20.2,18.7,92,14.38,78,7.6,297.1,338.9,299.7
955.3,539,20.1,18.8,92,14.40,77,7.7,297.1,338.9,299.7
954.7,544,20.1,18.8,92,14.44,77,7.7,297.1,339.0,299.7
954.1,550,20.0,18.8,93,14.50,77,7.8,297.1,339.2,299.7
953.6,555,19.9,18.9,94,14.53,76,7.9,297.1,339.3,299.7
953.0,560,19.9,18.8,94,14.51,76,8.0,297.1,339.2,299.7
952.4,565,19.8,18.8,94,14.45,76,8.0,297.1,339.0,299.6
951.8,571,19.8,18.7,93,14.40,76,8.1,297.1,338.9,299.6
951.3,576,19.7,18.7,94,14.40,75,8.2,297.1,338.9,299.7
950.7,581,19.7,18.7,94,14.44,75,8.2,297.1,339.0,299.7
950.2,586,19.7,18.8,94,14.48,75,8.3,297.1,339.2,299.7
949.6,591,19.6,18.8,95,14.49,74,8.3,297.1,339.2,299.7
949.0,596,19.6,18.7,95,14.47,74,8.4,297.1,339.2,299.7
948.4,601,19.5,18.7,95,14.44,74,8.4,297.1,339.1,299.7
947.8,607,19.5,18.6,95,14.42,73,8.4,297.1,339.0,299.7
947.2,613,19.4,18.6,95,14.41,73,8.4,297.1,338.9,299.7
946.5,619,19.3,18.6,96,14.41,73,8.4,297.1,338.9,299.7
945.9,625,19.3,18.6,96,14.44,72,8.4,297.1,339.0,299.7
945.3,630,19.2,18.6,96,14.43,72,8.4,297.1,339.0,299.7
944.6,636,19.2,18.6,96,14.40,71,8.4,297.1,338.9,299.7
944.0,642,19.1,18.6,97,14.40,71,8.4,297.1,338.9,299.7
943.4,648,19.1,18.6,97,14.43,71,8.3,297.1,339.0,299.7
942.8,653,19.0,18.6,98,14.45,70,8.3,297.1,339.0,299.7
942.1,659,18.9,18.5,98,14.41,70,8.2,297.1,338.9,299.7
941.5,664,18.9,18.5,98,14.37,70,8.1,297.1,338.8,299.7
941.0,670,18.8,18.4,97,14.32,69,8.1,297.1,338.7,299.6
940.4,675,18.8,18.4,98,14.30,69,8.0,297.1,338.6,299.7
939.9,680,18.8,18.4,98,14.32,69,7.9,297.1,338.7,299.7
939.3,684,18.7,18.4,98,14.36,68,7.8,297.1,338.8,299.7
938.8,689,18.7,18.5,99,14.38,68,7.7,297.2,338.9,299.7
938.3,694,18.7,18.5,99,14.40,68,7.6,297.2,339.0,299.7
937.8,699,18.7,18.5,99,14.42,68,7.5,297.2,339.1,299.8
937.3,704,18.6,18.4,99,14.39,68,7.3,297.2,339.0,299.8
936.7,709,18.5,18.3,99,14.29,68,7.2,297.2,338.7,299.7
936.2,714,18.5,18.2,98,14.17,69,7.1,297.2,338.3,299.7
935.6,719,18.5,18.0,97,13.98,69,7.0,297.2,337.8,299.7
935.0,725,18.4,17.7,96,13.80,69,6.9,297.2,337.3,299.7
934.4,730,18.4,17.7,96,13.73,70,6.8,297.2,337.1,299.7
933.8,736,18.3,17.6,96,13.73,71,6.7,297.3,337.1,299.7
933.2,741,18.3,17.6,96,13.74,71,6.6,297.3,337.2,299.7
932.6,747,18.3,17.7,96,13.75,72,6.5,297.3,337.2,299.7
932.0,752,18.2,17.7,97,13.78,73,6.4,297.3,337.3,299.7
931.4,757,18.2,17.7,97,13.81,74,6.3,297.3,337.4,299.8
930.9,762,18.1,17.7,97,13.82,75,6.3,297.3,337.5,299.8
930.3,768,18.1,17.7,98,13.81,76,6.2,297.3,337.5,299.8
929.7,773,18.0,17.7,98,13.81,77,6.2,297.3,337.5,299.8
929.2,778,18.0,17.7,98,13.81,77,6.1,297.3,337.5,299.8
928.6,784,17.9,17.6,98,13.80,78,6.1,297.3,337.4,299.8
928.0,789,17.9,17.6,98,13.80,79,6.1,297.3,337.4,299.8
927.5,794,17.9,17.6,98,13.79,80,6.1,297.3,337.4,299.8
926.9,799,17.8,17.6,98,13.77,81,6.1,297.3,337.4,299.8
926.3,804,17.8,17.5,98,13.72,82,6.1,297.4,337.2,299.8
925.8,810,17.7,17.4,98,13.63,83,6.1,297.4,337.0,299.8
925.2,815,17.7,17.2,97,13.49,84,6.2,297.4,336.6,299.8
925.0,817,17.7,17.1,97,13.42,84,6.2,297.4,336.4,299.8
924.6,820,17.7,17.0,96,13.30,84,6.2,297.4,336.1,299.8
924.0,826,17.7,16.8,95,13.17,85,6.2,297.5,335.8,299.9
923.5,831,17.7,16.8,94,13.14,85,6.3,297.5,335.8,299.9
922.9,836,17.7,16.8,94,13.14,86,6.3,297.6,335.8,299.9
922.3,842,17.7,16.7,94,13.11,86,6.4,297.6,335.8,299.9
921.8,847,17.6,16.7,94,13.08,87,6.5,297.6,335.7,300.0
921.3,852,17.6,16.7,94,13.05,87,6.5,297.6,335.7,300.0
920.7,857,17.6,16.6,94,13.01,88,6.6,297.7,335.6,300.0
920.2,862,17.6,16.5,94,12.97,88,6.6,297.7,335.5,300.0
919.6,867,17.6,16.5,94,12.97,89,6.7,297.7,335.5,300.1
919.1,872,17.5,16.6,94,13.02,89,6.8,297.7,335.7,300.1
918.5,877,17.4,16.6,95,13.09,90,6.8,297.7,335.8,300.1
918.0,882,17.4,16.7,96,13.13,90,6.9,297.7,336.0,300.0
917.4,888,17.3,16.7,96,13.14,91,7.0,297.7,336.0,300.0
916.8,893,17.2,16.7,96,13.13,91,7.0,297.7,335.9,300.0
916.2,898,17.2,16.6,96,13.08,92,7.1,297.7,335.8,300.0
915.7,904,17.1,16.5,96,13.00,93,7.2,297.7,335.6,300.0
915.1,909,17.1,16.4,95,12.91,93,7.2,297.7,335.3,300.0
914.5,915,17.1,16.2,95,12.81,94,7.3,297.7,335.1,300.0
913.9,920,17.1,16.1,94,12.70,94,7.3,297.8,334.8,300.1
913.3,926,17.1,16.0,93,12.63,95,7.4,297.9,334.7,300.1
912.7,932,17.1,16.0,93,12.61,96,7.4,297.9,334.7,300.2
912.1,937,17.1,15.9,93,12.58,96,7.4,298.0,334.7,300.2
911.5,943,17.1,15.9,93,12.56,97,7.5,298.0,334.6,300.2
910.9,949,17.0,15.8,93,12.52,97,7.5,298.0,334.5,300.2
910.3,955,17.0,15.8,93,12.48,98,7.5,298.0,334.5,300.2
909.6,960,16.9,15.7,93,12.44,98,7.5,298.0,334.4,300.3
909.0,966,16.9,15.6,92,12.38,99,7.5,298.1,334.2,300.3
908.4,972,16.9,15.5,92,12.29,99,7.6,298.1,334.0,300.3
907.8,978,16.9,15.4,91,12.18,99,7.6,298.1,333.7,300.3
907.1,984,16.9,15.3,90,12.12,100,7.6,298.2,333.6,300.4
906.5,990,16.8,15.2,90,12.07,100,7.6,298.2,333.5,300.4
905.8,996,16.8,15.1,90,12.00,100,7.6,298.2,333.3,300.4
905.1,1003,16.8,15.0,89,11.95,100,7.6,298.3,333.3,300.4
904.4,1010,16.8,15.0,89,11.91,100,7.5,298.4,333.3,300.6
903.7,1017,16.9,14.9,88,11.88,100,7.5,298.5,333.3,300.7
902.9,1024,16.9,14.8,88,11.82,100,7.5,298.6,333.3,300.7
902.1,1032,16.9,14.7,87,11.76,99,7.5,298.7,333.2,300.8
901.3,1039,16.9,14.7,87,11.74,99,7.5,298.8,333.2,300.9
900.4,1047,16.8,14.7,87,11.78,98,7.4,298.8,333.4,300.9
899.6,1056,16.7,14.8,88,11.85,98,7.4,298.8,333.5,300.9
898.7,1064,16.6,14.9,90,11.93,97,7.4,298.7,333.7,300.9
897.8,1072,16.5,14.9,90,11.96,97,7.3,298.7,333.7,300.8
896.9,1081,16.4,14.9,91,11.93,96,7.3,298.7,333.6,300.8
896.0,1089,16.3,14.8,90,11.86,95,7.2,298.7,333.5,300.8
895.1,1098,16.2,14.7,91,11.83,94,7.2,298.7,333.4,300.8
894.3,1106,16.2,14.7,91,11.85,93,7.2,298.7,333.4,300.8
893.4,1114,16.1,14.7,92,11.88,93,7.1,298.7,333.5,300.8
892.6,1122,16.0,14.8,93,11.91,92,7.1,298.6,333.5,300.8
891.8,1130,15.9,14.8,93,11.92,91,7.0,298.6,333.5,300.8
890.9,1138,15.8,14.8,94,11.94,90,7.0,298.6,333.6,300.8
890.1,1145,15.7,14.8,94,11.97,89,6.9,298.6,333.7,300.8
889.3,1153,15.6,14.8,95,12.00,88,6.8,298.6,333.8,300.8
888.5,1161,15.6,14.8,95,12.01,87,6.8,298.6,333.8,300.8
887.7,1169,15.5,14.8,96,12.00,87,6.7,298.6,333.8,300.8
886.9,1176,15.4,14.8,96,11.99,86,6.6,298.6,333.8,300.8
886.1,1184,15.3,14.8,97,12.04,85,6.6,298.6,333.9,300.8
885.3,1192,15.3,14.9,98,12.11,84,6.5,298.6,334.1,300.8
884.4,1200,15.2,14.9,99,12.16,84,6.4,298.6,334.2,300.8
883.6,1208,15.1,14.9,99,12.18,83,6.4,298.6,334.2,300.8
882.8,1216,15.0,14.9,99,12.16,82,6.3,298.6,334.2,300.8
881.9,1224,14.9,14.8,100,12.13,82,6.2,298.6,334.1,300.8
881.1,1232,14.9,14.8,100,12.09,81,6.2,298.6,334.0,300.8
880.3,1240,14.8,14.7,100,12.06,81,6.1,298.6,333.9,300.8
879.4,1249,14.7,14.7,100,12.03,80,6.0,298.6,333.8,300.8
878.6,1257,14.7,14.6,100,12.00,80,5.9,298.7,333.8,300.8
877.7,1265,14.7,14.6,100,11.98,79,5.9,298.7,333.8,300.9
876.8,1273,14.6,14.5,99,11.94,79,5.8,298.8,333.8,300.9
876.0,1282,14.6,14.5,99,11.91,78,5.8,298.8,333.7,301.0
875.1,1290,14.5,14.4,99,11.89,78,5.7,298.9,333.7,301.0
874.2,1299,14.5,14.4,100,11.88,78,5.7,298.9,333.7,301.0
873.3,1308,14.4,14.4,100,11.87,77,5.6,298.9,333.7,301.0
872.4,1316,14.3,14.3,100,11.86,77,5.6,298.9,333.7,301.0
871.5,1325,14.3,14.3,100,11.82,76,5.5,298.9,333.6,301.1
870.6,1334,14.2,14.2,100,11.80,76,5.5,299.0,333.6,301.1
869.8,1342,14.2,14.2,100,11.76,75,5.4,299.0,333.5,301.1
868.9,1350,14.2,14.1,100,11.74,75,5.4,299.1,333.5,301.2
868.1,1358,14.1,14.1,100,11.74,74,5.4,299.1,333.6,301.2
867.3,1366,14.1,14.1,100,11.72,73,5.4,299.2,333.6,301.3
866.5,1374,14.1,14.0,100,11.71,73,5.3,299.3,333.7,301.4
865.8,1381,14.1,14.1,100,11.74,72,5.3,299.3,333.9,301.4
865.0,1388,14.1,14.1,100,11.77,71,5.3,299.4,334.0,301.5
864.3,1395,14.0,14.0,100,11.74,71,5.3,299.4,333.9,301.5
863.6,1402,14.0,14.0,100,11.71,70,5.2,299.4,333.8,301.5
862.9,1409,13.9,13.9,100,11.67,69,5.2,299.4,333.7,301.5
862.2,1416,13.9,13.9,100,11.64,68,5.2,299.4,333.7,301.5
861.5,1423,13.9,13.9,100,11.63,68,5.2,299.5,333.7,301.6
860.8,1430,13.8,13.8,100,11.61,67,5.2,299.5,333.7,301.6
860.1,1437,13.8,13.7,100,11.56,66,5.2,299.5,333.5,301.6
859.3,1444,13.7,13.7,100,11.53,65,5.1,299.5,333.5,301.6
858.6,1451,13.7,13.6,100,11.50,65,5.1,299.6,333.4,301.7
857.9,1458,13.7,13.6,100,11.49,64,5.1,299.7,333.5,301.7
857.2,1465,13.7,13.6,99,11.48,64,5.1,299.7,333.5,301.8
856.5,1472,13.7,13.6,99,11.51,63,5.1,299.8,333.7,301.9
855.8,1479,13.8,13.7,99,11.57,63,5.1,300.0,334.1,302.0
855.1,1486,13.8,13.7,99,11.57,63,5.1,300.0,334.1,302.1
854.3,1493,13.7,13.6,99,11.55,63,5.0,300.1,334.1,302.1
853.6,1500,13.7,13.6,99,11.55,63,5.0,300.1,334.2,302.2
852.9,1507,13.7,13.6,100,11.58,63,5.0,300.2,334.3,302.3
852.2,1514,13.7,13.7,100,11.62,63,5.0,300.3,334.6,302.4
851.5,1521,13.6,13.6,100,11.55,63,5.0,300.2,334.3,302.3
850.8,1528,13.5,13.4,99,11.42,64,4.9,300.2,333.9,302.2
850.2,1535,13.4,13.3,100,11.38,64,4.9,300.1,333.7,302.2
850.0,1536,13.4,13.3,100,11.37,64,4.9,300.1,333.7,302.2
849.5,1542,13.3,13.3,100,11.36,64,4.9,300.2,333.7,302.2
848.7,1549,13.3,13.2,100,11.34,65,4.9,300.2,333.7,302.2
848.0,1556,13.3,13.2,99,11.30,66,4.9,300.2,333.6,302.3
847.3,1563,13.2,13.1,99,11.29,66,4.8,300.3,333.6,302.3
846.5,1571,13.2,13.1,100,11.29,67,4.8,300.3,333.7,302.4
845.8,1578,13.2,13.1,100,11.29,68,4.8,300.4,333.7,302.4
845.0,1586,13.1,13.1,100,11.30,69,4.7,300.4,333.8,302.4
844.2,1594,13.1,13.1,100,11.31,69,4.7,300.5,333.9,302.5
843.4,1602,13.1,13.1,100,11.30,70,4.7,300.5,333.9,302.6
842.6,1611,13.1,13.1,100,11.29,71,4.6,300.6,334.0,302.6
841.8,1619,13.1,13.1,100,11.30,71,4.6,300.7,334.1,302.7
840.9,1627,13.1,13.0,99,11.25,72,4.6,300.7,334.0,302.8
840.1,1635,13.0,12.8,99,11.16,72,4.5,300.7,333.7,302.7
839.3,1643,12.9,12.8,99,11.13,73,4.5,300.7,333.6,302.7
838.6,1651,12.8,12.8,100,11.13,73,4.5,300.7,333.7,302.8
837.8,1659,12.8,12.8,100,11.13,73,4.4,300.8,333.7,302.8
837.0,1666,12.8,12.7,100,11.12,73,4.4,300.8,333.7,302.8
836.3,1674,12.7,12.7,100,11.12,73,4.4,300.9,333.8,302.9
835.5,1682,12.7,12.7,100,11.13,72,4.3,300.9,333.9,302.9
834.7,1689,12.7,12.7,100,11.12,71,4.3,301.0,333.9,303.0
834.0,1697,12.7,12.6,100,11.09,71,4.3,301.0,333.9,303.0
833.2,1705,12.6,12.6,100,11.07,70,4.2,301.1,333.9,303.1
832.4,1712,12.6,12.5,100,11.02,69,4.2,301.1,333.7,303.1
831.7,1720,12.5,12.5,100,10.99,68,4.2,301.1,333.7,303.1
830.9,1728,12.5,12.4,100,10.99,66,4.2,301.2,333.8,303.2
830.1,1736,12.5,12.4,100,10.99,65,4.2,301.2,333.8,303.2
829.3,1744,12.4,12.4,100,10.97,63,4.1,301.3,333.8,303.3
828.5,1752,12.4,12.4,100,10.96,62,4.1,301.3,333.9,303.3
827.7,1760,12.4,12.4,100,10.97,60,4.1,301.4,333.9,303.4
826.9,1768,12.3,12.3,100,10.97,59,4.1,301.4,334.0,303.4
826.1,1777,12.3,12.3,100,10.96,58,4.1,301.5,334.0,303.5
825.3,1785,12.3,12.3,100,10.95,56,4.1,301.5,334.0,303.5
824.5,1793,12.3,12.2,100,10.93,55,4.2,301.6,334.1,303.6
823.8,1801,12.2,12.2,100,10.92,54,4.2,301.6,334.1,303.6
823.0,1808,12.2,12.2,100,10.91,53,4.2,301.7,334.1,303.6
822.3,1816,12.2,12.2,100,10.92,52,4.1,301.7,334.2,303.7
821.5,1823,12.2,12.2,100,10.93,51,4.1,301.8,334.3,303.8
820.8,1831,12.2,12.1,100,10.91,50,4.1,301.9,334.3,303.9
820.1,1838,12.1,12.1,100,10.87,50,4.1,301.9,334.3,303.9
819.4,1845,12.1,12.0,100,10.85,49,4.1,301.9,334.2,303.9
818.7,1853,12.1,12.0,100,10.84,49,4.0,302.0,334.2,303.9
818.0,1860,12.0,12.0,100,10.83,49,4.0,302.0,334.2,304.0
817.3,1867,12.0,11.9,100,10.79,49,3.9,302.0,334.1,304.0
816.6,1874,11.9,11.9,100,10.75,50,3.8,302.1,334.1,304.0
815.9,1881,11.9,11.8,100,10.74,50,3.8,302.1,334.1,304.1
815.2,1888,11.9,11.8,100,10.76,51,3.7,302.2,334.2,304.1
814.6,1895,11.9,11.8,100,10.77,52,3.6,302.2,334.3,304.2
813.9,1902,11.9,11.9,100,10.80,53,3.6,302.3,334.5,304.2
813.2,1909,11.9,11.9,100,10.81,55,3.5,302.4,334.6,304.3
812.5,1916,11.9,11.8,100,10.79,57,3.4,302.4,334.6,304.4
811.8,1923,11.8,11.8,100,10.76,58,3.4,302.5,334.6,304.4
811.1,1930,11.8,11.7,99,10.73,60,3.3,302.5,334.5,304.5
810.5,1937,11.8,11.7,99,10.71,63,3.3,302.5,334.5,304.5
809.8,1944,11.7,11.6,99,10.69,65,3.3,302.6,334.5,304.5
809.2,1951,11.6,11.5,99,10.61,67,3.3,302.5,334.2,304.5
808.5,1957,11.6,11.4,99,10.56,70,3.3,302.5,334.1,304.5
807.9,1964,11.6,11.4,99,10.56,72,3.3,302.6,334.1,304.5
807.3,1970,11.6,11.4,99,10.58,74,3.3,302.7,334.3,304.6
806.6,1977,11.6,11.5,99,10.64,76,3.4,302.8,334.6,304.7
806.0,1984,11.7,11.7,100,10.75,78,3.4,303.0,335.1,304.9
805.3,1991,11.7,11.7,100,10.80,80,3.5,303.1,335.4,305.0
804.7,1997,11.6,11.6,100,10.70,81,3.6,302.9,334.9,304.9
804.0,2004,11.4,11.4,100,10.59,82,3.7,302.8,334.5,304.8
803.4,2011,11.3,11.3,100,10.56,83,3.7,302.8,334.4,304.8
802.8,2018,11.3,11.3,100,10.53,84,3.8,302.9,334.3,304.8
802.1,2024,11.2,11.2,100,10.48,85,3.9,302.9,334.2,304.8
801.5,2030,11.1,11.1,100,10.39,86,3.9,302.8,333.9,304.7
801.0,2036,11.0,11.0,100,10.33,86,4.0,302.7,333.6,304.6
800.4,2042,11.0,10.9,100,10.31,86,4.0,302.8,333.6,304.6
799.9,2047,10.9,10.9,100,10.31,87,4.1,302.8,333.6,304.7
799.4,2052,11.0,10.9,100,10.31,87,4.1,302.9,333.8,304.8
799.0,2057,10.9,10.7,99,10.20,87,4.1,302.9,333.4,304.7
798.5,2062,10.7,10.5,99,10.06,86,4.1,302.7,332.8,304.6
798.0,2067,10.6,10.5,99,10.02,86,4.1,302.7,332.7,304.5
797.6,2072,10.6,10.5,99,10.02,86,4.1,302.6,332.6,304.5
797.1,2076,10.5,10.4,99,10.00,85,4.1,302.7,332.6,304.5
796.7,2081,10.5,10.4,99,9.98,85,4.0,302.7,332.5,304.5
796.2,2086,10.5,10.4,99,9.97,84,4.0,302.7,332.5,304.5
795.8,2091,10.5,10.3,99,9.96,83,3.9,302.7,332.5,304.6
795.3,2095,10.4,10.3,99,9.96,83,3.9,302.8,332.6,304.6
794.9,2100,10.4,10.3,99,9.98,82,3.8,302.8,332.7,304.6
794.5,2104,10.4,10.4,100,10.01,81,3.7,302.8,332.8,304.7
794.0,2109,10.4,10.4,100,10.02,80,3.6,302.9,332.9,304.7
793.6,2113,10.4,10.4,100,10.00,78,3.5,302.9,332.8,304.7
793.2,2117,10.3,10.3,100,9.94,77,3.4,302.8,332.6,304.6
792.8,2121,10.2,10.1,100,9.87,76,3.3,302.8,332.3,304.6
792.5,2125,10.1,10.1,100,9.84,74,3.2,302.7,332.2,304.5
792.1,2129,10.1,10.1,100,9.85,73,3.2,302.8,332.3,304.6
791.7,2134,10.1,10.1,100,9.87,71,3.1,302.8,332.4,304.6
791.3,2138,10.2,10.2,100,9.90,69,3.0,302.9,332.5,304.7
790.9,2142,10.1,10.0,100,9.82,67,2.9,302.9,332.3,304.7
790.5,2146,10.0,9.9,99,9.73,65,2.9,302.8,331.9,304.6
790.1,2151,9.9,9.9,100,9.72,64,2.8,302.8,331.9,304.6
789.7,2155,9.9,9.9,100,9.74,62,2.8,302.8,332.0,304.6
789.2,2159,9.9,9.9,100,9.74,60,2.7,302.9,332.1,304.7
788.8,2164,9.9,9.9,99,9.73,58,2.7,302.9,332.1,304.7
788.4,2168,9.9,9.8,99,9.69,56,2.7,303.0,332.0,304.7
788.0,2172,9.9,9.7,99,9.63,54,2.7,303.0,331.9,304.7
787.6,2177,9.8,9.5,98,9.51,53,2.7,302.9,331.4,304.6
787.2,2181,9.7,9.4,98,9.43,51,2.7,302.8,331.1,304.5
786.8,2185,9.7,9.4,99,9.49,50,2.7,302.9,331.3,304.6
786.4,2189,9.7,9.5,99,9.56,49,2.7,302.9,331.6,304.7
786.0,2194,9.7,9.6,99,9.61,48,2.8,303.0,331.9,304.8
