PRES,HGHT,TEMP,DWPT,RELH,MIXR,DRCT,SPED,THTA,THTE,THTV
1015.4,31,18.5,16.8,90,11.97,267,2.9,290.4,324.2,292.5
1014.9,35,19.4,16.9,85,12.01,295,1.6,291.3,325.4,293.4
1014.4,39,19.8,16.8,83,11.96,319,1.4,291.8,325.8,293.9
1013.5,46,21.2,17.4,79,12.44,329,1.5,293.3,328.9,295.5
1012.8,52,22.3,17.6,75,12.60,331,1.6,294.3,330.6,296.6
1012.3,57,22.5,17.4,73,12.43,332,1.7,294.7,330.5,296.9
1011.6,63,22.6,17.3,72,12.39,333,1.8,294.8,330.5,297.0
1010.8,70,22.7,17.4,72,12.44,334,1.9,294.9,330.8,297.1
1010.2,75,22.7,17.4,72,12.49,336,2.0,295.0,331.0,297.2
1009.5,81,22.6,17.5,73,12.54,338,2.1,295.0,331.1,297.2
1008.9,86,22.6,17.5,73,12.59,340,2.2,295.0,331.3,297.3
1008.3,92,22.7,17.6,73,12.66,342,2.3,295.1,331.6,297.3
1007.6,97,22.6,17.6,73,12.70,344,2.4,295.1,331.8,297.4
1007.0,103,22.6,17.7,74,12.73,346,2.5,295.1,331.9,297.4
1006.4,108,22.6,17.8,74,12.83,347,2.6,295.2,332.2,297.5
1005.8,113,22.6,17.8,74,12.86,349,2.7,295.2,332.4,297.5
1005.2,119,22.5,17.8,75,12.85,351,2.8,295.2,332.3,297.5
1004.6,124,22.5,17.8,75,12.85,352,2.8,295.2,332.3,297.5
1004.0,129,22.4,17.8,75,12.89,353,2.9,295.3,332.4,297.5
1003.4,134,22.4,17.9,76,12.95,355,3.0,295.3,332.6,297.6
1002.7,140,22.4,18.0,76,13.07,356,3.1,295.3,333.0,297.6
1002.1,145,22.4,18.1,77,13.19,357,3.1,295.4,333.4,297.7
1001.5,151,22.4,18.2,77,13.24,358,3.2,295.4,333.6,297.7
1000.9,156,22.3,18.2,78,13.27,359,3.3,295.4,333.7,297.7
1000.3,161,22.3,18.3,78,13.31,360,3.3,295.4,333.8,297.8
1000.0,164,22.3,18.3,78,13.32,1,3.4,295.4,333.8,297.8
999.7,166,22.2,18.3,78,13.33,1,3.4,295.4,333.9,297.8
999.1,172,22.2,18.3,79,13.37,2,3.4,295.4,334.0,297.8
998.5,177,22.2,18.4,79,13.42,3,3.5,295.4,334.2,297.8
997.9,182,22.1,18.4,79,13.45,4,3.5,295.4,334.3,297.8
997.3,187,22.1,18.4,80,13.47,5,3.6,295.5,334.3,297.8
996.6,193,22.0,18.4,80,13.48,6,3.6,295.5,334.4,297.9
996.0,198,22.0,18.4,80,13.49,6,3.7,295.5,334.4,297.8
995.4,204,21.9,18.4,80,13.49,7,3.7,295.5,334.4,297.8
994.8,209,21.9,18.4,81,13.48,8,3.7,295.4,334.4,297.8
994.2,214,21.8,18.3,81,13.47,9,3.8,295.4,334.3,297.8
993.7,219,21.8,18.3,81,13.46,9,3.8,295.4,334.3,297.8
993.1,224,21.7,18.3,81,13.48,10,3.9,295.5,334.4,297.9
992.6,228,21.7,18.4,81,13.52,11,3.9,295.5,334.5,297.9
992.1,233,21.6,18.4,82,13.54,12,3.9,295.5,334.5,297.9
991.6,237,21.6,18.4,82,13.58,12,4.0,295.5,334.7,297.9
991.1,242,21.6,18.5,83,13.66,13,4.0,295.5,334.9,297.9
990.6,246,21.5,18.5,83,13.68,14,4.0,295.4,334.9,297.9
990.1,251,21.5,18.5,83,13.68,14,4.0,295.4,334.9,297.9
989.6,255,21.4,18.5,83,13.68,15,4.1,295.5,334.9,297.9
989.1,259,21.4,18.5,84,13.68,16,4.1,295.5,334.9,297.9
988.6,263,21.4,18.5,84,13.69,16,4.1,295.5,335.0,297.9
988.2,267,21.3,18.5,84,13.70,17,4.1,295.5,335.0,297.9
987.7,272,21.3,18.4,84,13.63,17,4.1,295.5,334.8,297.9
987.2,276,21.3,18.2,83,13.48,18,4.1,295.5,334.4,297.9
986.7,280,21.3,18.1,82,13.35,18,4.1,295.6,334.1,297.9
986.2,284,21.3,18.0,82,13.28,19,4.1,295.6,333.9,297.9
985.8,288,21.2,17.9,81,13.21,19,4.1,295.6,333.7,297.9
985.3,293,21.2,17.8,81,13.13,20,4.1,295.6,333.5,297.9
984.8,297,21.2,17.7,80,13.03,20,4.1,295.7,333.3,298.0
984.3,301,21.2,17.6,80,12.93,21,4.1,295.7,333.1,298.0
983.8,305,21.2,17.5,79,12.86,21,4.1,295.7,332.9,298.0
983.3,310,21.2,17.4,79,12.80,22,4.1,295.8,332.8,298.0
982.8,314,21.2,17.3,78,12.71,22,4.1,295.8,332.5,298.0
982.3,319,21.2,17.1,78,12.59,22,4.1,295.8,332.2,298.1
981.8,323,21.2,17.0,77,12.47,23,4.1,295.8,331.9,298.1
981.3,328,21.1,16.9,77,12.41,23,4.1,295.9,331.8,298.1
980.8,332,21.1,16.8,76,12.37,23,4.1,295.9,331.7,298.1
980.3,337,21.1,16.7,76,12.29,23,4.1,295.9,331.5,298.1
979.8,341,21.1,16.6,75,12.18,24,4.1,295.9,331.2,298.1
979.3,345,21.0,16.4,75,12.08,24,4.1,295.9,330.9,298.1
978.8,350,21.0,16.3,74,12.00,24,4.1,296.0,330.8,298.1
978.3,354,21.0,16.2,74,11.95,24,4.1,296.0,330.7,298.1
977.9,358,21.0,16.2,74,11.91,25,4.1,296.0,330.6,298.2
977.4,362,21.0,16.1,74,11.87,25,4.1,296.0,330.4,298.2
976.9,367,21.0,16.0,73,11.82,25,4.1,296.1,330.3,298.2
976.4,371,20.9,16.0,73,11.81,25,4.1,296.1,330.3,298.2
976.0,375,20.9,16.1,74,11.84,25,4.1,296.1,330.5,298.2
975.5,379,20.9,16.1,74,11.84,25,4.1,296.1,330.5,298.2
975.1,383,20.8,16.0,74,11.82,25,4.1,296.1,330.4,298.2
974.6,387,20.8,16.0,74,11.79,25,4.1,296.1,330.3,298.2
974.1,391,20.8,15.9,74,11.77,25,4.1,296.1,330.3,298.2
973.7,396,20.7,15.9,74,11.75,24,4.1,296.1,330.2,298.2
973.2,400,20.7,15.9,74,11.73,24,4.1,296.1,330.1,298.2
972.7,404,20.7,15.8,74,11.69,24,4.1,296.1,330.1,298.2
972.3,408,20.6,15.8,74,11.66,24,4.1,296.1,330.0,298.2
971.8,412,20.6,15.7,74,11.63,24,4.1,296.2,329.9,298.2
971.3,416,20.6,15.7,73,11.60,24,4.1,296.2,329.9,298.2
970.9,421,20.6,15.6,73,11.58,23,4.1,296.2,329.8,298.2
970.4,425,20.5,15.6,73,11.55,23,4.0,296.2,329.7,298.3
969.9,429,20.5,15.5,73,11.51,23,4.0,296.2,329.6,298.3
969.4,434,20.5,15.4,73,11.45,22,4.0,296.2,329.5,298.3
968.9,438,20.4,15.3,72,11.38,22,4.0,296.3,329.3,298.3
968.4,443,20.4,15.2,72,11.29,22,4.0,296.3,329.1,298.3
967.9,447,20.4,15.1,72,11.24,21,4.0,296.3,328.9,298.3
967.4,451,20.4,15.1,72,11.21,21,4.0,296.3,328.9,298.3
966.9,456,20.4,15.1,72,11.22,20,4.0,296.3,329.0,298.3
966.4,460,20.3,15.2,72,11.29,20,3.9,296.3,329.1,298.3
965.9,465,20.2,15.3,73,11.41,19,3.9,296.3,329.4,298.3
965.4,469,20.2,15.5,74,11.54,19,3.9,296.3,329.8,298.4
964.9,474,20.1,15.6,75,11.63,18,3.9,296.3,330.0,298.3
964.4,478,20.1,15.6,76,11.64,18,3.9,296.3,330.1,298.3
963.9,483,20.0,15.6,76,11.62,17,3.9,296.3,330.0,298.3
963.4,487,20.0,15.5,76,11.59,17,3.9,296.3,329.9,298.3
962.9,492,19.9,15.6,76,11.62,16,3.9,296.3,330.0,298.3
962.4,496,19.9,15.6,76,11.65,16,3.9,296.2,330.1,298.3
961.9,501,19.8,15.6,77,11.68,15,3.8,296.3,330.2,298.3
961.4,505,19.8,15.7,77,11.72,15,3.8,296.3,330.3,298.3
960.9,510,19.8,15.7,77,11.77,14,3.8,296.3,330.4,298.4
960.4,514,19.7,15.8,78,11.82,14,3.8,296.3,330.6,298.4
959.9,519,19.7,15.8,78,11.85,13,3.8,296.3,330.7,298.4
959.3,524,19.6,15.8,79,11.88,13,3.8,296.3,330.8,298.4
958.8,529,19.6,15.8,79,11.88,13,3.8,296.3,330.8,298.4
958.3,533,19.6,15.8,79,11.84,13,3.8,296.3,330.7,298.4
957.8,538,19.6,15.7,78,11.79,13,3.8,296.3,330.5,298.4
957.3,542,19.5,15.6,78,11.74,13,3.8,296.4,330.4,298.4
956.8,547,19.5,15.6,78,11.73,13,3.8,296.4,330.5,298.5
956.3,551,19.5,15.6,78,11.74,13,3.8,296.4,330.5,298.5
955.8,556,19.5,15.6,78,11.76,13,3.7,296.4,330.6,298.5
955.3,561,19.4,15.7,79,11.79,13,3.7,296.4,330.6,298.5
954.7,565,19.4,15.7,79,11.82,14,3.7,296.4,330.8,298.5
954.2,570,19.3,15.7,80,11.87,14,3.7,296.4,330.9,298.5
953.8,574,19.3,15.8,80,11.91,15,3.7,296.4,331.0,298.6
953.3,578,19.3,15.8,80,11.94,15,3.7,296.5,331.1,298.6
952.8,583,19.3,15.8,81,11.95,16,3.6,296.5,331.2,298.6
952.3,587,19.2,15.8,81,11.96,16,3.6,296.5,331.2,298.6
951.9,591,19.2,15.8,81,11.95,17,3.6,296.5,331.2,298.6
951.4,595,19.2,15.8,81,11.95,17,3.6,296.5,331.2,298.6
950.9,600,19.1,15.8,81,11.92,18,3.6,296.5,331.1,298.6
950.5,604,19.1,15.6,80,11.82,18,3.5,296.5,330.9,298.6
950.0,608,19.1,15.4,79,11.65,19,3.5,296.6,330.4,298.7
949.5,612,19.2,15.2,78,11.51,20,3.5,296.7,330.1,298.7
949.1,617,19.2,15.1,77,11.43,20,3.5,296.7,329.9,298.7
948.6,621,19.1,15.0,77,11.39,21,3.5,296.7,329.9,298.8
948.1,626,19.1,15.0,77,11.37,21,3.5,296.8,329.8,298.8
947.6,630,19.1,15.0,77,11.36,22,3.5,296.8,329.8,298.8
947.0,635,19.1,15.0,77,11.36,23,3.4,296.8,329.9,298.8
946.5,640,19.0,14.9,77,11.34,23,3.4,296.8,329.8,298.8
946.0,645,19.0,14.9,77,11.33,24,3.4,296.8,329.8,298.8
945.4,650,18.9,14.9,77,11.33,24,3.4,296.8,329.8,298.8
944.9,654,18.9,14.9,78,11.34,25,3.4,296.8,329.8,298.8
944.4,659,18.9,14.9,78,11.35,25,3.4,296.8,329.9,298.8
943.9,663,18.8,14.9,78,11.36,26,3.4,296.8,329.9,298.9
943.4,668,18.8,14.9,78,11.36,26,3.4,296.8,329.9,298.9
943.0,672,18.8,14.8,78,11.33,27,3.4,296.8,329.8,298.9
942.5,676,18.7,14.8,78,11.28,27,3.4,296.9,329.7,298.9
942.0,681,18.7,14.7,77,11.24,28,3.4,296.9,329.6,298.9
941.5,685,18.7,14.7,77,11.21,28,3.4,296.9,329.6,298.9
941.0,690,18.7,14.6,77,11.19,29,3.4,296.9,329.5,298.9
940.5,695,18.7,14.6,77,11.18,29,3.4,297.0,329.5,299.0
940.0,699,18.6,14.6,77,11.18,29,3.5,297.0,329.5,299.0
939.4,704,18.6,14.6,77,11.16,30,3.5,297.0,329.5,299.0
938.9,709,18.5,14.4,77,11.03,30,3.5,297.0,329.1,299.0
938.4,714,18.5,14.1,75,10.81,30,3.5,297.0,328.5,299.0
937.8,719,18.6,13.8,74,10.63,31,3.5,297.1,328.1,299.0
937.3,724,18.6,13.7,73,10.58,31,3.5,297.1,328.0,299.0
936.8,729,18.5,13.6,73,10.54,32,3.5,297.1,327.9,299.0
936.3,733,18.5,13.6,73,10.49,32,3.5,297.2,327.8,299.0
935.8,738,18.4,13.7,74,10.62,32,3.5,297.2,328.2,299.1
935.3,742,18.4,14.2,77,10.94,33,3.5,297.2,329.1,299.1
934.8,746,18.3,14.6,79,11.23,33,3.5,297.1,329.9,299.1
934.3,751,18.2,14.8,80,11.37,34,3.5,297.1,330.2,299.1
933.9,756,18.2,14.8,81,11.42,34,3.5,297.1,330.3,299.1
933.4,760,18.1,14.8,81,11.42,34,3.5,297.1,330.3,299.1
932.9,765,18.1,14.8,81,11.44,35,3.5,297.1,330.4,299.1
932.4,769,18.0,14.9,82,11.47,35,3.5,297.1,330.5,299.1
931.9,774,18.0,14.9,82,11.53,36,3.5,297.0,330.6,299.1
931.4,778,17.9,15.0,83,11.60,36,3.4,297.0,330.8,299.1
930.9,783,17.9,15.1,84,11.66,37,3.4,297.0,331.0,299.1
930.4,787,17.8,15.1,84,11.70,37,3.4,297.1,331.1,299.1
929.9,792,17.8,15.1,84,11.67,38,3.4,297.1,331.1,299.2
929.4,797,17.8,15.0,84,11.63,39,3.4,297.1,331.0,299.2
928.9,801,17.8,15.0,84,11.62,39,3.3,297.2,331.0,299.2
928.4,806,17.8,15.0,84,11.61,40,3.3,297.2,331.0,299.3
927.9,810,17.8,15.0,84,11.61,40,3.3,297.2,331.1,299.3
927.4,815,17.7,15.0,84,11.62,41,3.3,297.2,331.1,299.3
926.9,820,17.7,15.0,84,11.63,41,3.3,297.2,331.1,299.3
926.4,825,17.7,15.0,84,11.64,42,3.2,297.2,331.2,299.3
925.9,829,17.6,15.0,85,11.65,42,3.2,297.2,331.2,299.3
925.3,834,17.6,15.0,85,11.67,43,3.2,297.2,331.2,299.3
925.0,837,17.5,15.0,85,11.68,43,3.2,297.2,331.3,299.3
924.8,839,17.5,15.0,85,11.68,43,3.2,297.2,331.3,299.3
924.3,844,17.5,15.0,85,11.69,44,3.2,297.2,331.3,299.3
923.8,849,17.4,15.0,86,11.68,44,3.2,297.2,331.3,299.3
923.2,854,17.4,15.0,86,11.67,45,3.2,297.2,331.2,299.3
922.7,858,17.4,14.9,86,11.65,45,3.2,297.3,331.2,299.4
922.2,863,17.3,14.9,85,11.61,46,3.3,297.3,331.1,299.4
921.7,868,17.3,14.8,85,11.58,46,3.3,297.3,331.1,299.4
921.2,873,17.3,14.8,85,11.54,46,3.3,297.3,331.0,299.4
920.7,877,17.3,14.7,85,11.51,47,3.4,297.4,330.9,299.4
920.2,882,17.3,14.7,85,11.48,47,3.4,297.4,330.9,299.5
919.7,887,17.3,14.6,84,11.44,47,3.5,297.4,330.8,299.5
919.2,891,17.3,14.5,84,11.36,47,3.5,297.5,330.6,299.5
918.7,896,17.2,14.4,83,11.28,47,3.6,297.5,330.4,299.5
918.2,901,17.2,14.3,83,11.22,47,3.7,297.5,330.3,299.6
917.7,905,17.2,14.2,82,11.17,47,3.7,297.6,330.2,299.6
917.2,909,17.2,14.2,82,11.15,47,3.8,297.6,330.2,299.6
916.8,914,17.2,14.1,82,11.12,47,3.9,297.6,330.1,299.6
916.4,917,17.2,14.0,82,11.06,46,4.0,297.7,330.0,299.6
915.9,921,17.2,14.0,81,11.01,46,4.0,297.7,329.9,299.7
915.5,925,17.2,13.9,81,10.98,46,4.1,297.8,329.9,299.8
915.1,929,17.2,13.9,81,10.96,45,4.1,297.8,329.9,299.8
914.6,934,17.2,13.9,81,10.95,45,4.2,297.8,329.9,299.8
914.2,938,17.2,13.8,81,10.93,44,4.2,297.8,329.8,299.8
913.7,942,17.1,13.8,81,10.89,44,4.2,297.9,329.7,299.8
913.2,947,17.1,13.7,81,10.87,43,4.2,297.9,329.7,299.8
912.8,951,17.1,13.7,81,10.85,43,4.2,297.9,329.6,299.8
912.3,956,17.0,13.7,81,10.84,42,4.2,297.9,329.6,299.8
911.8,960,17.0,13.7,81,10.84,41,4.2,297.9,329.6,299.8
911.3,965,17.0,13.6,81,10.81,41,4.1,297.9,329.6,299.8
910.8,969,16.9,13.6,81,10.80,40,4.1,297.9,329.5,299.9
910.3,974,16.9,13.6,81,10.79,39,4.0,297.9,329.5,299.9
909.8,979,16.9,13.5,81,10.78,38,3.9,297.9,329.5,299.9
909.3,984,16.8,13.5,81,10.77,37,3.8,297.9,329.4,299.9
908.7,989,16.8,13.5,81,10.74,36,3.7,297.9,329.4,299.9
908.2,994,16.7,13.4,81,10.73,35,3.6,298.0,329.4,299.9
907.7,999,16.7,13.4,81,10.73,34,3.5,298.0,329.4,299.9
907.2,1003,16.7,13.4,81,10.71,33,3.3,298.0,329.4,299.9
906.7,1008,16.6,13.4,81,10.69,32,3.2,298.0,329.3,299.9
906.3,1012,16.6,13.4,81,10.70,31,3.1,298.0,329.4,299.9
905.8,1016,16.6,13.4,81,10.72,29,2.9,298.0,329.4,299.9
905.4,1020,16.5,13.4,82,10.74,28,2.8,298.0,329.5,300.0
905.0,1025,16.5,13.4,82,10.75,27,2.7,298.0,329.5,300.0
904.5,1029,16.5,13.4,82,10.76,25,2.6,298.0,329.6,300.0
904.1,1033,16.4,13.4,82,10.77,24,2.5,298.0,329.6,300.0
903.6,1037,16.4,13.4,82,10.76,23,2.4,298.0,329.6,300.0
903.2,1041,16.4,13.4,83,10.75,22,2.3,298.0,329.5,300.0
902.7,1046,16.3,13.4,83,10.75,21,2.2,298.1,329.5,300.0
902.3,1050,16.3,13.4,83,10.74,20,2.1,298.1,329.5,300.0
901.8,1054,16.2,13.3,83,10.74,19,2.1,298.1,329.5,300.0
901.3,1059,16.2,13.3,83,10.73,18,2.0,298.1,329.5,300.0
900.8,1063,16.2,13.3,83,10.73,18,2.0,298.1,329.5,300.0
900.3,1068,16.1,13.3,83,10.71,18,1.9,298.1,329.5,300.0
899.8,1073,16.1,13.3,83,10.70,18,1.9,298.1,329.4,300.0
899.3,1078,16.1,13.2,83,10.69,18,1.9,298.1,329.4,300.0
898.8,1083,16.0,13.2,83,10.67,18,1.8,298.1,329.4,300.0
898.3,1087,16.0,13.2,83,10.64,18,1.8,298.1,329.3,300.0
897.9,1092,16.0,13.1,83,10.64,19,1.8,298.1,329.3,300.0
897.4,1096,15.9,13.2,84,10.66,20,1.8,298.2,329.4,300.1
897.0,1100,15.9,13.2,84,10.68,21,1.8,298.2,329.5,300.1
896.5,1104,15.9,13.2,84,10.67,22,1.8,298.2,329.5,300.1
896.1,1108,15.9,13.1,84,10.63,23,1.7,298.2,329.4,300.1
895.6,1113,15.9,13.0,83,10.56,25,1.7,298.2,329.2,300.1
895.1,1118,15.8,12.9,83,10.50,27,1.7,298.3,329.1,300.2
894.6,1122,15.8,12.8,82,10.45,29,1.6,298.3,329.0,300.2
894.1,1127,15.8,12.7,82,10.41,31,1.6,298.3,328.9,300.2
893.6,1132,15.8,12.7,82,10.38,34,1.6,298.4,328.9,300.2
893.1,1137,15.7,12.7,82,10.37,38,1.5,298.4,328.8,300.2
892.6,1142,15.7,12.6,82,10.35,42,1.5,298.4,328.8,300.2
892.1,1147,15.7,12.6,82,10.32,46,1.5,298.4,328.7,300.2
891.6,1151,15.6,12.5,82,10.30,51,1.4,298.4,328.6,300.2
891.1,1156,15.6,12.5,82,10.28,57,1.4,298.4,328.6,300.3
890.7,1160,15.6,12.5,82,10.27,62,1.4,298.4,328.6,300.3
890.3,1164,15.5,12.5,82,10.26,68,1.5,298.4,328.6,300.3
889.9,1168,15.5,12.4,82,10.24,73,1.5,298.4,328.5,300.3
889.4,1172,15.5,12.4,82,10.21,78,1.6,298.4,328.4,300.3
889.0,1176,15.4,12.4,82,10.21,83,1.7,298.4,328.4,300.3
888.6,1180,15.4,12.4,82,10.20,87,1.7,298.5,328.4,300.3
888.2,1184,15.4,12.3,82,10.20,91,1.8,298.5,328.4,300.3
887.7,1188,15.3,12.3,82,10.19,94,1.9,298.5,328.4,300.3
887.3,1192,15.3,12.3,82,10.16,97,2.0,298.5,328.3,300.3
886.9,1196,15.3,12.2,82,10.13,99,2.2,298.5,328.3,300.3
886.4,1201,15.2,12.2,82,10.13,100,2.3,298.5,328.3,300.3
886.0,1205,15.2,12.2,82,10.11,102,2.4,298.5,328.2,300.3
885.5,1209,15.2,12.1,82,10.08,103,2.4,298.5,328.2,300.3
885.1,1214,15.2,12.1,82,10.05,104,2.5,298.6,328.1,300.4
884.6,1218,15.2,12.0,81,10.02,104,2.6,298.6,328.1,300.4
884.1,1223,15.1,12.0,81,9.99,104,2.7,298.6,328.0,300.4
883.7,1227,15.1,11.9,81,9.95,104,2.7,298.6,327.9,300.4
883.2,1232,15.1,11.8,81,9.90,104,2.7,298.6,327.8,300.4
882.7,1237,15.1,11.7,80,9.85,104,2.8,298.7,327.7,300.5
882.2,1242,15.1,11.7,80,9.81,104,2.8,298.7,327.6,300.5
881.6,1247,15.1,11.6,80,9.79,104,2.8,298.8,327.6,300.6
881.1,1252,15.1,11.6,79,9.75,103,2.8,298.8,327.6,300.6
880.6,1257,15.0,11.5,79,9.72,103,2.7,298.8,327.5,300.6
880.1,1262,15.0,11.4,79,9.69,102,2.7,298.9,327.4,300.6
879.6,1266,15.0,11.4,79,9.65,101,2.6,298.9,327.4,300.6
879.1,1271,15.0,11.3,79,9.63,100,2.6,298.9,327.3,300.7
878.6,1276,14.9,11.2,79,9.58,100,2.5,298.9,327.2,300.7
878.2,1280,14.9,11.1,78,9.52,99,2.5,298.9,327.0,300.7
877.7,1285,14.9,11.0,78,9.44,97,2.4,299.0,326.8,300.7
877.2,1289,14.9,10.8,76,9.28,96,2.4,299.0,326.4,300.7
876.8,1293,15.0,10.4,74,9.10,95,2.3,299.1,326.0,300.8
876.3,1298,15.1,10.2,73,8.98,94,2.3,299.3,325.8,300.9
875.9,1302,15.0,10.2,73,8.93,92,2.2,299.3,325.8,300.9
875.5,1306,15.0,10.1,72,8.90,91,2.2,299.3,325.7,300.9
875.1,1310,15.0,10.0,72,8.85,89,2.1,299.3,325.5,300.9
874.6,1314,15.0,10.0,72,8.82,88,2.1,299.4,325.5,300.9
874.2,1318,14.9,9.9,72,8.80,86,2.1,299.4,325.4,301.0
873.8,1322,14.9,9.8,71,8.74,85,2.1,299.4,325.3,301.0
873.4,1326,14.9,9.7,71,8.69,83,2.1,299.4,325.2,301.0
873.0,1330,14.9,9.7,71,8.68,82,2.1,299.4,325.2,301.0
872.6,1334,14.9,9.7,71,8.69,81,2.1,299.4,325.2,301.0
872.1,1339,14.8,9.7,72,8.72,79,2.1,299.4,325.3,301.0
871.7,1343,14.8,9.8,72,8.74,78,2.1,299.4,325.3,301.0
871.2,1347,14.7,9.8,72,8.77,77,2.2,299.4,325.4,301.0
870.8,1352,14.7,9.9,73,8.82,76,2.2,299.4,325.5,301.0
870.3,1356,14.6,9.9,73,8.84,75,2.2,299.4,325.6,301.0
869.8,1361,14.6,9.8,73,8.80,74,2.3,299.4,325.5,301.0
869.4,1366,14.6,9.7,73,8.74,73,2.3,299.5,325.4,301.0
868.9,1370,14.6,9.7,72,8.72,72,2.3,299.5,325.4,301.1
868.4,1375,14.5,9.8,73,8.76,72,2.4,299.5,325.5,301.1
867.9,1379,14.5,9.8,73,8.82,71,2.4,299.5,325.7,301.1
867.5,1384,14.5,9.8,74,8.82,70,2.4,299.6,325.7,301.1
867.0,1388,14.5,9.8,74,8.81,69,2.4,299.6,325.7,301.2
866.6,1393,14.4,9.7,73,8.77,68,2.4,299.6,325.6,301.2
866.1,1397,14.4,9.7,73,8.73,67,2.4,299.6,325.5,301.2
865.7,1402,14.4,9.6,72,8.68,67,2.4,299.7,325.4,301.3
865.2,1406,14.4,9.5,72,8.65,66,2.4,299.7,325.4,301.3
864.7,1411,14.4,9.4,72,8.60,65,2.4,299.8,325.3,301.3
864.3,1415,14.4,9.3,71,8.54,64,2.4,299.8,325.1,301.3
863.8,1420,14.4,9.2,71,8.48,63,2.3,299.8,325.0,301.4
863.4,1424,14.4,9.1,70,8.45,61,2.3,299.9,325.0,301.4
862.9,1429,14.4,9.1,70,8.42,60,2.3,299.9,325.0,301.5
862.4,1433,14.4,9.0,70,8.39,59,2.2,300.0,324.9,301.5
862.0,1438,14.4,8.9,70,8.34,58,2.2,300.0,324.8,301.5
861.5,1442,14.4,8.8,69,8.29,56,2.1,300.0,324.7,301.5
861.0,1447,14.4,8.7,69,8.25,55,2.0,300.1,324.6,301.6
860.6,1452,14.3,8.7,69,8.22,53,2.0,300.1,324.6,301.6
860.1,1456,14.3,8.6,68,8.17,52,1.9,300.1,324.4,301.6
859.7,1461,14.3,8.5,68,8.14,50,1.8,300.1,324.4,301.6
859.2,1465,14.3,8.5,68,8.12,48,1.7,300.2,324.4,301.6
858.7,1470,14.2,8.5,68,8.12,46,1.7,300.2,324.3,301.6
858.2,1474,14.2,8.5,68,8.12,43,1.6,300.2,324.4,301.6
857.8,1479,14.2,8.4,68,8.11,41,1.5,300.2,324.3,301.6
857.3,1484,14.1,8.4,69,8.11,38,1.5,300.2,324.4,301.6
856.9,1488,14.1,8.4,69,8.12,35,1.4,300.2,324.4,301.6
856.4,1492,14.0,8.4,69,8.12,32,1.3,300.2,324.4,301.6
856.0,1497,14.0,8.4,69,8.12,28,1.3,300.2,324.4,301.6
855.6,1501,13.9,8.4,69,8.11,25,1.2,300.2,324.3,301.6
855.2,1505,13.9,8.4,69,8.10,21,1.2,300.2,324.3,301.6
854.8,1509,13.9,8.4,69,8.09,17,1.2,300.2,324.3,301.7
854.4,1513,13.9,8.4,69,8.10,12,1.1,300.3,324.4,301.7
854.0,1517,13.9,8.3,69,8.09,8,1.1,300.3,324.4,301.8
853.5,1521,13.9,8.3,69,8.09,4,1.1,300.3,324.4,301.8
853.1,1525,13.9,8.3,69,8.09,359,1.1,300.3,324.5,301.8
852.7,1530,13.9,8.3,69,8.10,355,1.0,300.4,324.5,301.8
852.2,1534,13.9,8.3,69,8.10,351,1.0,300.4,324.6,301.9
851.7,1539,13.9,8.3,69,8.11,348,1.0,300.5,324.7,302.0
851.3,1543,13.9,8.3,69,8.12,344,1.0,300.6,324.8,302.0
850.8,1548,13.9,8.3,69,8.11,341,1.0,300.6,324.8,302.1
850.3,1553,13.8,8.3,69,8.10,338,1.0,300.6,324.8,302.1
850.0,1556,13.8,8.3,69,8.09,338,1.0,300.6,324.8,302.1
849.9,1557,13.8,8.3,69,8.10,335,1.0,300.6,324.8,302.1
849.5,1561,13.8,8.3,69,8.09,332,1.0,300.6,324.8,302.1
849.0,1566,13.7,8.2,69,8.08,330,1.0,300.6,324.7,302.1
848.6,1570,13.7,8.2,69,8.08,328,0.9,300.6,324.7,302.1
848.2,1574,13.7,8.2,70,8.09,326,0.9,300.6,324.8,302.1
847.8,1578,13.6,8.2,70,8.09,324,0.9,300.6,324.8,302.1
847.4,1581,13.6,8.2,70,8.09,322,0.9,300.6,324.8,302.1
847.0,1585,13.5,8.2,70,8.06,321,0.8,300.6,324.7,302.1
846.6,1590,13.6,8.1,69,8.02,319,0.8,300.7,324.6,302.1
846.2,1594,13.6,8.0,69,7.99,318,0.8,300.8,324.6,302.2
845.7,1599,13.6,8.0,69,7.98,317,0.8,300.8,324.7,302.3
845.2,1603,13.6,8.0,69,7.98,316,0.7,300.8,324.7,302.3
844.7,1609,13.5,7.9,69,7.96,315,0.7,300.9,324.6,302.3
844.2,1614,13.5,7.8,69,7.91,314,0.7,300.9,324.5,302.3
843.6,1619,13.5,7.8,68,7.87,313,0.7,300.9,324.4,302.3
843.1,1625,13.4,7.7,68,7.83,313,0.7,300.9,324.3,302.3
842.6,1630,13.4,7.6,68,7.81,312,0.7,300.9,324.2,302.3
842.0,1635,13.3,7.6,68,7.79,312,0.7,300.9,324.2,302.3
841.5,1641,13.3,7.5,68,7.77,311,0.7,300.9,324.2,302.3
841.0,1646,13.3,7.5,68,7.74,311,0.7,301.0,324.1,302.4
840.4,1651,13.3,7.4,67,7.70,310,0.8,301.0,324.0,302.4
839.9,1657,13.3,7.3,67,7.65,309,0.8,301.0,324.0,302.4
839.4,1662,13.2,7.2,67,7.63,308,0.9,301.1,323.9,302.5
838.9,1667,13.2,7.2,67,7.63,306,0.9,301.1,324.0,302.5
838.4,1672,13.2,7.3,68,7.69,305,1.0,301.1,324.2,302.5
838.0,1676,13.2,7.4,68,7.74,303,1.1,301.2,324.4,302.6
837.6,1680,13.2,7.4,68,7.72,302,1.2,301.2,324.4,302.6
837.2,1684,13.2,7.1,66,7.57,301,1.3,301.3,324.0,302.7
836.8,1688,13.3,6.6,64,7.31,300,1.4,301.4,323.4,302.7
836.4,1692,13.4,5.9,61,7.00,298,1.5,301.6,322.6,302.8
