PRES,HGHT,TEMP,DWPT,RELH,MIXR,DRCT,SPED,THTA,THTE,THTV
1011.3,31,20.8,19.6,93,14.37,264,3.1,293.0,334.0,295.5
1010.7,36,21.4,19.8,90,14.49,270,1.8,293.7,335.1,296.2
1010.1,41,21.6,19.8,89,14.52,274,1.5,293.9,335.5,296.5
1009.4,47,22.1,20.0,88,14.71,275,1.5,294.5,336.7,297.1
1008.7,53,22.8,20.2,85,14.96,274,1.5,295.2,338.3,297.9
1008.1,58,23.2,20.2,83,14.94,273,1.6,295.6,338.8,298.3
1007.5,64,23.3,20.1,82,14.83,272,1.7,295.8,338.7,298.5
1007.0,68,23.5,20.0,81,14.80,271,1.8,296.0,338.8,298.7
1006.4,73,23.7,20.1,80,14.83,271,1.8,296.3,339.2,298.9
1005.8,78,23.9,20.1,79,14.87,270,1.9,296.5,339.6,299.2
1005.2,83,24.0,20.1,79,14.91,269,1.9,296.7,339.9,299.4
1004.6,89,24.1,20.2,79,14.95,268,1.9,296.8,340.2,299.5
1004.0,94,24.1,20.2,79,14.99,268,1.9,296.9,340.4,299.5
1003.3,100,24.0,20.2,79,15.01,267,1.9,296.9,340.4,299.6
1002.7,105,24.0,20.2,79,15.03,266,1.9,296.9,340.5,299.6
1002.1,111,24.0,20.2,79,15.06,265,1.9,297.0,340.7,299.6
1001.5,116,24.0,20.2,80,15.07,264,1.9,297.0,340.7,299.7
1000.9,121,24.0,20.2,79,15.06,263,1.9,297.1,340.8,299.8
1000.2,127,24.1,20.2,79,15.07,262,1.8,297.2,341.0,299.9
1000.0,129,24.1,20.2,79,15.07,261,1.8,297.3,341.1,299.9
999.6,132,24.2,20.2,79,15.08,261,1.8,297.3,341.2,300.0
999.0,137,24.2,20.2,78,15.10,260,1.7,297.4,341.3,300.1
998.5,143,24.2,20.2,79,15.12,258,1.7,297.5,341.5,300.2
997.9,148,24.2,20.3,79,15.15,256,1.6,297.5,341.6,300.2
997.3,152,24.2,20.2,79,15.14,255,1.5,297.5,341.6,300.2
996.8,157,24.1,20.2,79,15.14,253,1.5,297.5,341.6,300.2
996.2,162,24.1,20.3,79,15.18,250,1.4,297.6,341.7,300.3
995.6,167,24.1,20.3,79,15.23,248,1.3,297.6,341.9,300.3
995.1,172,24.0,20.3,80,15.25,245,1.3,297.6,342.0,300.3
994.5,178,24.0,20.3,80,15.27,241,1.2,297.6,342.0,300.3
993.9,183,23.9,20.3,80,15.26,237,1.2,297.6,342.0,300.3
993.3,188,23.9,20.3,80,15.23,233,1.1,297.6,341.9,300.3
992.7,194,23.8,20.2,80,15.20,228,1.1,297.6,341.8,300.3
992.1,199,23.8,20.1,80,15.13,223,1.1,297.6,341.7,300.3
991.5,204,23.8,20.1,80,15.08,218,1.1,297.7,341.6,300.4
990.9,210,23.8,20.1,80,15.07,214,1.1,297.7,341.6,300.4
990.2,215,23.7,20.1,80,15.08,209,1.1,297.7,341.6,300.4
989.6,220,23.7,20.1,80,15.10,204,1.1,297.7,341.7,300.4
989.0,226,23.6,20.1,80,15.12,200,1.2,297.7,341.7,300.4
988.4,231,23.6,20.1,81,15.12,196,1.2,297.7,341.7,300.4
987.7,237,23.5,20.0,81,15.09,193,1.3,297.7,341.6,300.4
987.1,243,23.5,20.0,81,15.09,191,1.3,297.7,341.6,300.4
986.5,248,23.4,20.0,81,15.13,188,1.4,297.7,341.8,300.4
985.8,254,23.4,20.1,82,15.16,187,1.4,297.7,341.9,300.4
985.2,260,23.3,20.1,82,15.18,185,1.5,297.7,341.9,300.4
984.5,266,23.3,20.1,82,15.19,184,1.5,297.7,341.9,300.4
983.9,272,23.2,20.1,83,15.20,183,1.6,297.7,342.0,300.4
983.2,277,23.2,20.1,83,15.21,183,1.7,297.7,342.0,300.5
982.6,283,23.1,20.1,83,15.21,182,1.7,297.7,342.0,300.5
981.9,289,23.0,20.0,83,15.17,182,1.7,297.7,341.9,300.4
981.3,295,23.0,20.0,83,15.14,182,1.8,297.7,341.8,300.4
980.6,300,23.0,20.0,83,15.17,183,1.8,297.8,341.9,300.5
980.0,306,22.9,20.0,84,15.23,183,1.8,297.8,342.1,300.5
979.4,312,22.8,20.1,84,15.25,183,1.8,297.8,342.2,300.5
978.7,317,22.8,20.0,84,15.21,184,1.8,297.8,342.1,300.5
978.1,323,22.7,20.0,84,15.18,185,1.8,297.7,341.9,300.5
977.5,328,22.7,19.9,84,15.17,186,1.8,297.8,341.9,300.5
976.9,334,22.6,19.9,85,15.16,187,1.8,297.8,341.9,300.5
976.3,339,22.6,19.9,85,15.14,188,1.8,297.8,341.8,300.5
975.7,344,22.5,19.9,85,15.13,189,1.8,297.8,341.8,300.5
975.1,349,22.5,19.8,85,15.12,190,1.8,297.8,341.8,300.5
974.6,354,22.4,19.8,85,15.11,192,1.8,297.8,341.8,300.5
974.0,359,22.4,19.8,85,15.10,193,1.7,297.8,341.7,300.5
973.5,364,22.4,19.8,85,15.09,194,1.7,297.8,341.7,300.5
972.9,370,22.3,19.8,85,15.07,196,1.7,297.8,341.7,300.5
972.3,375,22.3,19.7,85,15.02,197,1.7,297.8,341.5,300.5
971.7,380,22.2,19.6,85,14.96,199,1.6,297.8,341.4,300.5
971.1,386,22.2,19.6,85,14.92,200,1.6,297.8,341.3,300.5
970.5,391,22.1,19.6,85,14.92,201,1.6,297.8,341.3,300.5
969.9,397,22.1,19.6,86,14.96,202,1.6,297.8,341.4,300.5
969.3,402,22.0,19.6,86,14.99,204,1.6,297.8,341.5,300.5
968.6,408,22.0,19.6,86,14.98,205,1.5,297.8,341.5,300.5
968.0,413,21.9,19.5,86,14.94,205,1.5,297.8,341.4,300.5
967.4,419,21.9,19.5,86,14.91,206,1.5,297.8,341.3,300.5
966.8,424,21.9,19.5,86,14.91,206,1.5,297.9,341.3,300.5
966.2,429,21.8,19.5,87,14.92,207,1.5,297.9,341.3,300.5
965.7,435,21.7,19.5,87,14.90,207,1.5,297.8,341.2,300.5
965.1,440,21.7,19.4,87,14.87,207,1.5,297.8,341.1,300.5
964.5,445,21.6,19.4,87,14.84,207,1.5,297.8,341.1,300.5
963.9,450,21.6,19.4,87,14.83,206,1.5,297.9,341.0,300.5
963.3,456,21.6,19.4,87,14.84,206,1.4,297.9,341.1,300.5
962.7,461,21.5,19.4,88,14.85,205,1.4,297.9,341.1,300.5
962.1,466,21.5,19.3,88,14.84,204,1.4,297.9,341.1,300.5
961.5,472,21.4,19.3,88,14.81,203,1.4,297.9,341.0,300.5
960.9,477,21.3,19.2,88,14.76,202,1.4,297.9,340.9,300.5
960.3,483,21.3,19.2,88,14.71,201,1.4,297.9,340.7,300.5
959.7,488,21.3,19.1,87,14.67,200,1.4,297.9,340.6,300.5
959.1,494,21.2,19.1,88,14.65,199,1.4,297.9,340.6,300.5
958.6,499,21.2,19.1,88,14.63,197,1.4,297.9,340.6,300.5
958.0,504,21.2,19.0,87,14.60,196,1.4,298.0,340.5,300.6
957.4,510,21.1,19.0,87,14.57,194,1.4,298.0,340.4,300.6
956.8,515,21.1,18.9,87,14.54,193,1.4,298.0,340.4,300.6
956.2,520,21.1,18.9,87,14.51,192,1.4,298.0,340.3,300.6
955.6,525,21.0,18.8,87,14.48,190,1.4,298.0,340.2,300.6
955.1,531,21.0,18.8,87,14.43,189,1.4,298.0,340.1,300.6
954.5,536,20.9,18.7,87,14.39,188,1.4,298.0,340.0,300.6
953.9,541,20.9,18.7,87,14.37,186,1.4,298.1,340.0,300.6
953.3,546,20.9,18.7,87,14.36,185,1.3,298.1,340.0,300.7
952.7,552,20.9,18.7,87,14.36,184,1.3,298.1,340.0,300.7
952.1,557,20.8,18.6,87,14.30,183,1.3,298.1,339.8,300.7
951.5,563,20.8,18.5,87,14.22,182,1.3,298.1,339.6,300.7
950.9,568,20.8,18.4,86,14.16,182,1.3,298.2,339.5,300.7
950.3,574,20.7,18.3,86,14.09,181,1.3,298.2,339.3,300.7
949.7,580,20.7,18.2,86,14.01,181,1.3,298.2,339.1,300.7
949.0,586,20.7,18.2,86,13.98,180,1.2,298.3,339.1,300.8
948.4,591,20.6,18.2,86,13.98,180,1.2,298.3,339.1,300.8
947.8,597,20.6,18.2,86,13.97,180,1.2,298.3,339.1,300.8
947.1,603,20.5,18.1,86,13.93,181,1.2,298.3,338.9,300.8
946.5,609,20.5,18.0,85,13.83,181,1.1,298.3,338.7,300.8
945.8,615,20.5,17.8,85,13.72,182,1.1,298.3,338.4,300.8
945.2,620,20.5,17.7,84,13.62,183,1.1,298.4,338.2,300.8
944.6,626,20.4,17.7,84,13.57,185,1.0,298.4,338.1,300.8
944.0,632,20.4,17.7,84,13.59,186,1.0,298.4,338.2,300.9
943.4,637,20.4,17.7,84,13.59,188,1.0,298.5,338.2,300.9
942.8,643,20.3,17.6,84,13.52,190,0.9,298.5,338.0,300.9
942.2,649,20.3,17.5,84,13.44,193,0.9,298.5,337.8,300.9
941.5,654,20.3,17.4,83,13.38,196,0.9,298.5,337.7,300.9
940.9,660,20.3,17.4,83,13.38,199,0.9,298.6,337.7,300.9
940.3,665,20.2,17.4,84,13.38,203,0.9,298.6,337.7,301.0
939.7,671,20.2,17.3,84,13.34,206,0.8,298.6,337.6,301.0
939.1,677,20.1,17.2,84,13.29,210,0.8,298.6,337.4,301.0
938.5,682,20.1,17.2,83,13.23,214,0.8,298.6,337.3,301.0
937.9,688,20.0,17.1,83,13.16,218,0.8,298.6,337.1,301.0
937.3,693,20.0,17.0,83,13.15,221,0.8,298.6,337.1,301.0
936.7,699,20.0,17.1,83,13.17,225,0.8,298.6,337.2,301.0
936.1,704,19.9,17.1,83,13.18,228,0.9,298.7,337.2,301.0
935.5,710,19.9,17.0,83,13.16,231,0.9,298.7,337.2,301.0
935.0,715,19.9,17.0,84,13.16,234,0.9,298.7,337.2,301.0
934.4,720,19.8,17.0,84,13.16,236,0.9,298.7,337.2,301.0
933.8,726,19.8,17.0,84,13.16,238,1.0,298.7,337.2,301.0
933.2,731,19.7,17.0,84,13.16,240,1.0,298.7,337.2,301.1
932.6,736,19.7,17.0,85,13.17,241,1.0,298.7,337.2,301.1
932.1,742,19.6,17.0,85,13.17,243,1.1,298.7,337.2,301.0
931.5,747,19.6,16.9,85,13.14,244,1.1,298.7,337.2,301.1
930.9,752,19.5,16.9,85,13.10,245,1.1,298.7,337.1,301.1
930.4,757,19.5,16.8,85,13.07,245,1.2,298.7,337.0,301.1
929.8,763,19.4,16.8,85,13.06,246,1.2,298.7,337.0,301.1
929.3,768,19.4,16.8,85,13.07,247,1.2,298.7,337.0,301.1
928.7,773,19.4,16.8,85,13.10,247,1.3,298.7,337.1,301.1
928.2,778,19.3,16.8,86,13.11,247,1.3,298.7,337.1,301.1
927.6,783,19.3,16.8,86,13.11,248,1.3,298.7,337.1,301.1
927.0,789,19.2,16.8,86,13.11,248,1.4,298.8,337.2,301.1
926.4,794,19.2,16.8,86,13.10,249,1.4,298.8,337.1,301.1
925.8,800,19.1,16.8,86,13.07,249,1.4,298.8,337.1,301.1
925.2,805,19.1,16.7,86,13.06,250,1.4,298.8,337.0,301.1
925.0,807,19.1,16.7,86,13.07,250,1.4,298.8,337.0,301.1
924.6,811,19.0,16.7,87,13.07,250,1.4,298.8,337.1,301.1
924.1,816,19.0,16.7,87,13.06,251,1.4,298.8,337.0,301.1
923.5,822,18.9,16.7,87,13.06,251,1.4,298.8,337.0,301.1
922.9,827,18.9,16.7,87,13.05,252,1.4,298.8,337.0,301.1
922.3,833,18.8,16.7,87,13.06,253,1.3,298.8,337.1,301.1
921.7,838,18.8,16.7,88,13.09,253,1.3,298.8,337.1,301.2
921.1,844,18.7,16.7,88,13.09,254,1.3,298.8,337.1,301.2
920.5,849,18.7,16.6,88,13.06,255,1.2,298.8,337.0,301.1
919.9,855,18.6,16.6,88,13.01,255,1.1,298.8,336.9,301.1
919.3,861,18.6,16.5,88,12.96,256,1.1,298.8,336.8,301.1
918.7,866,18.5,16.5,88,12.96,257,1.0,298.8,336.8,301.2
918.1,872,18.5,16.5,88,12.98,258,0.9,298.8,336.9,301.2
917.6,877,18.4,16.5,89,13.00,258,0.8,298.8,336.9,301.2
917.0,882,18.4,16.5,89,13.00,259,0.7,298.8,336.9,301.2
916.4,888,18.3,16.5,89,12.99,259,0.6,298.9,336.9,301.2
915.9,893,18.3,16.5,89,13.00,259,0.5,298.9,336.9,301.2
915.3,898,18.3,16.5,89,12.99,258,0.4,298.9,336.9,301.2
914.8,903,18.3,16.4,89,12.96,256,0.3,298.9,336.9,301.2
914.2,908,18.2,16.4,89,12.90,250,0.2,299.0,336.8,301.3
913.6,914,18.2,16.3,88,12.83,233,0.1,299.0,336.6,301.3
913.1,919,18.2,16.1,87,12.69,180,0.1,299.0,336.2,301.3
912.5,924,18.2,15.9,86,12.55,135,0.1,299.1,335.9,301.4
911.9,930,18.3,15.8,86,12.47,121,0.2,299.2,335.8,301.4
911.4,935,18.2,15.8,86,12.46,116,0.3,299.2,335.8,301.4
910.8,941,18.2,15.7,86,12.45,115,0.4,299.2,335.7,301.4
910.2,946,18.1,15.7,86,12.41,114,0.5,299.2,335.6,301.4
909.7,951,18.1,15.6,85,12.35,114,0.6,299.2,335.5,301.4
909.1,956,18.1,15.5,85,12.30,115,0.7,299.3,335.4,301.5
908.6,961,18.1,15.5,85,12.26,116,0.8,299.3,335.3,301.5
908.1,966,18.0,15.4,85,12.22,117,0.8,299.3,335.2,301.5
907.6,970,18.0,15.3,84,12.16,118,0.9,299.3,335.1,301.5
907.2,975,18.0,15.3,84,12.13,119,1.0,299.3,335.0,301.5
906.7,979,18.0,15.2,84,12.10,121,1.0,299.4,334.9,301.5
906.3,983,17.9,15.2,84,12.05,122,1.1,299.4,334.8,301.5
905.8,988,17.9,15.0,83,11.93,123,1.1,299.4,334.5,301.5
905.3,992,17.9,14.8,82,11.74,124,1.1,299.4,333.9,301.5
904.9,997,17.9,14.5,80,11.52,125,1.1,299.5,333.4,301.5
904.4,1001,17.9,14.3,79,11.37,126,1.1,299.5,333.0,301.6
903.9,1006,17.9,14.2,79,11.36,127,1.2,299.6,333.0,301.6
903.4,1011,17.9,14.4,80,11.46,128,1.2,299.6,333.3,301.6
902.9,1016,17.8,14.4,81,11.52,129,1.2,299.6,333.5,301.6
902.3,1021,17.8,14.3,80,11.45,130,1.2,299.6,333.3,301.7
901.8,1026,17.8,14.1,79,11.28,130,1.2,299.6,332.9,301.7
901.3,1030,17.8,13.9,78,11.11,130,1.2,299.7,332.4,301.7
900.8,1035,17.8,13.7,77,11.01,130,1.1,299.7,332.2,301.7
900.3,1040,17.7,13.6,77,10.96,130,1.1,299.7,332.1,301.7
899.7,1045,17.7,13.5,76,10.89,130,1.1,299.8,331.9,301.7
899.2,1050,17.7,13.5,76,10.85,129,1.1,299.8,331.8,301.7
898.7,1055,17.6,13.4,76,10.84,129,1.1,299.8,331.8,301.8
898.2,1060,17.6,13.5,77,10.88,128,1.1,299.8,331.9,301.8
897.6,1065,17.6,13.6,77,10.97,127,1.1,299.8,332.2,301.8
897.1,1070,17.5,13.7,78,11.08,127,1.1,299.8,332.5,301.8
896.6,1076,17.5,13.9,80,11.21,126,1.1,299.8,332.9,301.8
896.0,1081,17.4,14.1,81,11.39,125,1.2,299.8,333.4,301.9
895.5,1085,17.3,14.4,83,11.58,125,1.2,299.8,333.9,301.9
895.0,1090,17.3,14.4,83,11.64,125,1.2,299.8,334.1,301.9
894.5,1095,17.3,14.1,82,11.37,124,1.2,299.8,333.3,301.9
894.0,1100,17.3,13.4,77,10.84,124,1.2,299.9,331.9,301.9
893.5,1105,17.4,12.5,73,10.23,125,1.2,300.1,330.3,301.9
893.0,1109,17.5,11.7,69,9.69,125,1.2,300.2,328.9,301.9
892.5,1114,17.6,11.2,66,9.38,126,1.2,300.3,328.2,302.0
892.0,1119,17.6,11.2,66,9.40,127,1.3,300.4,328.3,302.1
891.5,1124,17.5,11.6,68,9.66,128,1.3,300.4,329.0,302.1
890.9,1130,17.5,12.1,71,10.00,129,1.3,300.4,330.0,302.2
890.4,1135,17.4,12.5,73,10.28,131,1.3,300.3,330.8,302.2
889.8,1140,17.3,12.7,75,10.46,133,1.2,300.3,331.3,302.2
889.2,1146,17.2,12.7,74,10.40,134,1.2,300.3,331.1,302.2
888.7,1151,17.2,12.3,73,10.15,136,1.2,300.3,330.4,302.2
888.1,1156,17.2,11.9,71,9.92,139,1.2,300.4,329.8,302.2
887.6,1162,17.2,11.7,70,9.76,141,1.2,300.4,329.4,302.2
887.1,1167,17.2,11.4,69,9.59,144,1.1,300.4,328.9,302.2
886.5,1172,17.2,11.1,67,9.39,146,1.1,300.5,328.4,302.2
886.0,1177,17.2,10.8,66,9.21,149,1.1,300.6,327.9,302.2
885.4,1182,17.2,10.4,64,8.96,152,1.0,300.6,327.3,302.2
884.9,1188,17.2,9.8,62,8.65,155,1.0,300.7,326.5,302.3
884.4,1193,17.2,9.4,60,8.40,159,1.0,300.7,325.8,302.3
883.8,1198,17.2,9.1,59,8.21,162,0.9,300.8,325.3,302.3
883.3,1203,17.2,8.8,58,8.06,166,0.9,300.8,324.9,302.3
882.8,1208,17.2,8.5,57,7.92,170,0.8,300.9,324.6,302.3
882.2,1214,17.2,8.4,56,7.88,173,0.8,300.9,324.5,302.4
881.7,1219,17.2,8.7,57,8.03,177,0.7,301.0,325.0,302.4
881.1,1225,17.1,9.5,61,8.50,182,0.6,301.0,326.4,302.5
880.5,1230,17.0,10.8,67,9.30,186,0.6,300.9,328.6,302.6
879.9,1236,16.9,12.1,74,10.14,190,0.5,300.8,330.9,302.6
879.3,1241,16.7,13.0,79,10.73,195,0.5,300.7,332.5,302.6
878.8,1247,16.5,13.5,82,11.16,201,0.4,300.6,333.6,302.6
878.2,1252,16.4,14.1,86,11.58,207,0.4,300.5,334.7,302.6
877.7,1258,16.3,14.6,89,11.97,214,0.3,300.5,335.8,302.6
877.2,1263,16.2,14.9,92,12.22,223,0.3,300.4,336.4,302.6
876.6,1268,16.1,14.9,92,12.23,234,0.2,300.3,336.4,302.5
876.1,1273,16.1,14.8,92,12.21,251,0.2,300.3,336.4,302.6
875.6,1278,16.0,14.9,93,12.26,273,0.2,300.3,336.5,302.6
875.1,1283,15.9,15.0,94,12.34,299,0.2,300.3,336.7,302.5
874.5,1288,15.9,15.0,95,12.39,322,0.2,300.3,336.9,302.6
874.0,1293,15.8,15.0,95,12.40,338,0.2,300.3,336.9,302.5
873.5,1298,15.8,15.0,95,12.38,348,0.3,300.3,336.8,302.5
873.0,1303,15.7,15.0,96,12.37,355,0.3,300.3,336.8,302.5
872.4,1309,15.7,15.0,96,12.37,360,0.4,300.3,336.8,302.5
871.9,1314,15.6,15.0,96,12.40,4,0.4,300.3,336.8,302.5
871.4,1319,15.6,15.0,97,12.43,7,0.5,300.3,336.9,302.5
870.9,1324,15.5,15.1,97,12.47,9,0.5,300.3,337.1,302.5
870.3,1329,15.5,15.1,98,12.51,11,0.5,300.3,337.2,302.6
869.8,1334,15.4,15.2,98,12.55,12,0.6,300.3,337.3,302.6
869.3,1340,15.4,15.2,98,12.56,12,0.6,300.3,337.3,302.6
868.7,1345,15.4,15.1,98,12.53,12,0.6,300.3,337.3,302.6
868.2,1350,15.3,15.1,98,12.50,12,0.7,300.4,337.2,302.6
867.7,1355,15.3,15.0,98,12.49,11,0.7,300.4,337.2,302.6
867.1,1361,15.3,15.0,98,12.48,10,0.7,300.4,337.2,302.7
866.6,1366,15.3,15.0,98,12.43,9,0.7,300.5,337.1,302.7
866.0,1372,15.3,14.9,98,12.39,7,0.7,300.5,337.1,302.7
865.5,1377,15.3,14.8,97,12.35,5,0.7,300.6,337.0,302.8
864.9,1383,15.3,14.8,97,12.32,2,0.8,300.6,337.0,302.8
864.3,1388,15.3,14.6,96,12.20,360,0.8,300.7,336.7,302.9
863.7,1394,15.3,14.4,94,11.99,357,0.8,300.8,336.2,302.9
863.1,1400,15.3,13.9,91,11.68,354,0.8,300.9,335.5,303.0
862.5,1406,15.4,13.1,86,11.09,351,0.8,301.0,333.9,303.0
861.9,1412,15.6,11.6,77,10.01,348,0.8,301.3,331.1,303.1
861.3,1418,15.9,9.4,66,8.65,345,0.9,301.6,327.5,303.2
860.7,1424,16.2,7.4,56,7.54,342,0.9,302.0,324.7,303.4
860.1,1430,16.4,6.4,51,7.02,340,0.9,302.3,323.5,303.6
859.5,1435,16.5,6.1,50,6.90,338,1.0,302.4,323.3,303.7
859.0,1441,16.5,5.9,49,6.79,337,1.0,302.5,323.1,303.8
858.4,1447,16.6,5.4,48,6.57,335,1.1,302.6,322.6,303.8
857.9,1452,16.6,4.7,45,6.25,334,1.1,302.7,321.8,303.9
857.3,1457,16.7,4.0,43,5.97,334,1.1,302.9,321.1,304.0
856.8,1463,16.8,3.9,42,5.92,334,1.2,303.0,321.0,304.1
856.3,1468,16.8,4.4,44,6.12,334,1.2,303.0,321.7,304.2
855.8,1473,16.7,5.2,46,6.49,334,1.3,303.1,322.8,304.2
855.3,1478,16.7,6.1,50,6.93,334,1.3,303.1,324.1,304.3
854.8,1483,16.6,7.0,53,7.35,335,1.3,303.1,325.3,304.4
854.3,1488,16.6,7.8,56,7.79,336,1.4,303.0,326.6,304.5
853.8,1493,16.5,8.5,59,8.18,337,1.4,303.0,327.7,304.5
853.2,1498,16.5,8.6,60,8.25,338,1.4,303.1,327.9,304.6
852.7,1504,16.5,8.4,59,8.11,339,1.4,303.1,327.6,304.6
852.1,1509,16.4,8.2,58,8.06,339,1.4,303.1,327.5,304.6
851.5,1515,16.4,8.3,59,8.10,340,1.5,303.2,327.6,304.7
851.0,1521,16.4,8.4,59,8.13,341,1.5,303.2,327.7,304.7
850.4,1527,16.3,8.3,59,8.08,341,1.5,303.2,327.6,304.7
850.0,1530,16.3,8.1,58,8.01,341,1.5,303.2,327.4,304.7
849.8,1533,16.3,8.1,58,7.98,342,1.4,303.2,327.3,304.7
849.2,1539,16.3,7.9,57,7.89,342,1.4,303.3,327.2,304.7
848.6,1545,16.3,7.8,57,7.85,342,1.4,303.3,327.1,304.8
848.0,1551,16.2,7.8,57,7.85,341,1.4,303.3,327.1,304.8
847.4,1557,16.2,7.8,58,7.88,340,1.4,303.4,327.2,304.8
846.8,1563,16.1,8.0,58,7.95,338,1.3,303.4,327.4,304.8
846.2,1569,16.1,8.1,59,8.04,336,1.3,303.4,327.7,304.8
845.6,1575,16.0,8.2,60,8.12,334,1.3,303.3,327.9,304.8
845.0,1581,15.9,8.3,61,8.18,331,1.2,303.3,328.0,304.8
844.4,1587,15.9,8.4,61,8.24,327,1.2,303.3,328.2,304.8
843.8,1593,15.8,8.5,62,8.26,323,1.2,303.3,328.2,304.8
843.2,1599,15.8,8.4,62,8.25,318,1.2,303.4,328.2,304.9
842.7,1604,15.8,8.4,62,8.24,314,1.2,303.4,328.3,304.9
842.2,1609,15.7,8.4,62,8.26,309,1.2,303.4,328.4,304.9
841.7,1614,15.7,8.5,62,8.30,304,1.2,303.4,328.5,304.9
841.2,1619,15.7,8.5,62,8.32,299,1.2,303.4,328.5,304.9
840.7,1624,15.6,8.5,63,8.32,295,1.2,303.4,328.5,304.9
840.2,1629,15.5,8.5,63,8.34,291,1.3,303.4,328.6,304.9
839.7,1634,15.5,8.6,63,8.37,288,1.3,303.4,328.7,305.0
839.3,1638,15.5,8.5,63,8.34,285,1.3,303.4,328.6,305.0
838.8,1643,15.5,8.3,63,8.24,283,1.4,303.5,328.4,305.0
838.4,1647,15.5,8.0,61,8.07,280,1.4,303.5,327.9,305.0
838.0,1651,15.5,7.7,60,7.89,279,1.4,303.6,327.4,305.0
837.6,1656,15.5,7.4,58,7.71,277,1.4,303.6,327.0,305.1
837.1,1660,15.5,7.2,58,7.61,276,1.4,303.7,326.8,305.1
836.7,1664,15.5,7.1,57,7.59,275,1.4,303.7,326.7,305.1
836.3,1669,15.5,7.0,57,7.55,274,1.4,303.7,326.6,305.1
835.8,1674,15.5,6.9,57,7.49,273,1.4,303.8,326.5,305.2
835.3,1679,15.5,6.7,56,7.41,272,1.3,303.8,326.3,305.2
834.8,1684,15.4,6.5,55,7.30,271,1.3,303.9,326.0,305.2
834.2,1690,15.4,6.1,54,7.12,270,1.3,303.9,325.5,305.2
833.7,1695,15.4,5.7,52,6.89,269,1.2,303.9,324.9,305.2
833.1,1701,15.4,5.2,50,6.65,268,1.2,304.0,324.3,305.2
832.5,1707,15.4,4.8,49,6.47,267,1.2,304.1,323.9,305.3
832.0,1713,15.4,4.5,48,6.37,266,1.1,304.2,323.6,305.3
831.4,1719,15.4,4.5,48,6.36,265,1.1,304.2,323.6,305.4
830.8,1725,15.4,4.5,48,6.36,264,1.1,304.2,323.7,305.4
830.2,1730,15.3,4.5,48,6.37,263,1.1,304.2,323.7,305.4
829.7,1736,15.3,4.5,48,6.37,262,1.1,304.2,323.7,305.4
829.1,1742,15.3,4.5,49,6.39,261,1.1,304.3,323.8,305.4
828.6,1747,15.2,4.6,49,6.41,260,1.1,304.3,323.9,305.4
828.1,1752,15.2,4.6,49,6.41,260,1.2,304.3,323.9,305.4
827.6,1758,15.1,4.6,49,6.42,259,1.2,304.3,323.9,305.5
827.0,1763,15.1,4.6,50,6.44,259,1.3,304.3,324.0,305.5
826.5,1768,15.1,4.7,50,6.49,260,1.3,304.3,324.2,305.5
826.0,1773,15.1,4.9,51,6.58,260,1.4,304.4,324.5,305.6
825.5,1778,15.1,5.2,51,6.74,261,1.5,304.5,325.1,305.8
825.0,1784,15.2,5.6,52,6.91,262,1.6,304.6,325.7,305.9
824.5,1789,15.3,5.7,53,6.98,263,1.7,304.7,326.1,306.0
824.1,1794,15.3,5.4,52,6.83,264,1.8,304.9,325.7,306.1
823.6,1799,15.4,4.3,47,6.34,265,1.9,305.0,324.5,306.2
823.1,1804,15.6,2.5,41,5.58,267,2.0,305.2,322.5,306.3
822.6,1808,15.7,0.9,37,4.97,268,2.1,305.5,320.9,306.4
822.2,1813,15.8,0.4,35,4.80,270,2.2,305.6,320.6,306.5
821.7,1818,15.9,0.6,35,4.87,271,2.3,305.7,320.9,306.6
821.3,1822,15.9,0.7,36,4.91,273,2.4,305.8,321.1,306.7
820.9,1826,16.0,0.5,35,4.83,274,2.5,305.9,320.9,306.8
820.4,1831,16.0,0.0,34,4.68,276,2.5,306.0,320.6,306.9
820.0,1836,16.1,-0.4,33,4.55,277,2.6,306.1,320.4,307.0
819.5,1841,16.1,-0.6,32,4.48,279,2.6,306.2,320.3,307.1
819.0,1846,16.2,-0.5,32,4.50,280,2.7,306.3,320.4,307.1
818.5,1852,16.1,-0.5,32,4.51,282,2.7,306.3,320.5,307.2
817.9,1857,16.1,-0.6,32,4.49,283,2.7,306.3,320.4,307.2
817.3,1863,16.1,-0.7,32,4.46,285,2.7,306.4,320.3,307.2
816.7,1869,16.0,-0.8,32,4.43,286,2.7,306.4,320.3,307.2
816.2,1875,16.0,-0.8,32,4.43,287,2.7,306.4,320.3,307.2
815.6,1881,16.0,-0.7,32,4.46,288,2.7,306.4,320.4,307.3
815.0,1887,15.9,-0.5,33,4.51,289,2.7,306.4,320.6,307.3
814.5,1893,15.8,-0.4,33,4.58,290,2.7,306.4,320.8,307.3
814.0,1898,15.8,-0.1,34,4.66,291,2.7,306.4,321.0,307.3
813.4,1904,15.7,0.0,34,4.72,292,2.7,306.4,321.2,307.3
812.9,1909,15.7,0.2,35,4.78,292,2.7,306.4,321.4,307.3
812.4,1914,15.6,0.4,35,4.84,292,2.7,306.4,321.6,307.3
811.9,1919,15.6,0.5,36,4.89,292,2.6,306.4,321.7,307.3
811.4,1925,15.5,0.5,36,4.91,292,2.6,306.5,321.8,307.4
810.9,1930,15.5,0.6,36,4.95,292,2.6,306.5,321.9,307.4
810.4,1935,15.5,0.8,37,5.02,291,2.6,306.5,322.1,307.4
809.9,1941,15.4,1.0,37,5.08,291,2.6,306.5,322.3,307.4
