PRES,HGHT,TEMP,DWPT,RELH,MIXR,DRCT,SPED,THTA,THTE,THTV
1012.0,31,25.6,18.6,65,13.41,45,4.5,297.7,336.8,300.1
1011.5,35,25.1,18.5,67,13.35,51,3.3,297.2,336.1,299.6
1011.1,39,24.6,18.1,67,12.99,53,3.2,296.8,334.5,299.1
1010.5,44,24.1,17.9,68,12.89,55,3.3,296.4,333.8,298.7
1009.8,50,23.9,17.9,69,12.90,55,3.5,296.3,333.6,298.5
1009.1,56,23.8,17.9,69,12.86,55,3.8,296.2,333.4,298.5
1008.5,61,23.7,17.6,69,12.69,55,4.0,296.1,332.9,298.4
1007.8,67,23.5,17.3,68,12.42,55,4.2,296.0,332.0,298.2
1007.2,72,23.4,17.0,67,12.15,55,4.5,295.9,331.1,298.1
1006.5,78,23.2,16.7,67,11.98,55,4.6,295.8,330.5,298.0
1005.9,84,23.1,16.7,67,11.96,55,4.8,295.8,330.4,297.9
1005.2,90,23.0,16.7,67,11.98,55,5.0,295.8,330.4,297.9
1004.5,95,23.1,16.8,68,12.03,55,5.2,295.8,330.7,298.0
1003.9,101,23.1,16.8,68,12.08,54,5.3,295.9,330.9,298.1
1003.2,107,23.1,16.7,67,11.99,54,5.5,296.0,330.7,298.1
1002.6,112,22.9,16.4,67,11.79,54,5.6,295.9,330.0,297.9
1002.0,118,22.7,16.3,67,11.69,53,5.7,295.7,329.6,297.8
1001.3,123,22.6,16.3,67,11.71,53,5.8,295.7,329.6,297.8
1000.7,129,22.6,16.3,68,11.72,52,5.9,295.7,329.6,297.7
1000.1,134,22.5,16.3,68,11.70,52,6.0,295.6,329.5,297.7
1000.0,135,22.5,16.2,68,11.69,51,6.1,295.6,329.5,297.7
999.5,139,22.4,16.2,68,11.67,51,6.1,295.6,329.4,297.7
998.9,144,22.4,16.2,68,11.67,51,6.2,295.6,329.4,297.7
998.3,149,22.4,16.2,68,11.67,50,6.2,295.6,329.4,297.7
997.8,154,22.3,16.2,68,11.66,50,6.3,295.6,329.4,297.7
997.2,159,22.3,16.2,68,11.67,49,6.3,295.7,329.5,297.7
996.7,164,22.2,16.2,69,11.70,49,6.3,295.7,329.5,297.7
996.2,168,22.2,16.3,69,11.74,48,6.4,295.7,329.7,297.7
995.7,172,22.1,16.3,70,11.80,48,6.4,295.7,329.8,297.7
995.3,176,22.1,16.4,70,11.85,48,6.4,295.6,329.9,297.7
994.8,180,22.1,16.5,71,11.92,48,6.4,295.6,330.1,297.8
994.4,184,22.0,16.6,71,12.00,47,6.4,295.6,330.4,297.8
993.9,188,22.0,16.6,72,12.03,47,6.4,295.6,330.4,297.8
993.4,192,21.9,16.6,72,12.05,47,6.4,295.6,330.5,297.7
992.9,197,21.9,16.6,72,12.07,47,6.4,295.6,330.5,297.8
992.4,202,21.8,16.6,72,12.08,48,6.4,295.6,330.6,297.7
991.8,207,21.8,16.6,72,12.08,48,6.4,295.6,330.5,297.8
991.2,212,21.7,16.6,73,12.05,48,6.4,295.6,330.5,297.7
990.5,218,21.7,16.5,73,12.04,49,6.5,295.6,330.4,297.8
989.9,223,21.6,16.5,73,12.03,49,6.5,295.6,330.4,297.8
989.3,228,21.6,16.5,73,12.01,49,6.5,295.6,330.4,297.7
988.7,234,21.5,16.5,73,12.00,50,6.5,295.6,330.3,297.7
988.1,239,21.4,16.4,73,11.96,50,6.5,295.6,330.2,297.7
987.6,244,21.4,16.3,73,11.91,51,6.6,295.6,330.1,297.7
987.0,249,21.4,16.3,73,11.91,51,6.6,295.6,330.1,297.7
986.5,253,21.3,16.4,73,11.95,51,6.6,295.6,330.2,297.7
986.0,258,21.3,16.4,74,11.98,52,6.7,295.6,330.3,297.7
985.4,263,21.2,16.4,74,12.01,52,6.7,295.6,330.4,297.7
984.9,267,21.2,16.5,74,12.04,52,6.8,295.6,330.4,297.7
984.3,272,21.1,16.4,75,12.04,53,6.9,295.6,330.4,297.7
983.7,277,21.1,16.4,75,12.03,53,6.9,295.6,330.4,297.7
983.2,282,21.0,16.4,75,12.03,53,7.0,295.6,330.4,297.7
982.6,288,21.0,16.4,75,12.05,53,7.1,295.6,330.5,297.7
982.0,293,20.9,16.5,76,12.08,53,7.2,295.6,330.5,297.7
981.4,298,20.9,16.5,76,12.10,53,7.2,295.6,330.6,297.7
980.8,303,20.8,16.5,76,12.10,53,7.3,295.6,330.6,297.8
980.2,308,20.8,16.5,76,12.10,53,7.4,295.6,330.6,297.8
979.6,314,20.7,16.4,76,12.09,53,7.5,295.6,330.6,297.8
979.0,320,20.7,16.4,77,12.06,53,7.6,295.6,330.5,297.7
978.3,325,20.6,16.4,77,12.05,53,7.7,295.6,330.4,297.7
977.7,331,20.5,16.4,77,12.06,53,7.8,295.6,330.5,297.7
977.1,336,20.5,16.4,77,12.07,52,7.8,295.6,330.5,297.7
976.5,342,20.4,16.4,78,12.08,52,7.9,295.6,330.5,297.7
975.9,347,20.4,16.4,78,12.07,52,8.0,295.6,330.5,297.7
975.3,352,20.3,16.3,78,12.05,52,8.1,295.6,330.4,297.7
974.8,357,20.3,16.3,78,12.03,52,8.2,295.6,330.4,297.7
974.2,361,20.3,16.3,78,12.03,52,8.2,295.6,330.4,297.7
973.7,366,20.2,16.3,78,12.06,52,8.3,295.6,330.5,297.8
973.1,371,20.2,16.3,79,12.10,52,8.4,295.6,330.6,297.8
972.6,376,20.1,16.4,79,12.12,52,8.5,295.6,330.6,297.7
972.0,382,20.1,16.4,79,12.14,52,8.5,295.6,330.7,297.8
971.4,387,20.0,16.4,80,12.14,52,8.6,295.6,330.7,297.7
970.8,392,19.9,16.3,80,12.13,52,8.6,295.6,330.7,297.7
970.2,397,19.9,16.3,80,12.10,52,8.7,295.6,330.6,297.7
969.7,402,19.8,16.2,80,12.04,52,8.7,295.6,330.4,297.7
969.2,407,19.8,16.1,79,11.97,52,8.7,295.6,330.2,297.7
968.7,411,19.8,16.0,79,11.90,52,8.8,295.6,330.0,297.7
968.3,414,19.7,16.0,79,11.88,52,8.8,295.6,330.0,297.7
967.9,418,19.7,16.0,79,11.91,52,8.8,295.6,330.1,297.7
967.5,421,19.7,16.1,80,11.98,52,8.8,295.6,330.3,297.7
967.1,425,19.7,16.2,80,12.04,51,8.8,295.6,330.4,297.7
966.7,428,19.6,16.2,81,12.08,51,8.8,295.6,330.5,297.8
966.3,432,19.6,16.2,81,12.09,51,8.8,295.6,330.6,297.8
965.9,436,19.5,16.2,81,12.10,51,8.7,295.6,330.6,297.8
965.5,440,19.5,16.3,82,12.14,51,8.7,295.6,330.7,297.8
965.0,444,19.5,16.3,82,12.17,51,8.7,295.6,330.8,297.8
964.5,448,19.4,16.3,82,12.17,50,8.6,295.6,330.8,297.7
964.0,453,19.4,16.3,82,12.16,50,8.6,295.6,330.7,297.7
963.5,457,19.3,16.3,82,12.15,50,8.5,295.6,330.7,297.8
963.0,462,19.3,16.2,83,12.15,49,8.5,295.6,330.7,297.8
962.4,467,19.2,16.2,83,12.13,49,8.4,295.6,330.7,297.8
961.9,472,19.2,16.2,83,12.11,49,8.3,295.6,330.6,297.7
961.3,477,19.1,16.1,83,12.09,48,8.3,295.6,330.6,297.8
960.8,482,19.1,16.1,83,12.10,48,8.2,295.6,330.6,297.7
960.2,486,19.1,16.2,83,12.15,47,8.1,295.6,330.7,297.8
959.7,491,19.0,16.3,84,12.20,47,8.1,295.6,330.9,297.8
959.2,496,19.0,16.3,84,12.21,46,8.0,295.6,330.9,297.8
958.6,501,18.9,16.2,84,12.16,46,7.9,295.6,330.8,297.8
958.1,506,18.9,16.1,84,12.11,45,7.9,295.6,330.6,297.8
957.6,510,18.8,16.1,84,12.09,44,7.8,295.6,330.6,297.8
957.1,515,18.8,16.1,84,12.11,44,7.7,295.6,330.6,297.8
956.6,519,18.7,16.1,85,12.13,43,7.7,295.6,330.7,297.8
956.1,524,18.7,16.1,85,12.16,42,7.6,295.6,330.8,297.8
955.5,529,18.6,16.2,86,12.19,42,7.5,295.6,330.8,297.8
955.0,533,18.6,16.2,86,12.20,41,7.5,295.6,330.9,297.8
954.5,538,18.5,16.1,86,12.18,40,7.4,295.6,330.8,297.7
954.0,542,18.5,16.1,86,12.16,39,7.4,295.6,330.8,297.7
953.6,546,18.4,16.1,86,12.16,39,7.3,295.6,330.7,297.7
953.1,551,18.4,16.1,87,12.19,38,7.2,295.6,330.8,297.8
952.7,554,18.4,16.2,87,12.22,37,7.2,295.6,330.9,297.8
952.3,558,18.3,16.2,87,12.24,36,7.1,295.6,331.0,297.8
951.9,562,18.3,16.2,88,12.26,36,7.1,295.6,331.0,297.8
951.5,565,18.3,16.2,88,12.29,35,7.0,295.6,331.1,297.8
951.1,569,18.2,16.2,88,12.30,34,7.0,295.6,331.1,297.8
950.7,572,18.2,16.2,88,12.28,34,6.9,295.6,331.1,297.8
950.3,576,18.2,16.2,88,12.27,33,6.9,295.6,331.1,297.8
949.9,579,18.1,16.2,88,12.26,33,6.8,295.6,331.0,297.8
949.5,583,18.1,16.1,88,12.24,32,6.8,295.6,331.0,297.8
949.1,587,18.1,16.1,88,12.23,32,6.8,295.6,331.0,297.8
948.7,590,18.0,16.1,89,12.23,32,6.7,295.6,330.9,297.8
948.3,594,18.0,16.1,89,12.24,31,6.7,295.6,331.0,297.8
947.8,598,18.0,16.1,89,12.27,31,6.6,295.6,331.1,297.8
947.3,603,17.9,16.2,89,12.28,31,6.6,295.6,331.1,297.8
946.8,607,17.9,16.1,90,12.27,30,6.6,295.6,331.1,297.8
946.3,612,17.8,16.1,90,12.26,30,6.5,295.6,331.0,297.8
945.8,617,17.8,16.1,90,12.25,30,6.5,295.6,331.0,297.8
945.3,621,17.7,16.1,90,12.26,30,6.5,295.6,331.0,297.8
944.8,626,17.7,16.1,90,12.24,30,6.5,295.6,331.0,297.8
944.3,630,17.6,16.0,90,12.21,30,6.4,295.6,330.9,297.8
943.9,634,17.6,15.9,90,12.14,30,6.4,295.6,330.7,297.8
943.5,638,17.6,15.8,89,12.06,30,6.4,295.6,330.5,297.7
943.0,642,17.6,15.7,89,12.00,31,6.4,295.6,330.3,297.8
942.6,646,17.6,15.8,89,12.03,31,6.3,295.7,330.4,297.8
942.2,649,17.5,15.9,90,12.15,31,6.3,295.6,330.8,297.8
941.8,653,17.4,16.1,92,12.28,31,6.3,295.6,331.1,297.8
941.3,657,17.4,16.1,92,12.35,31,6.2,295.6,331.3,297.8
940.9,661,17.3,16.2,93,12.37,32,6.2,295.6,331.3,297.8
940.4,666,17.3,16.1,93,12.37,32,6.2,295.6,331.3,297.8
939.9,670,17.3,16.1,93,12.32,32,6.1,295.6,331.2,297.8
939.4,674,17.2,15.8,92,12.14,32,6.1,295.6,330.7,297.8
939.0,679,17.2,15.4,89,11.80,33,6.0,295.6,329.8,297.7
938.5,683,17.3,14.8,86,11.37,33,5.9,295.7,328.7,297.8
938.0,688,17.3,14.4,83,11.06,33,5.9,295.8,327.9,297.8
937.5,693,17.3,14.3,82,10.97,33,5.8,295.9,327.7,297.8
937.0,697,17.3,14.3,83,11.02,33,5.7,295.9,327.9,297.9
936.5,702,17.3,14.4,83,11.05,34,5.7,295.9,328.0,297.9
936.0,706,17.2,14.4,83,11.06,34,5.6,295.9,328.0,297.9
935.5,710,17.2,14.3,83,11.03,34,5.5,295.9,327.9,297.9
935.0,715,17.2,14.3,83,10.99,34,5.4,295.9,327.8,297.9
934.6,719,17.2,14.2,83,10.97,34,5.4,296.0,327.8,297.9
934.2,723,17.1,14.2,83,10.95,34,5.3,296.0,327.7,297.9
933.7,727,17.1,14.1,83,10.91,34,5.2,296.0,327.7,297.9
933.3,731,17.1,14.0,82,10.86,34,5.1,296.0,327.5,297.9
932.9,734,17.1,14.0,82,10.82,34,5.0,296.0,327.5,298.0
932.5,738,17.1,13.9,82,10.80,34,5.0,296.1,327.4,298.0
932.0,742,17.0,13.9,82,10.79,34,4.9,296.1,327.4,298.0
931.6,746,17.0,13.9,82,10.74,33,4.8,296.1,327.3,298.0
931.2,750,17.0,13.7,81,10.67,33,4.7,296.1,327.1,298.0
930.7,754,17.0,13.6,80,10.57,33,4.6,296.2,326.9,298.1
930.3,758,17.0,13.4,79,10.46,32,4.6,296.2,326.7,298.1
929.9,762,17.0,13.4,79,10.41,32,4.5,296.3,326.6,298.1
929.4,766,17.0,13.4,79,10.42,31,4.4,296.3,326.6,298.1
929.0,770,17.0,13.4,79,10.42,31,4.3,296.3,326.6,298.1
928.5,774,16.9,13.3,79,10.41,30,4.3,296.3,326.6,298.2
928.0,779,16.9,13.3,79,10.37,29,4.2,296.3,326.5,298.2
927.6,783,16.9,13.1,78,10.27,29,4.1,296.3,326.2,298.2
927.0,788,16.9,12.9,77,10.11,28,4.1,296.4,325.8,298.2
926.5,793,16.9,12.6,76,9.95,27,4.0,296.5,325.5,298.2
926.0,798,16.9,12.5,75,9.89,26,4.0,296.5,325.3,298.3
925.5,803,16.9,12.5,75,9.90,25,3.9,296.5,325.4,298.3
925.0,807,16.8,12.5,76,9.92,25,3.9,296.5,325.5,298.3
924.9,808,16.8,12.5,76,9.92,25,3.9,296.5,325.5,298.3
924.4,812,16.8,12.5,76,9.92,24,3.9,296.5,325.5,298.3
923.9,817,16.8,12.5,76,9.91,23,3.8,296.5,325.4,298.3
923.4,822,16.7,12.5,76,9.90,22,3.8,296.6,325.4,298.3
922.9,826,16.7,12.5,76,9.92,21,3.8,296.6,325.5,298.3
922.4,831,16.7,12.6,77,9.96,20,3.8,296.6,325.6,298.3
922.0,835,16.6,12.6,77,10.01,19,3.9,296.6,325.8,298.3
921.5,839,16.6,12.7,78,10.07,18,3.9,296.6,325.9,298.4
921.1,843,16.5,12.7,78,10.08,17,3.9,296.6,326.0,298.4
920.7,847,16.5,12.7,78,10.05,17,4.0,296.6,325.9,298.4
920.3,851,16.5,12.7,78,10.05,16,4.0,296.6,325.9,298.4
919.8,855,16.5,12.7,78,10.05,15,4.1,296.6,325.9,298.4
919.4,859,16.4,12.7,79,10.08,14,4.1,296.6,326.0,298.4
918.9,863,16.4,12.7,79,10.10,14,4.2,296.6,326.0,298.4
918.4,868,16.3,12.7,79,10.11,13,4.2,296.6,326.0,298.4
917.9,873,16.3,12.7,79,10.11,12,4.3,296.6,326.0,298.4
917.4,877,16.2,12.7,80,10.10,11,4.4,296.6,326.0,298.4
916.9,882,16.2,12.7,80,10.10,11,4.4,296.6,326.0,298.4
916.4,887,16.1,12.7,80,10.11,10,4.5,296.6,326.1,298.4
915.9,891,16.1,12.7,80,10.10,9,4.5,296.6,326.1,298.4
915.5,895,16.1,12.6,80,10.09,8,4.6,296.6,326.0,298.4
915.0,899,16.0,12.6,80,10.08,7,4.6,296.6,326.0,298.4
914.6,903,16.0,12.6,80,10.10,6,4.6,296.6,326.1,298.4
914.2,907,16.0,12.7,81,10.14,5,4.7,296.6,326.2,298.4
913.8,911,15.9,12.8,81,10.19,4,4.7,296.6,326.3,298.4
913.3,915,15.9,12.8,82,10.25,3,4.7,296.6,326.5,298.5
912.9,919,15.9,12.9,82,10.28,2,4.7,296.6,326.6,298.5
912.5,923,15.8,12.9,83,10.30,360,4.6,296.6,326.7,298.5
912.1,927,15.8,12.9,83,10.32,359,4.6,296.6,326.7,298.5
911.7,930,15.8,12.9,83,10.34,357,4.5,296.7,326.8,298.5
911.3,934,15.7,12.9,83,10.34,356,4.5,296.7,326.8,298.5
910.9,938,15.7,13.0,84,10.36,354,4.4,296.7,326.9,298.5
910.5,942,15.7,13.0,84,10.41,353,4.4,296.7,327.0,298.5
910.0,946,15.7,13.1,85,10.49,351,4.3,296.7,327.3,298.6
909.6,950,15.6,13.3,86,10.62,350,4.2,296.7,327.6,298.6
909.1,955,15.6,13.5,87,10.75,348,4.1,296.7,328.0,298.6
908.6,960,15.5,13.5,88,10.80,346,4.0,296.7,328.1,298.6
908.1,964,15.5,13.5,88,10.78,344,3.9,296.7,328.1,298.6
907.6,969,15.5,13.5,88,10.78,343,3.7,296.7,328.1,298.7
907.1,973,15.5,13.5,88,10.80,341,3.6,296.8,328.2,298.7
906.7,977,15.4,13.5,88,10.82,339,3.5,296.8,328.3,298.7
906.2,982,15.4,13.5,89,10.83,337,3.4,296.8,328.3,298.7
905.8,986,15.4,13.5,89,10.82,335,3.3,296.8,328.4,298.8
905.3,990,15.4,13.5,89,10.82,334,3.2,296.8,328.4,298.8
904.9,994,15.4,13.5,89,10.81,332,3.0,296.9,328.4,298.8
904.4,999,15.3,13.5,89,10.80,330,2.9,296.9,328.4,298.8
904.0,1003,15.3,13.4,89,10.78,328,2.8,296.9,328.3,298.8
903.5,1007,15.3,13.4,88,10.72,326,2.7,297.0,328.2,298.9
903.1,1011,15.4,13.2,87,10.62,324,2.6,297.1,328.0,299.0
902.6,1015,15.5,13.1,86,10.54,322,2.5,297.2,327.9,299.1
902.2,1019,15.5,13.0,85,10.49,320,2.5,297.3,327.9,299.2
901.8,1023,15.6,13.0,85,10.48,318,2.4,297.4,328.0,299.2
901.4,1027,15.6,13.0,85,10.49,315,2.4,297.4,328.1,299.3
900.9,1031,15.6,13.1,85,10.54,313,2.3,297.5,328.3,299.4
900.5,1035,15.6,13.1,85,10.59,311,2.3,297.5,328.4,299.4
900.1,1040,15.6,13.1,86,10.61,308,2.3,297.5,328.5,299.4
899.6,1044,15.5,13.1,86,10.62,306,2.3,297.5,328.6,299.4
899.2,1048,15.5,13.1,86,10.63,304,2.3,297.5,328.6,299.4
898.7,1052,15.4,13.1,86,10.63,302,2.3,297.5,328.6,299.4
898.2,1057,15.4,13.1,86,10.64,300,2.3,297.5,328.6,299.4
897.7,1062,15.4,13.1,86,10.62,299,2.3,297.6,328.6,299.5
897.2,1066,15.3,13.1,86,10.59,297,2.4,297.6,328.5,299.5
896.7,1071,15.3,13.0,86,10.57,296,2.4,297.6,328.5,299.4
896.2,1076,15.2,13.0,86,10.54,294,2.4,297.6,328.4,299.4
895.7,1081,15.2,12.9,86,10.51,293,2.5,297.5,328.3,299.4
895.2,1085,15.2,12.9,86,10.48,293,2.5,297.6,328.2,299.4
894.8,1090,15.1,12.8,86,10.47,292,2.6,297.6,328.2,299.4
894.3,1094,15.1,12.8,86,10.47,292,2.6,297.6,328.2,299.5
893.9,1098,15.1,12.9,87,10.49,292,2.6,297.6,328.3,299.5
893.4,1103,15.0,12.9,87,10.52,292,2.6,297.6,328.4,299.5
892.9,1107,15.0,12.9,88,10.55,293,2.6,297.6,328.5,299.5
892.4,1112,14.9,12.9,88,10.56,293,2.6,297.6,328.5,299.5
891.9,1117,14.9,12.9,88,10.53,294,2.6,297.6,328.4,299.5
891.5,1121,14.9,12.8,87,10.48,296,2.6,297.6,328.3,299.5
891.0,1125,14.9,12.7,87,10.44,297,2.6,297.7,328.2,299.5
890.6,1129,14.8,12.7,87,10.40,299,2.6,297.7,328.1,299.5
890.2,1133,14.8,12.6,87,10.36,301,2.6,297.7,328.0,299.6
889.8,1137,14.8,12.5,86,10.32,303,2.6,297.7,328.0,299.6
889.4,1141,14.8,12.5,86,10.29,306,2.6,297.8,327.9,299.6
889.0,1144,14.8,12.5,86,10.27,309,2.7,297.8,327.9,299.6
888.7,1148,14.8,12.4,86,10.24,311,2.7,297.8,327.8,299.6
888.2,1152,14.8,12.3,85,10.17,314,2.7,297.9,327.6,299.7
887.8,1156,14.8,12.2,84,10.10,317,2.7,297.9,327.5,299.7
887.4,1160,14.8,12.1,84,10.07,319,2.8,297.9,327.5,299.7
887.0,1164,14.8,12.2,84,10.11,321,2.9,298.0,327.6,299.8
886.6,1168,14.8,12.3,85,10.16,323,2.9,298.0,327.8,299.8
886.2,1172,14.7,12.3,85,10.20,325,3.0,298.0,327.9,299.8
885.7,1176,14.7,12.4,86,10.26,327,3.1,298.0,328.1,299.8
885.3,1180,14.7,12.4,86,10.28,328,3.2,298.0,328.1,299.8
884.9,1184,14.6,12.4,86,10.28,329,3.3,298.0,328.1,299.9
884.5,1187,14.6,12.4,87,10.27,330,3.4,298.0,328.1,299.9
884.1,1191,14.6,12.4,87,10.27,330,3.5,298.0,328.1,299.9
883.7,1195,14.5,12.4,87,10.27,330,3.6,298.0,328.2,299.9
883.4,1199,14.5,12.4,87,10.27,330,3.7,298.0,328.2,299.9
883.0,1202,14.5,12.3,87,10.25,330,3.8,298.1,328.1,299.9
882.6,1206,14.5,12.3,86,10.21,329,3.9,298.1,328.1,299.9
882.2,1209,14.5,12.2,86,10.16,328,4.0,298.1,327.9,300.0
881.8,1213,14.5,12.1,86,10.12,328,4.0,298.2,327.8,300.0
881.4,1217,14.5,12.0,85,10.06,327,4.1,298.2,327.7,300.0
881.0,1221,14.5,11.9,84,9.99,326,4.2,298.3,327.6,300.0
880.6,1225,14.5,11.8,84,9.94,324,4.3,298.3,327.5,300.1
880.1,1229,14.5,11.7,83,9.88,323,4.4,298.4,327.4,300.1
879.7,1234,14.5,11.6,83,9.81,322,4.4,298.4,327.3,300.2
879.3,1238,14.5,11.6,82,9.77,321,4.5,298.5,327.2,300.2
878.8,1242,14.5,11.5,82,9.77,320,4.6,298.5,327.3,300.3
878.4,1246,14.5,11.5,82,9.78,319,4.6,298.5,327.3,300.3
878.0,1251,14.5,11.5,82,9.76,318,4.7,298.5,327.2,300.3
877.5,1255,14.5,11.5,82,9.74,317,4.7,298.6,327.2,300.3
877.1,1259,14.4,11.5,82,9.73,316,4.8,298.6,327.2,300.3
876.7,1263,14.4,11.5,82,9.74,315,4.9,298.6,327.2,300.3
876.2,1267,14.4,11.4,82,9.72,314,4.9,298.6,327.2,300.3
875.8,1272,14.4,11.3,82,9.66,313,5.0,298.6,327.0,300.3
875.3,1276,14.3,11.2,81,9.59,313,5.0,298.6,326.9,300.4
874.9,1280,14.3,11.1,81,9.55,312,5.1,298.6,326.8,300.4
874.5,1284,14.3,11.1,81,9.56,312,5.1,298.7,326.8,300.4
874.1,1288,14.3,11.2,82,9.58,311,5.1,298.7,326.9,300.4
873.7,1292,14.2,11.2,82,9.62,311,5.2,298.7,327.0,300.4
873.3,1295,14.2,11.3,82,9.66,311,5.2,298.7,327.1,300.4
872.9,1299,14.2,11.3,83,9.70,311,5.2,298.7,327.3,300.4
872.6,1303,14.1,11.3,83,9.71,311,5.3,298.7,327.3,300.4
872.2,1306,14.1,11.3,83,9.67,311,5.3,298.7,327.2,300.4
871.8,1310,14.1,11.2,83,9.64,311,5.3,298.7,327.1,300.4
871.5,1313,14.0,11.2,83,9.63,311,5.3,298.7,327.0,300.4
871.1,1317,14.0,11.2,83,9.66,311,5.4,298.7,327.1,300.4
870.7,1320,13.9,11.3,84,9.69,312,5.4,298.7,327.2,300.4
870.4,1324,13.9,11.3,84,9.72,312,5.4,298.7,327.3,300.4
870.0,1328,13.9,11.4,85,9.75,312,5.4,298.7,327.4,300.4
869.6,1332,13.8,11.4,85,9.76,313,5.4,298.7,327.4,300.4
869.2,1336,13.8,11.3,85,9.75,313,5.4,298.7,327.4,300.4
868.8,1340,13.8,11.3,85,9.72,313,5.4,298.7,327.3,300.5
868.3,1344,13.8,11.2,85,9.70,314,5.4,298.7,327.3,300.5
867.8,1349,13.7,11.2,85,9.70,314,5.4,298.7,327.3,300.5
867.2,1355,13.7,11.3,85,9.72,315,5.4,298.7,327.4,300.5
866.6,1360,13.6,11.3,86,9.73,315,5.4,298.8,327.4,300.5
866.0,1367,13.6,11.2,86,9.70,315,5.3,298.8,327.3,300.5
865.3,1373,13.5,11.1,86,9.66,316,5.3,298.7,327.2,300.5
864.7,1380,13.4,11.1,85,9.61,316,5.3,298.7,327.1,300.5
864.0,1386,13.4,10.9,85,9.55,316,5.3,298.8,326.9,300.5
863.4,1392,13.3,10.9,85,9.52,316,5.3,298.8,326.8,300.5
862.7,1398,13.3,10.9,85,9.52,316,5.3,298.8,326.9,300.5
862.2,1404,13.2,10.9,86,9.56,316,5.2,298.8,326.9,300.5
861.6,1409,13.2,11.0,86,9.59,316,5.2,298.8,327.0,300.5
861.1,1415,13.1,11.0,87,9.59,316,5.2,298.8,327.0,300.5
860.6,1420,13.1,10.9,86,9.56,316,5.2,298.8,327.0,300.5
860.0,1425,13.1,10.8,86,9.52,316,5.1,298.9,326.9,300.6
859.5,1430,13.1,10.7,86,9.47,316,5.1,298.9,326.8,300.6
859.0,1435,13.1,10.6,85,9.41,316,5.1,299.0,326.7,300.6
858.5,1440,13.1,10.5,84,9.31,315,5.0,299.0,326.5,300.7
857.9,1445,13.1,10.3,83,9.19,315,5.0,299.1,326.3,300.8
857.4,1451,13.2,10.1,82,9.09,315,4.9,299.2,326.1,300.8
856.8,1456,13.2,10.0,81,9.06,314,4.9,299.2,326.0,300.9
856.3,1462,13.1,10.1,82,9.08,314,4.8,299.2,326.1,300.8
855.7,1468,13.0,10.1,82,9.11,314,4.7,299.2,326.1,300.8
855.1,1473,13.0,10.1,83,9.14,313,4.6,299.2,326.2,300.8
854.5,1479,12.9,10.2,84,9.17,313,4.6,299.2,326.3,300.8
853.9,1485,12.8,10.2,84,9.17,312,4.5,299.2,326.3,300.8
853.3,1491,12.8,10.1,84,9.14,312,4.3,299.2,326.2,300.8
852.8,1496,12.8,10.0,83,9.07,311,4.2,299.2,326.0,300.8
852.2,1502,12.7,9.9,83,9.00,311,4.1,299.2,325.9,300.9
851.7,1507,12.7,9.8,82,8.96,310,3.9,299.3,325.8,300.9
851.1,1513,12.7,9.7,82,8.92,310,3.8,299.3,325.7,300.9
850.5,1518,12.7,9.6,82,8.86,309,3.6,299.3,325.6,300.9
850.0,1524,12.6,9.5,81,8.79,309,3.6,299.4,325.4,301.0
849.4,1530,12.6,9.4,80,8.72,307,3.2,299.4,325.3,301.0
848.8,1535,12.6,9.3,80,8.67,306,3.0,299.5,325.2,301.0
848.2,1541,12.6,9.1,79,8.59,305,2.8,299.5,325.0,301.1
847.6,1547,12.6,9.0,79,8.54,304,2.6,299.6,324.9,301.1
847.0,1553,12.6,9.0,79,8.53,302,2.4,299.6,324.9,301.2
846.4,1559,12.5,9.0,79,8.53,300,2.1,299.6,324.9,301.2
845.8,1565,12.5,8.9,79,8.50,298,1.9,299.6,324.9,301.2
845.2,1571,12.5,8.8,79,8.47,295,1.7,299.7,324.8,301.2
844.6,1577,12.4,8.7,78,8.40,291,1.5,299.7,324.6,301.2
844.0,1583,12.4,8.5,77,8.27,286,1.3,299.7,324.3,301.2
843.5,1589,12.4,8.0,74,8.00,279,1.1,299.8,323.6,301.3
842.9,1594,12.5,7.3,70,7.62,269,0.9,299.9,322.7,301.3
842.3,1600,12.7,6.3,65,7.15,257,0.8,300.2,321.6,301.5
841.7,1606,12.9,5.0,59,6.53,241,0.7,300.5,320.1,301.7
841.2,1611,13.2,3.7,53,5.93,223,0.6,300.8,318.7,301.9
840.6,1617,13.3,3.0,50,5.67,205,0.7,301.0,318.2,302.1
840.0,1623,13.3,3.0,49,5.65,191,0.7,301.1,318.3,302.1
839.5,1629,13.3,2.8,49,5.60,179,0.8,301.2,318.2,302.2
838.9,1634,13.3,2.7,48,5.53,170,0.9,301.2,318.0,302.2
838.3,1640,13.3,2.2,47,5.34,162,1.0,301.3,317.5,302.2
837.7,1646,13.4,1.1,43,4.94,155,1.1,301.4,316.5,302.3
837.2,1652,13.5,0.3,41,4.68,150,1.2,301.5,315.9,302.4
836.6,1657,13.5,0.4,41,4.71,144,1.3,301.6,316.0,302.5
836.1,1662,13.4,0.8,42,4.85,139,1.4,301.6,316.5,302.5
835.6,1667,13.4,1.2,43,4.99,135,1.5,301.6,316.8,302.5
835.1,1672,13.2,1.6,45,5.15,131,1.6,301.5,317.2,302.5
834.6,1678,13.1,2.0,47,5.29,127,1.7,301.4,317.5,302.4
834.1,1683,13.0,2.0,47,5.31,123,1.9,301.4,317.5,302.3
833.6,1688,12.9,2.2,48,5.40,120,2.0,301.4,317.8,302.3
833.0,1693,12.9,3.2,52,5.81,117,2.1,301.4,319.0,302.5
832.5,1699,12.9,4.5,57,6.36,114,2.2,301.4,320.6,302.6
831.9,1704,12.9,4.9,59,6.56,113,2.4,301.5,321.3,302.6
