PRES,HGHT,TEMP,DWPT,RELH,MIXR,DRCT,SPED,THTA,THTE,THTV
1003.5,31,20.4,16.5,78,11.81,248,4.8,293.3,327.1,295.3
1002.9,36,20.5,16.8,79,12.06,246,3.5,293.4,328.0,295.5
1002.2,42,20.6,16.8,79,12.10,245,3.5,293.5,328.2,295.6
1001.7,46,20.6,16.7,79,12.06,244,3.7,293.6,328.1,295.7
1001.1,51,20.6,16.6,78,11.98,244,4.0,293.6,328.0,295.7
1000.5,57,20.6,16.5,78,11.91,244,4.3,293.7,327.8,295.8
1000.0,61,20.6,16.5,77,11.85,244,4.3,293.8,327.8,295.8
999.8,62,20.6,16.4,77,11.83,244,4.6,293.8,327.7,295.9
999.2,67,20.6,16.4,76,11.78,244,4.9,293.8,327.7,295.9
998.6,73,20.6,16.3,76,11.76,244,5.2,293.9,327.7,296.0
998.0,78,20.6,16.3,76,11.75,244,5.4,293.9,327.6,296.0
997.4,83,20.6,16.2,76,11.72,244,5.7,293.9,327.6,296.0
996.8,88,20.6,16.2,76,11.73,244,6.0,294.0,327.7,296.1
996.2,93,20.7,16.3,76,11.77,244,6.2,294.2,328.0,296.2
995.6,99,20.7,16.3,76,11.75,244,6.5,294.2,328.0,296.3
995.1,104,20.7,16.2,76,11.74,244,6.7,294.2,328.0,296.3
994.5,108,20.7,16.2,76,11.72,244,6.9,294.3,328.0,296.3
993.9,113,20.6,16.2,75,11.70,244,7.1,294.3,328.0,296.4
993.4,118,20.7,16.2,75,11.71,245,7.3,294.4,328.1,296.4
992.9,123,20.6,16.2,76,11.73,245,7.5,294.4,328.1,296.5
992.3,127,20.6,16.2,76,11.75,245,7.7,294.4,328.2,296.5
991.8,132,20.5,16.2,76,11.75,245,7.8,294.4,328.2,296.4
991.3,137,20.5,16.2,76,11.74,246,8.0,294.4,328.1,296.4
990.8,141,20.5,16.2,76,11.74,246,8.2,294.4,328.2,296.5
990.2,146,20.4,16.1,76,11.73,247,8.3,294.4,328.2,296.5
989.7,151,20.4,16.1,77,11.73,247,8.4,294.4,328.2,296.5
989.1,156,20.4,16.2,77,11.76,248,8.6,294.4,328.3,296.5
988.5,161,20.3,16.2,77,11.76,248,8.7,294.4,328.3,296.5
987.9,166,20.2,16.1,77,11.74,249,8.8,294.4,328.2,296.5
987.3,172,20.2,16.1,77,11.72,249,9.0,294.4,328.2,296.5
986.7,177,20.2,16.1,77,11.72,250,9.1,294.5,328.2,296.5
986.1,182,20.2,16.0,77,11.68,250,9.2,294.5,328.1,296.6
985.5,187,20.1,16.0,77,11.65,251,9.3,294.5,328.1,296.6
984.9,192,20.1,16.0,77,11.67,251,9.5,294.5,328.1,296.6
984.3,197,20.1,16.0,77,11.69,251,9.6,294.5,328.2,296.6
983.7,203,20.0,16.0,78,11.69,252,9.7,294.5,328.2,296.6
983.2,208,20.0,15.9,78,11.66,252,9.8,294.5,328.1,296.6
982.6,213,19.9,16.0,78,11.68,253,10.0,294.6,328.2,296.6
982.0,218,19.9,16.0,78,11.69,253,10.1,294.5,328.2,296.6
981.4,223,19.8,15.9,79,11.68,253,10.2,294.5,328.1,296.6
980.9,228,19.7,15.9,78,11.63,253,10.3,294.5,328.0,296.6
980.3,232,19.8,15.8,78,11.59,254,10.5,294.6,328.0,296.7
979.8,237,19.9,15.8,77,11.56,254,10.6,294.7,328.1,296.8
979.3,242,19.8,15.7,77,11.54,254,10.7,294.7,328.0,296.8
978.7,247,19.8,15.7,77,11.54,254,10.8,294.8,328.0,296.8
978.2,252,19.8,15.7,77,11.53,254,10.9,294.8,328.0,296.8
977.6,256,19.7,15.7,78,11.53,255,11.0,294.8,328.0,296.8
977.1,261,19.6,15.6,78,11.50,255,11.1,294.7,327.9,296.8
976.5,266,19.7,15.6,77,11.48,255,11.2,294.8,327.9,296.8
976.0,271,19.7,15.6,77,11.49,255,11.3,294.9,328.0,296.9
975.4,276,19.6,15.6,78,11.53,255,11.3,294.9,328.1,296.9
974.9,281,19.6,15.7,78,11.56,255,11.4,294.8,328.2,296.9
974.3,286,19.5,15.7,79,11.59,255,11.4,294.8,328.2,296.9
973.8,291,19.4,15.7,79,11.62,255,11.5,294.8,328.3,296.8
973.2,296,19.4,15.7,79,11.61,256,11.5,294.8,328.3,296.8
972.6,301,19.3,15.6,79,11.57,256,11.5,294.8,328.1,296.8
972.0,306,19.3,15.6,79,11.51,256,11.5,294.8,328.0,296.9
971.5,311,19.3,15.5,79,11.47,256,11.5,294.9,328.0,296.9
970.9,316,19.3,15.5,79,11.46,256,11.5,294.9,328.0,296.9
970.3,321,19.3,15.4,78,11.44,257,11.5,294.9,328.0,297.0
969.8,326,19.3,15.4,78,11.40,257,11.5,295.0,327.9,297.0
969.2,331,19.2,15.4,78,11.40,258,11.5,295.0,327.9,297.0
968.6,336,19.2,15.4,78,11.41,258,11.4,295.1,328.0,297.1
968.1,341,19.2,15.4,78,11.42,259,11.4,295.1,328.0,297.1
967.5,346,19.2,15.4,79,11.44,259,11.4,295.1,328.2,297.1
966.9,352,19.2,15.4,79,11.45,260,11.4,295.2,328.2,297.2
966.2,358,19.2,15.4,79,11.44,260,11.3,295.2,328.2,297.2
965.6,363,19.1,15.4,79,11.43,261,11.3,295.2,328.2,297.2
964.9,369,19.0,15.4,79,11.47,261,11.3,295.2,328.3,297.2
964.2,375,18.9,15.5,80,11.53,262,11.3,295.1,328.5,297.2
963.6,381,18.8,15.5,81,11.56,263,11.3,295.1,328.5,297.1
962.9,387,18.8,15.5,81,11.54,263,11.3,295.1,328.4,297.1
962.3,393,18.7,15.4,81,11.49,264,11.3,295.1,328.3,297.1
961.6,399,18.7,15.3,81,11.47,264,11.3,295.1,328.3,297.1
961.0,404,18.6,15.3,81,11.45,265,11.3,295.1,328.2,297.2
960.4,410,18.6,15.3,81,11.43,265,11.3,295.2,328.2,297.2
959.8,415,18.6,15.2,81,11.42,266,11.4,295.2,328.2,297.2
959.3,420,18.6,15.3,81,11.43,266,11.4,295.2,328.3,297.2
958.7,425,18.5,15.2,81,11.43,267,11.4,295.2,328.2,297.2
958.2,430,18.5,15.2,81,11.39,267,11.5,295.2,328.1,297.2
957.7,434,18.5,15.1,81,11.36,267,11.5,295.2,328.1,297.3
957.1,439,18.4,15.1,81,11.33,267,11.6,295.3,328.0,297.3
956.6,444,18.4,15.0,81,11.28,267,11.6,295.3,327.9,297.3
956.1,448,18.4,15.0,81,11.26,267,11.7,295.3,327.8,297.3
955.5,453,18.3,15.0,81,11.29,267,11.7,295.3,327.9,297.3
955.0,458,18.3,15.1,82,11.36,267,11.8,295.3,328.1,297.3
954.5,463,18.2,15.1,82,11.39,266,11.8,295.3,328.2,297.3
954.0,468,18.2,15.1,82,11.38,266,11.9,295.3,328.1,297.3
953.4,472,18.1,15.0,82,11.35,266,12.0,295.3,328.1,297.3
952.9,477,18.1,15.1,82,11.36,265,12.0,295.3,328.1,297.3
952.4,481,18.0,15.1,83,11.41,265,12.1,295.3,328.2,297.3
951.9,486,18.0,15.1,83,11.43,265,12.1,295.3,328.3,297.3
951.4,490,18.0,15.1,83,11.44,264,12.2,295.3,328.4,297.3
950.9,495,17.9,15.1,84,11.43,264,12.2,295.3,328.3,297.3
950.4,500,17.9,15.1,84,11.41,263,12.3,295.3,328.3,297.3
949.9,504,17.9,15.1,84,11.40,263,12.4,295.3,328.3,297.3
949.3,509,17.8,15.0,84,11.38,263,12.4,295.3,328.2,297.3
948.8,514,17.8,15.0,84,11.35,262,12.5,295.3,328.1,297.3
948.3,519,17.7,14.9,84,11.32,262,12.6,295.3,328.1,297.3
947.7,524,17.7,14.9,84,11.31,261,12.6,295.3,328.0,297.3
947.2,528,17.7,14.9,84,11.31,261,12.7,295.4,328.1,297.4
946.7,533,17.6,14.9,84,11.33,261,12.7,295.4,328.1,297.4
946.1,538,17.6,14.9,84,11.34,261,12.8,295.4,328.2,297.4
945.6,543,17.5,14.9,85,11.34,260,12.9,295.4,328.2,297.4
945.1,548,17.5,14.9,85,11.35,260,13.0,295.4,328.2,297.4
944.5,553,17.5,14.9,85,11.36,260,13.0,295.4,328.3,297.4
944.0,558,17.4,14.9,85,11.37,260,13.1,295.4,328.3,297.4
943.4,563,17.4,14.9,85,11.37,260,13.2,295.5,328.4,297.5
942.9,567,17.4,14.9,85,11.39,260,13.3,295.5,328.4,297.5
942.4,572,17.4,14.9,85,11.39,260,13.3,295.5,328.4,297.5
941.8,577,17.3,14.9,86,11.37,260,13.4,295.5,328.4,297.5
941.3,582,17.3,14.9,86,11.36,260,13.5,295.5,328.4,297.5
940.8,587,17.2,14.9,86,11.38,260,13.5,295.5,328.4,297.5
940.3,591,17.2,14.9,86,11.37,260,13.6,295.5,328.4,297.5
939.7,596,17.1,14.8,86,11.36,260,13.7,295.5,328.3,297.5
939.2,601,17.1,14.8,86,11.34,260,13.7,295.5,328.3,297.5
938.7,605,17.1,14.7,86,11.30,260,13.8,295.6,328.3,297.6
938.2,610,17.1,14.7,86,11.28,260,13.8,295.6,328.2,297.6
937.7,615,17.1,14.7,86,11.29,260,13.9,295.6,328.3,297.6
937.2,620,17.0,14.7,86,11.30,260,13.9,295.6,328.3,297.6
936.6,625,17.0,14.7,86,11.30,260,13.9,295.6,328.3,297.6
936.1,629,17.0,14.7,86,11.27,260,14.0,295.6,328.3,297.6
935.6,634,16.9,14.6,86,11.22,260,14.0,295.6,328.2,297.6
935.0,639,16.9,14.5,86,11.19,260,14.0,295.7,328.1,297.7
934.5,644,16.9,14.5,85,11.14,260,14.1,295.7,328.0,297.7
934.0,649,16.9,14.4,85,11.10,260,14.1,295.8,327.9,297.7
933.4,654,16.9,14.4,85,11.09,260,14.1,295.8,327.9,297.7
932.9,658,16.8,14.4,86,11.11,260,14.1,295.8,328.0,297.7
932.4,663,16.8,14.4,86,11.12,260,14.2,295.8,328.0,297.7
931.9,668,16.7,14.4,86,11.10,260,14.2,295.8,327.9,297.7
931.3,673,16.7,14.3,86,11.06,261,14.2,295.8,327.9,297.8
930.8,678,16.7,14.2,85,11.00,261,14.2,295.8,327.7,297.8
930.2,683,16.7,14.1,84,10.91,261,14.2,295.9,327.6,297.9
929.7,688,16.7,14.0,84,10.84,261,14.3,296.0,327.5,297.9
929.1,693,16.7,13.9,84,10.84,261,14.3,296.0,327.5,297.9
928.6,698,16.7,14.0,84,10.87,261,14.3,296.0,327.6,297.9
928.0,703,16.6,14.0,85,10.90,261,14.4,296.0,327.6,297.9
927.5,708,16.5,14.0,85,10.92,262,14.4,296.0,327.7,297.9
926.9,713,16.5,14.0,85,10.92,262,14.5,296.0,327.7,297.9
926.4,718,16.5,14.0,85,10.91,262,14.5,296.0,327.7,297.9
925.8,724,16.4,14.0,85,10.90,262,14.6,296.0,327.6,297.9
925.3,729,16.4,14.0,86,10.89,262,14.6,296.0,327.6,297.9
925.0,731,16.3,13.9,86,10.88,262,14.7,296.0,327.6,297.9
924.7,734,16.3,13.9,86,10.87,262,14.7,296.0,327.5,297.9
924.1,739,16.3,13.9,86,10.84,262,14.7,296.0,327.5,297.9
923.5,745,16.2,13.8,86,10.82,262,14.8,296.0,327.4,297.9
923.0,750,16.2,13.8,86,10.78,262,14.9,296.0,327.3,297.9
922.4,755,16.1,13.7,86,10.75,262,14.9,296.0,327.2,297.9
921.9,760,16.1,13.7,86,10.75,262,15.0,296.0,327.2,297.9
921.3,765,16.0,13.7,86,10.74,262,15.1,296.0,327.2,297.9
920.8,771,16.0,13.6,86,10.71,262,15.2,296.0,327.1,297.9
920.2,776,15.9,13.6,86,10.69,262,15.3,296.0,327.1,297.9
919.6,781,15.9,13.5,86,10.66,262,15.3,296.0,327.0,297.9
919.1,786,15.9,13.5,86,10.62,262,15.4,296.1,326.9,297.9
918.5,792,15.8,13.5,86,10.61,262,15.5,296.1,326.9,298.0
917.9,797,15.8,13.4,86,10.61,262,15.6,296.1,327.0,298.0
917.3,803,15.8,13.4,86,10.61,262,15.7,296.1,327.0,298.0
916.7,808,15.7,13.4,86,10.57,262,15.7,296.1,326.9,298.0
916.1,814,15.7,13.3,86,10.51,262,15.8,296.2,326.7,298.0
915.5,820,15.7,13.2,85,10.45,262,15.9,296.2,326.6,298.1
914.9,825,15.6,13.2,85,10.45,262,15.9,296.2,326.6,298.1
914.3,830,15.6,13.2,86,10.47,262,16.0,296.2,326.6,298.1
913.7,836,15.5,13.2,86,10.50,262,16.1,296.2,326.7,298.1
913.1,841,15.4,13.2,87,10.50,261,16.1,296.2,326.7,298.0
912.6,846,15.4,13.1,86,10.45,261,16.2,296.2,326.5,298.0
912.0,852,15.3,13.0,86,10.35,261,16.3,296.2,326.3,298.0
911.4,857,15.3,12.8,85,10.23,261,16.3,296.2,326.0,298.1
910.9,862,15.3,12.6,84,10.14,261,16.4,296.3,325.8,298.1
910.3,867,15.3,12.6,84,10.10,261,16.4,296.3,325.7,298.1
909.8,873,15.3,12.5,83,10.07,261,16.5,296.3,325.7,298.1
909.2,878,15.3,12.5,83,10.03,261,16.5,296.4,325.6,298.1
908.7,883,15.2,12.4,83,10.02,261,16.5,296.4,325.5,298.1
908.1,888,15.2,12.4,84,10.02,261,16.6,296.4,325.6,298.2
907.6,893,15.1,12.4,84,10.03,261,16.6,296.4,325.6,298.2
907.1,898,15.1,12.4,84,10.05,261,16.6,296.4,325.6,298.2
906.5,903,15.0,12.5,85,10.07,261,16.7,296.4,325.7,298.2
906.0,908,15.0,12.5,85,10.08,261,16.7,296.4,325.7,298.2
905.4,913,14.9,12.5,85,10.10,261,16.7,296.4,325.8,298.2
904.8,919,14.9,12.5,85,10.09,261,16.7,296.4,325.8,298.2
904.2,924,14.8,12.4,85,10.07,261,16.7,296.4,325.7,298.2
903.6,930,14.8,12.3,85,10.02,261,16.8,296.4,325.6,298.2
903.0,936,14.8,12.2,84,9.92,262,16.8,296.5,325.4,298.2
902.4,942,14.8,12.0,84,9.84,262,16.8,296.5,325.2,298.2
901.8,947,14.7,12.0,83,9.79,262,16.8,296.5,325.1,298.3
901.2,953,14.7,11.9,83,9.78,262,16.8,296.5,325.1,298.3
900.7,958,14.7,12.0,84,9.80,262,16.8,296.6,325.1,298.3
900.1,963,14.6,12.0,84,9.80,262,16.8,296.6,325.2,298.3
899.5,968,14.6,11.9,84,9.80,262,16.8,296.6,325.2,298.3
899.0,974,14.6,11.9,84,9.81,262,16.8,296.6,325.2,298.4
898.4,979,14.6,11.9,84,9.82,262,16.8,296.6,325.3,298.4
897.9,984,14.5,11.9,84,9.81,262,16.8,296.7,325.3,298.4
897.3,990,14.5,12.0,85,9.84,262,16.8,296.7,325.4,298.5
896.7,995,14.4,11.9,85,9.82,262,16.8,296.7,325.3,298.4
896.1,1001,14.4,11.9,85,9.81,262,16.8,296.7,325.3,298.5
895.5,1006,14.4,11.9,85,9.82,262,16.8,296.8,325.4,298.5
894.9,1012,14.4,11.9,85,9.83,262,16.8,296.8,325.5,298.5
894.3,1018,14.4,11.9,85,9.83,262,16.8,296.9,325.6,298.6
893.7,1023,14.4,11.9,85,9.82,263,16.8,296.9,325.6,298.6
893.2,1029,14.3,11.8,85,9.80,263,16.8,296.9,325.5,298.6
892.6,1034,14.3,11.8,85,9.80,263,16.8,296.9,325.5,298.6
892.0,1040,14.2,11.8,85,9.79,263,16.8,296.9,325.5,298.7
891.5,1045,14.2,11.8,85,9.78,263,16.8,297.0,325.5,298.7
890.9,1050,14.2,11.8,85,9.78,263,16.8,297.0,325.6,298.7
890.4,1055,14.2,11.8,85,9.79,263,16.9,297.0,325.6,298.7
889.8,1060,14.1,11.8,86,9.79,263,16.9,297.0,325.6,298.8
889.3,1065,14.1,11.8,86,9.80,263,16.9,297.0,325.7,298.8
888.8,1071,14.0,11.8,86,9.81,263,16.9,297.0,325.7,298.8
888.2,1076,14.0,11.8,86,9.81,262,16.9,297.0,325.7,298.8
887.7,1081,13.9,11.8,87,9.81,262,17.0,297.0,325.7,298.8
887.2,1086,13.9,11.7,87,9.81,262,17.0,297.0,325.7,298.8
886.6,1091,13.9,11.7,87,9.81,262,17.0,297.0,325.7,298.8
886.1,1096,13.8,11.7,87,9.81,262,17.1,297.0,325.7,298.8
885.5,1101,13.8,11.7,87,9.82,262,17.1,297.1,325.7,298.8
885.0,1107,13.7,11.7,88,9.82,262,17.2,297.1,325.8,298.8
884.4,1112,13.7,11.7,88,9.82,261,17.2,297.1,325.8,298.9
883.9,1117,13.7,11.7,88,9.81,261,17.3,297.1,325.8,298.9
883.3,1122,13.7,11.7,88,9.83,261,17.3,297.2,325.9,298.9
882.8,1128,13.6,11.7,88,9.85,261,17.4,297.2,326.0,298.9
882.2,1133,13.6,11.8,89,9.90,261,17.5,297.2,326.2,299.0
881.7,1138,13.6,11.8,89,9.93,260,17.5,297.2,326.2,299.0
881.1,1143,13.5,11.8,89,9.93,260,17.6,297.2,326.3,299.0
880.6,1149,13.5,11.8,90,9.94,260,17.7,297.2,326.3,299.0
880.0,1154,13.4,11.8,90,9.96,260,17.7,297.3,326.4,299.0
879.5,1159,13.4,11.9,91,10.00,259,17.8,297.3,326.5,299.1
879.0,1164,13.4,11.9,91,10.03,259,17.8,297.3,326.6,299.1
878.4,1169,13.3,11.9,91,10.04,259,17.9,297.3,326.6,299.1
877.9,1175,13.3,12.0,92,10.06,259,18.0,297.3,326.7,299.1
877.3,1180,13.2,12.0,92,10.08,258,18.0,297.3,326.7,299.1
876.8,1185,13.2,12.0,92,10.08,258,18.1,297.3,326.7,299.1
876.3,1190,13.1,11.9,93,10.07,258,18.1,297.3,326.7,299.1
875.7,1195,13.1,11.9,93,10.06,257,18.2,297.3,326.7,299.1
875.2,1201,13.0,11.9,93,10.05,257,18.2,297.3,326.6,299.1
874.6,1206,13.0,11.9,93,10.04,257,18.2,297.3,326.6,299.1
874.0,1211,12.9,11.9,93,10.05,256,18.2,297.3,326.7,299.1
873.5,1217,12.9,11.9,94,10.07,256,18.2,297.3,326.7,299.1
872.9,1223,12.8,11.9,94,10.11,256,18.2,297.3,326.8,299.1
872.3,1229,12.8,11.9,95,10.12,255,18.2,297.3,326.9,299.1
871.7,1234,12.7,11.9,95,10.10,255,18.2,297.3,326.9,299.1
871.1,1240,12.7,11.9,95,10.10,255,18.2,297.4,326.9,299.2
870.5,1246,12.7,11.9,95,10.10,255,18.2,297.4,326.9,299.2
870.0,1251,12.6,11.9,95,10.11,254,18.2,297.4,327.0,299.2
869.4,1256,12.6,11.9,96,10.14,254,18.1,297.4,327.1,299.3
868.9,1262,12.6,12.0,96,10.18,254,18.1,297.5,327.3,299.3
868.3,1267,12.7,12.0,96,10.20,254,18.0,297.6,327.4,299.4
867.8,1272,12.7,12.0,96,10.22,253,18.0,297.7,327.6,299.5
867.2,1277,12.7,12.0,96,10.22,253,17.9,297.7,327.6,299.5
866.7,1282,12.7,12.0,96,10.21,253,17.8,297.7,327.6,299.6
866.2,1288,12.6,12.0,96,10.20,253,17.8,297.8,327.6,299.6
865.7,1293,12.6,11.9,96,10.19,252,17.7,297.8,327.7,299.6
865.1,1298,12.7,12.0,95,10.25,252,17.6,298.0,328.0,299.8
864.6,1303,12.8,12.0,95,10.27,252,17.6,298.0,328.1,299.9
864.1,1308,12.7,12.0,96,10.27,252,17.5,298.1,328.2,299.9
863.6,1313,12.7,12.0,96,10.26,252,17.4,298.0,328.1,299.9
863.1,1318,12.6,12.0,96,10.24,252,17.4,298.0,328.1,299.9
862.6,1323,12.6,11.9,96,10.22,251,17.3,298.0,328.0,299.9
862.0,1328,12.5,11.9,96,10.22,251,17.3,298.1,328.0,299.9
861.5,1333,12.5,11.9,96,10.22,251,17.2,298.0,328.0,299.9
861.0,1338,12.4,11.9,97,10.23,251,17.2,298.1,328.0,299.9
860.4,1344,12.4,11.9,97,10.23,251,17.1,298.1,328.0,299.9
859.9,1349,12.3,11.9,97,10.20,251,17.1,298.1,328.0,299.9
859.4,1354,12.3,11.8,97,10.17,251,17.1,298.1,327.9,299.9
858.8,1359,12.3,11.8,97,10.16,251,17.1,298.1,327.9,299.9
858.3,1365,12.3,11.7,97,10.15,251,17.1,298.1,327.9,300.0
857.7,1370,12.2,11.7,97,10.13,250,17.1,298.2,327.9,300.0
857.2,1376,12.2,11.7,97,10.13,250,17.1,298.2,327.9,300.0
856.6,1381,12.2,11.7,97,10.13,250,17.1,298.3,328.0,300.1
856.0,1387,12.2,11.7,97,10.14,250,17.1,298.3,328.0,300.1
855.5,1392,12.1,11.7,97,10.15,250,17.1,298.3,328.0,300.1
854.9,1398,12.0,11.7,98,10.15,250,17.2,298.3,328.0,300.1
854.3,1404,12.0,11.7,98,10.14,250,17.2,298.3,328.0,300.1
853.8,1409,12.0,11.6,98,10.13,250,17.2,298.3,328.1,300.1
853.2,1415,12.0,11.6,98,10.12,249,17.3,298.3,328.0,300.2
852.7,1420,12.0,11.6,98,10.10,249,17.4,298.4,328.1,300.2
852.1,1425,11.9,11.6,98,10.11,249,17.4,298.4,328.1,300.2
851.6,1430,11.9,11.6,98,10.11,249,17.5,298.4,328.1,300.2
851.1,1435,11.8,11.6,98,10.12,249,17.6,298.4,328.1,300.2
850.6,1441,11.8,11.6,98,10.12,249,17.7,298.5,328.2,300.3
850.0,1446,11.8,11.6,99,10.12,249,17.9,298.5,328.2,300.3
849.5,1451,11.7,11.5,99,10.12,249,17.9,298.5,328.2,300.3
848.9,1457,11.7,11.5,99,10.11,248,18.0,298.5,328.2,300.3
848.4,1462,11.6,11.5,99,10.10,248,18.1,298.5,328.2,300.3
847.8,1468,11.6,11.5,99,10.10,248,18.2,298.5,328.2,300.3
847.2,1474,11.6,11.5,99,10.08,248,18.3,298.5,328.2,300.3
846.6,1480,11.5,11.4,99,10.06,248,18.4,298.6,328.1,300.4
846.0,1485,11.5,11.4,99,10.04,248,18.5,298.6,328.1,300.4
845.4,1491,11.5,11.4,99,10.04,248,18.6,298.6,328.1,300.4
844.9,1497,11.5,11.3,99,10.02,248,18.7,298.6,328.1,300.4
844.3,1502,11.4,11.2,99,9.98,248,18.8,298.7,328.0,300.5
843.8,1507,11.4,11.2,99,9.94,248,18.9,298.7,327.9,300.5
843.3,1512,11.4,11.1,98,9.92,248,19.0,298.7,327.9,300.5
842.8,1518,11.4,11.1,98,9.91,248,19.1,298.8,328.0,300.6
842.3,1523,11.5,11.1,97,9.88,248,19.2,298.9,328.0,300.7
841.8,1528,11.6,11.0,96,9.87,248,19.2,299.2,328.2,300.9
841.3,1533,11.7,11.0,95,9.84,248,19.3,299.3,328.3,301.1
840.8,1538,11.7,11.0,95,9.83,248,19.4,299.3,328.3,301.1
840.2,1543,11.7,11.0,95,9.83,248,19.4,299.3,328.3,301.1
839.7,1548,11.6,11.0,96,9.84,248,19.5,299.3,328.4,301.1
839.2,1553,11.6,11.0,96,9.85,248,19.5,299.3,328.4,301.1
838.7,1558,11.5,11.0,96,9.85,248,19.5,299.3,328.4,301.1
838.2,1564,11.5,10.9,97,9.85,248,19.6,299.3,328.4,301.1
837.7,1569,11.4,11.0,97,9.86,248,19.6,299.4,328.5,301.1
837.1,1574,11.4,11.0,97,9.88,248,19.6,299.4,328.5,301.2
836.6,1579,11.3,11.0,98,9.89,248,19.6,299.4,328.5,301.1
836.0,1585,11.3,11.0,98,9.89,248,19.6,299.3,328.5,301.1
835.5,1590,11.2,10.9,98,9.87,248,19.6,299.3,328.4,301.1
834.9,1596,11.2,10.9,98,9.85,248,19.6,299.3,328.4,301.1
834.4,1601,11.1,10.8,98,9.83,248,19.6,299.4,328.3,301.1
833.9,1607,11.1,10.8,98,9.82,248,19.6,299.4,328.4,301.2
833.3,1612,11.1,10.8,98,9.80,248,19.6,299.5,328.4,301.2
832.8,1618,11.1,10.7,97,9.77,248,19.6,299.5,328.4,301.3
832.3,1623,11.1,10.7,97,9.74,248,19.6,299.5,328.3,301.3
831.7,1628,11.0,10.6,97,9.71,248,19.6,299.5,328.2,301.3
831.2,1633,11.0,10.5,97,9.67,248,19.6,299.6,328.1,301.3
830.7,1639,11.0,10.5,97,9.64,248,19.6,299.6,328.1,301.4
830.1,1644,11.0,10.5,96,9.64,248,19.6,299.7,328.2,301.4
829.6,1650,11.0,10.5,96,9.64,248,19.6,299.7,328.2,301.5
829.1,1655,11.0,10.5,97,9.65,248,19.6,299.7,328.3,301.5
828.5,1661,10.9,10.5,97,9.67,248,19.6,299.7,328.3,301.5
827.9,1667,10.9,10.5,98,9.69,248,19.6,299.8,328.4,301.5
827.3,1673,10.8,10.5,98,9.71,248,19.7,299.8,328.5,301.5
826.7,1679,10.8,10.5,98,9.69,248,19.7,299.8,328.5,301.5
826.1,1685,10.8,10.5,98,9.68,248,19.7,299.8,328.4,301.6
825.5,1691,10.7,10.4,98,9.66,247,19.8,299.8,328.4,301.6
824.9,1697,10.7,10.4,98,9.64,247,19.8,299.9,328.4,301.6
824.3,1703,10.6,10.3,98,9.61,247,19.9,299.9,328.3,301.6
823.8,1708,10.6,10.3,98,9.59,247,19.9,299.9,328.3,301.6
823.2,1714,10.6,10.3,98,9.59,247,20.0,299.9,328.3,301.7
822.7,1720,10.5,10.2,98,9.57,247,20.1,300.0,328.3,301.7
822.1,1725,10.5,10.2,98,9.56,247,20.1,300.0,328.3,301.7
821.6,1731,10.5,10.2,98,9.56,246,20.2,300.0,328.3,301.7
821.0,1736,10.4,10.2,98,9.55,246,20.3,300.0,328.3,301.8
820.5,1742,10.4,10.1,98,9.53,246,20.4,300.0,328.3,301.8
819.9,1748,10.4,10.1,98,9.50,246,20.4,300.1,328.2,301.8
819.3,1754,10.4,10.0,98,9.48,246,20.5,300.1,328.2,301.8
818.7,1760,10.3,10.0,98,9.48,246,20.6,300.1,328.2,301.8
818.1,1766,10.3,10.0,98,9.49,245,20.7,300.2,328.3,301.9
817.5,1772,10.2,10.0,99,9.50,245,20.8,300.2,328.3,301.9
816.9,1778,10.2,10.0,99,9.47,245,20.9,300.2,328.2,301.9
816.3,1784,10.1,9.9,98,9.43,245,21.0,300.2,328.2,301.9
815.7,1790,10.1,9.9,98,9.43,245,21.1,300.2,328.2,302.0
815.2,1796,10.1,9.9,99,9.43,245,21.2,300.2,328.2,302.0
814.6,1802,10.0,9.9,99,9.44,244,21.3,300.3,328.3,302.0
814.0,1808,10.0,9.9,99,9.43,244,21.4,300.3,328.3,302.0
813.5,1813,10.0,9.8,99,9.41,244,21.5,300.3,328.2,302.0
812.9,1819,9.9,9.8,99,9.39,244,21.6,300.3,328.2,302.0
812.4,1825,9.9,9.8,99,9.39,244,21.7,300.3,328.2,302.0
811.8,1830,9.8,9.8,100,9.39,244,21.9,300.3,328.2,302.0
811.3,1836,9.8,9.7,100,9.38,244,22.0,300.3,328.2,302.0
810.7,1842,9.7,9.7,100,9.35,243,22.1,300.4,328.1,302.1
810.2,1847,9.7,9.6,99,9.31,243,22.2,300.4,328.0,302.1
809.6,1853,9.7,9.5,99,9.26,243,22.3,300.4,327.9,302.1
809.0,1859,9.7,9.4,98,9.21,243,22.4,300.5,327.8,302.1
808.4,1865,9.7,9.4,98,9.18,243,22.5,300.5,327.8,302.2
807.9,1871,9.7,9.2,97,9.10,243,22.6,300.6,327.6,302.2
807.3,1877,9.7,9.0,96,8.97,242,22.7,300.6,327.3,302.3
806.7,1883,9.8,8.8,94,8.87,242,22.8,300.8,327.2,302.4
