PRES,HGHT,TEMP,DWPT,RELH,MIXR,DRCT,SPED,THTA,THTE,THTV
1013.0,31,27.6,21.0,67,15.60,147,3.5,299.6,345.4,302.4
1012.5,35,27.5,21.3,69,15.98,121,2.0,299.6,346.5,302.4
1011.9,40,26.5,21.2,73,15.86,113,2.0,298.7,345.1,301.5
1011.3,45,26.1,21.2,74,15.87,111,2.0,298.3,344.6,301.1
1010.6,52,26.1,21.2,75,15.87,111,2.2,298.3,344.7,301.2
1010.0,57,26.1,21.0,74,15.72,112,2.3,298.4,344.3,301.2
1009.5,61,25.9,20.8,73,15.47,112,2.5,298.3,343.4,301.0
1008.9,66,25.7,20.6,73,15.31,113,2.6,298.1,342.7,300.8
1008.3,71,25.5,20.5,74,15.27,113,2.7,298.0,342.5,300.7
1007.8,76,25.4,20.6,74,15.29,113,2.8,297.9,342.4,300.6
1007.2,81,25.4,20.6,75,15.30,113,2.9,297.9,342.5,300.6
1006.7,86,25.3,20.6,75,15.31,113,3.0,297.9,342.5,300.6
1006.1,91,25.3,20.5,75,15.30,114,3.1,297.9,342.5,300.7
1005.6,95,25.3,20.5,75,15.23,114,3.2,297.9,342.3,300.6
1005.1,100,25.2,20.4,75,15.14,114,3.3,297.9,342.0,300.6
1004.6,104,25.2,20.3,75,15.13,114,3.4,297.9,342.0,300.6
1004.1,109,25.1,20.4,75,15.15,114,3.4,297.9,342.1,300.6
1003.5,113,25.1,20.3,75,15.14,114,3.5,297.9,342.0,300.6
1003.0,118,25.0,20.3,75,15.14,114,3.6,297.9,342.0,300.6
1002.5,123,25.0,20.3,75,15.14,114,3.6,297.9,342.0,300.6
1001.9,128,24.9,20.3,75,15.13,115,3.7,297.9,342.0,300.6
1001.4,132,24.9,20.3,76,15.13,115,3.7,297.9,342.0,300.6
1000.8,137,24.9,20.3,76,15.19,115,3.8,298.0,342.2,300.7
1000.3,142,24.8,20.4,77,15.28,115,3.8,297.9,342.5,300.7
1000.0,145,24.8,20.4,77,15.30,115,3.9,297.9,342.5,300.7
999.7,147,24.8,20.5,77,15.34,115,3.9,297.9,342.6,300.7
999.1,152,24.7,20.5,77,15.35,115,3.9,297.9,342.6,300.7
998.5,157,24.7,20.5,77,15.35,115,3.9,297.9,342.7,300.7
998.0,162,24.6,20.4,77,15.30,115,4.0,297.9,342.5,300.7
997.4,167,24.6,20.3,77,15.19,115,4.0,297.9,342.2,300.6
996.9,172,24.5,20.2,77,15.11,116,4.0,297.9,341.9,300.6
996.3,177,24.5,20.2,77,15.09,116,4.0,297.9,341.9,300.6
995.8,181,24.4,20.2,77,15.12,116,4.0,297.9,342.0,300.6
995.3,186,24.4,20.2,78,15.16,116,4.0,297.9,342.1,300.6
994.8,191,24.3,20.2,78,15.16,116,4.0,297.9,342.1,300.6
994.2,195,24.3,20.2,78,15.16,116,4.0,297.9,342.1,300.6
993.7,200,24.2,20.2,78,15.18,116,4.0,297.9,342.2,300.6
993.1,205,24.2,20.2,78,15.19,116,4.0,297.9,342.2,300.6
992.6,210,24.1,20.2,78,15.15,116,4.0,297.9,342.1,300.6
992.0,215,24.1,20.1,78,15.13,116,3.9,297.9,342.0,300.6
991.5,220,24.1,20.1,79,15.12,116,3.9,297.9,342.0,300.6
990.9,225,24.0,20.1,79,15.10,116,3.9,297.9,341.9,300.6
990.3,230,24.0,20.1,79,15.10,116,3.8,297.9,342.0,300.6
989.8,235,23.9,20.1,79,15.11,116,3.8,297.9,342.0,300.6
989.2,240,23.9,20.1,79,15.10,116,3.7,297.9,341.9,300.6
988.6,245,23.8,20.0,79,15.10,116,3.7,297.9,341.9,300.6
988.0,250,23.8,20.1,80,15.13,116,3.6,297.9,342.0,300.6
987.5,255,23.7,20.1,80,15.13,116,3.6,297.9,342.0,300.6
986.9,260,23.7,20.0,80,15.09,116,3.5,297.9,341.9,300.6
986.4,265,23.6,20.0,80,15.06,115,3.5,297.9,341.8,300.6
985.8,270,23.6,20.0,80,15.09,115,3.4,298.0,341.9,300.6
985.3,275,23.6,20.0,80,15.11,115,3.4,298.0,342.0,300.7
984.8,279,23.5,20.0,81,15.12,114,3.3,297.9,342.0,300.6
984.2,284,23.4,20.0,81,15.13,114,3.3,297.9,342.0,300.6
983.7,289,23.4,20.0,81,15.14,114,3.2,297.9,342.0,300.6
983.1,294,23.3,20.0,82,15.14,113,3.2,297.9,342.1,300.6
982.5,299,23.3,20.0,82,15.17,113,3.2,297.9,342.1,300.6
981.9,305,23.2,20.1,82,15.21,112,3.1,297.9,342.2,300.6
981.3,310,23.2,20.1,83,15.24,111,3.1,297.9,342.3,300.6
980.7,315,23.1,20.1,83,15.24,111,3.1,297.9,342.3,300.6
980.1,321,23.1,20.0,83,15.23,110,3.1,297.9,342.3,300.7
979.5,326,23.0,20.0,83,15.24,110,3.1,297.9,342.3,300.6
978.9,331,23.0,20.0,83,15.19,109,3.1,297.9,342.2,300.6
978.3,337,22.9,19.9,83,15.13,108,3.1,297.9,342.0,300.6
977.8,342,22.9,19.9,83,15.10,108,3.1,297.9,341.9,300.6
977.2,347,22.8,19.9,84,15.15,107,3.1,297.9,342.1,300.6
976.7,351,22.8,20.1,85,15.29,107,3.1,297.9,342.5,300.6
976.2,356,22.7,20.1,85,15.39,106,3.1,297.9,342.7,300.6
975.6,361,22.7,20.1,86,15.37,106,3.1,297.9,342.7,300.6
975.1,366,22.6,20.1,86,15.35,105,3.1,297.9,342.6,300.6
974.5,371,22.6,20.1,86,15.36,105,3.1,297.9,342.6,300.6
974.0,376,22.5,20.1,86,15.36,105,3.2,297.9,342.6,300.6
973.4,381,22.5,20.1,86,15.39,104,3.2,297.9,342.7,300.6
972.8,386,22.4,20.1,87,15.37,104,3.2,297.9,342.7,300.6
972.2,391,22.4,20.0,87,15.32,104,3.2,297.9,342.5,300.6
971.7,396,22.3,20.0,87,15.30,104,3.3,297.9,342.5,300.6
971.1,401,22.3,20.0,87,15.29,104,3.3,297.9,342.4,300.6
970.6,406,22.2,20.0,87,15.33,104,3.3,297.9,342.6,300.6
970.1,411,22.2,20.1,88,15.40,104,3.3,297.9,342.8,300.6
969.6,415,22.1,20.0,88,15.39,104,3.4,297.9,342.7,300.6
969.1,420,22.1,20.0,88,15.33,104,3.4,297.9,342.6,300.6
968.5,424,22.1,19.9,87,15.24,104,3.4,297.9,342.3,300.6
968.0,429,22.0,19.8,87,15.21,104,3.4,297.9,342.2,300.6
967.5,434,22.0,19.8,87,15.21,104,3.4,297.9,342.2,300.6
967.0,438,22.0,19.8,87,15.19,104,3.4,297.9,342.2,300.7
966.5,443,21.9,19.7,87,15.13,105,3.4,297.9,342.0,300.6
966.0,447,21.9,19.6,87,15.04,105,3.4,298.0,341.8,300.7
965.5,452,21.9,19.5,87,14.97,105,3.4,298.0,341.6,300.7
965.0,456,21.8,19.5,86,14.91,105,3.4,298.0,341.4,300.7
964.5,461,21.8,19.3,86,14.80,106,3.4,298.0,341.2,300.7
964.0,465,21.8,19.2,85,14.64,106,3.4,298.0,340.7,300.7
963.6,469,21.8,19.0,84,14.48,106,3.4,298.1,340.3,300.6
963.1,474,21.8,18.8,83,14.34,106,3.3,298.1,339.9,300.7
962.6,478,21.8,18.6,82,14.19,106,3.3,298.1,339.5,300.7
962.1,483,21.7,18.5,82,14.04,106,3.3,298.2,339.1,300.7
961.6,487,21.7,18.4,81,13.94,107,3.2,298.2,338.9,300.7
961.1,492,21.7,18.1,80,13.75,107,3.2,298.2,338.4,300.7
960.6,496,21.7,17.8,78,13.47,107,3.1,298.3,337.7,300.7
960.1,501,21.8,17.4,76,13.16,107,3.0,298.4,336.8,300.7
959.6,505,21.8,17.3,76,13.07,107,3.0,298.4,336.6,300.8
959.1,510,21.7,17.4,76,13.13,107,2.9,298.4,336.8,300.8
958.6,515,21.7,17.4,77,13.19,108,2.8,298.4,337.0,300.8
958.0,519,21.7,17.4,77,13.13,108,2.7,298.4,336.8,300.8
957.5,524,21.6,17.1,76,12.93,108,2.7,298.5,336.3,300.8
957.0,529,21.6,16.7,73,12.57,108,2.6,298.5,335.3,300.7
956.5,534,21.7,16.1,71,12.15,108,2.5,298.6,334.2,300.8
956.0,538,21.7,15.8,69,11.89,108,2.4,298.6,333.5,300.8
955.5,543,21.7,15.5,68,11.65,108,2.3,298.7,332.9,300.8
954.9,548,21.7,15.2,66,11.42,108,2.2,298.8,332.3,300.8
954.4,553,21.7,15.0,66,11.33,108,2.1,298.8,332.1,300.9
953.9,558,21.7,15.0,66,11.31,108,2.0,298.9,332.1,300.9
953.3,562,21.7,15.0,66,11.30,108,1.9,298.9,332.1,300.9
952.8,567,21.7,15.0,66,11.33,108,1.8,298.9,332.2,301.0
952.2,572,21.6,15.1,66,11.42,108,1.7,298.9,332.5,301.0
951.7,577,21.6,15.4,68,11.62,108,1.6,298.9,333.1,301.0
951.1,583,21.5,15.9,70,12.01,108,1.6,298.9,334.2,301.1
950.6,588,21.5,16.5,73,12.52,107,1.5,298.9,335.7,301.2
950.0,593,21.4,16.8,75,12.76,107,1.4,298.9,336.3,301.2
949.5,598,21.4,16.7,74,12.67,107,1.3,298.9,336.1,301.2
948.9,603,21.3,16.5,74,12.53,106,1.2,298.9,335.7,301.2
948.4,607,21.3,16.5,74,12.52,105,1.2,298.9,335.6,301.2
947.9,612,21.2,16.6,75,12.65,104,1.1,298.9,336.0,301.2
947.4,617,21.2,16.8,76,12.78,103,1.0,298.9,336.4,301.2
946.9,621,21.2,16.8,76,12.84,102,1.0,298.9,336.6,301.2
946.4,626,21.1,16.9,77,12.90,100,0.9,298.9,336.7,301.3
945.8,631,21.1,17.0,77,12.97,99,0.9,299.0,337.0,301.3
945.3,635,21.1,17.1,78,13.05,97,0.8,299.0,337.2,301.3
944.8,640,21.0,17.1,78,13.12,95,0.8,299.0,337.4,301.3
944.3,645,21.0,17.2,79,13.17,93,0.8,299.0,337.6,301.3
943.8,649,20.9,17.2,79,13.16,91,0.7,299.0,337.6,301.4
943.3,654,20.9,17.1,79,13.14,89,0.7,299.0,337.5,301.3
942.8,659,20.8,17.1,79,13.13,86,0.7,299.0,337.5,301.3
942.3,663,20.8,17.1,79,13.12,84,0.7,299.0,337.4,301.3
941.8,668,20.8,17.1,79,13.10,81,0.7,299.0,337.4,301.3
941.3,672,20.7,17.0,79,13.10,79,0.7,299.0,337.4,301.3
940.8,677,20.7,17.0,79,13.07,76,0.7,299.0,337.3,301.3
940.3,682,20.6,16.9,79,13.01,74,0.7,299.0,337.1,301.3
939.8,687,20.6,16.9,79,12.97,72,0.7,299.0,337.0,301.3
939.2,692,20.6,16.9,79,12.99,70,0.7,299.0,337.1,301.4
938.7,697,20.5,16.9,80,13.03,67,0.7,299.0,337.2,301.4
938.1,702,20.5,16.9,80,13.03,65,0.7,299.0,337.2,301.3
937.5,707,20.4,16.9,80,13.01,62,0.7,299.0,337.1,301.3
937.0,713,20.3,16.9,80,13.01,60,0.7,299.0,337.1,301.3
936.4,718,20.3,16.9,81,13.02,57,0.7,299.0,337.2,301.3
935.8,723,20.3,16.9,81,13.02,54,0.7,299.0,337.2,301.4
935.2,729,20.2,16.9,81,13.04,51,0.7,299.0,337.2,301.4
934.6,734,20.1,16.9,82,13.07,48,0.7,299.0,337.3,301.4
934.1,739,20.1,16.9,82,13.08,44,0.7,299.0,337.4,301.4
933.5,744,20.0,16.9,82,13.09,40,0.7,299.0,337.4,301.4
933.0,749,20.0,16.9,82,13.07,36,0.7,299.0,337.3,301.4
932.4,754,20.0,16.8,82,13.05,32,0.7,299.0,337.3,301.4
931.9,759,19.9,16.8,82,13.04,27,0.7,299.0,337.2,301.4
931.4,764,19.9,16.8,83,13.04,22,0.7,299.0,337.3,301.4
930.9,769,19.8,16.8,83,13.06,18,0.7,299.0,337.3,301.4
930.4,774,19.8,16.8,83,13.06,13,0.7,299.0,337.3,301.4
929.8,779,19.8,16.8,83,13.04,8,0.7,299.1,337.3,301.4
929.3,784,19.7,16.7,83,13.01,3,0.7,299.1,337.2,301.4
928.8,789,19.7,16.7,83,13.00,358,0.7,299.1,337.2,301.4
928.2,794,19.6,16.7,83,13.00,353,0.7,299.1,337.2,301.4
927.7,799,19.6,16.7,83,12.97,349,0.7,299.1,337.1,301.4
927.1,804,19.5,16.6,83,12.94,344,0.7,299.1,337.0,301.4
926.6,809,19.5,16.6,83,12.89,340,0.7,299.1,336.9,301.4
926.0,814,19.5,16.5,83,12.88,336,0.7,299.1,336.9,301.4
925.5,819,19.4,16.6,84,12.94,332,0.7,299.1,337.1,301.4
925.0,824,19.4,16.8,85,13.08,332,0.7,299.1,337.5,301.5
924.5,828,19.3,17.0,86,13.28,324,0.8,299.1,338.1,301.5
924.0,833,19.3,17.3,88,13.57,320,0.8,299.1,338.9,301.6
923.4,838,19.3,17.5,89,13.74,317,0.8,299.2,339.5,301.6
922.9,843,19.3,17.4,89,13.70,314,0.9,299.2,339.4,301.6
922.4,848,19.2,17.4,89,13.68,312,0.9,299.2,339.3,301.6
921.9,853,19.2,17.4,89,13.68,309,0.9,299.2,339.3,301.7
921.4,857,19.2,17.4,90,13.69,307,1.0,299.2,339.4,301.7
920.9,862,19.1,17.5,90,13.75,305,1.0,299.2,339.6,301.7
920.4,867,19.1,17.5,90,13.81,303,1.1,299.3,339.7,301.7
919.8,872,19.1,17.5,91,13.82,302,1.1,299.3,339.8,301.8
919.3,877,19.0,17.5,91,13.82,301,1.2,299.3,339.8,301.7
918.7,882,19.0,17.5,91,13.80,300,1.3,299.3,339.8,301.8
918.2,887,18.9,17.4,91,13.78,300,1.4,299.3,339.7,301.8
917.6,893,18.9,17.4,91,13.74,299,1.5,299.3,339.6,301.8
917.1,898,18.8,17.3,91,13.70,299,1.6,299.3,339.5,301.8
916.5,903,18.8,17.3,91,13.67,299,1.7,299.3,339.4,301.8
915.9,908,18.8,17.2,91,13.64,299,1.8,299.3,339.3,301.8
915.4,914,18.7,17.2,91,13.62,299,1.9,299.3,339.3,301.8
914.8,919,18.7,17.2,91,13.62,299,2.0,299.4,339.3,301.8
914.2,925,18.7,17.2,91,13.59,300,2.1,299.4,339.3,301.9
913.6,930,18.7,17.1,91,13.58,300,2.3,299.5,339.3,301.9
913.1,935,18.6,17.1,91,13.58,300,2.4,299.5,339.3,301.9
912.5,941,18.6,17.1,91,13.60,300,2.5,299.5,339.4,301.9
912.0,946,18.6,17.1,91,13.58,301,2.6,299.5,339.4,301.9
911.4,951,18.5,17.1,91,13.55,301,2.7,299.5,339.3,301.9
910.9,956,18.5,17.0,91,13.53,301,2.8,299.5,339.2,301.9
910.4,961,18.5,16.9,91,13.45,301,2.9,299.5,339.1,302.0
909.9,965,18.5,16.8,90,13.33,301,3.0,299.7,338.8,302.1
909.4,970,18.6,16.7,89,13.26,301,3.1,299.8,338.8,302.2
908.9,975,18.7,16.7,88,13.25,301,3.2,299.9,338.9,302.3
908.5,979,18.6,16.6,88,13.23,301,3.2,299.9,338.8,302.3
908.0,984,18.6,16.6,88,13.19,301,3.3,299.9,338.7,302.3
907.5,988,18.6,16.6,88,13.19,301,3.3,299.9,338.7,302.3
907.0,993,18.5,16.7,89,13.28,301,3.4,299.9,339.0,302.3
906.6,997,18.5,16.7,90,13.35,301,3.4,299.9,339.1,302.3
906.1,1001,18.4,16.8,90,13.37,301,3.4,299.9,339.2,302.3
905.7,1006,18.4,16.8,90,13.40,301,3.4,299.9,339.3,302.3
905.2,1010,18.4,16.8,90,13.39,301,3.4,299.9,339.3,302.4
904.7,1014,18.4,16.7,90,13.34,300,3.4,300.0,339.2,302.4
904.3,1019,18.3,16.7,90,13.30,300,3.4,300.0,339.1,302.4
903.8,1024,18.3,16.6,90,13.26,300,3.3,300.0,339.0,302.4
903.3,1028,18.3,16.5,89,13.21,300,3.3,300.0,338.9,302.4
902.7,1033,18.3,16.4,89,13.15,300,3.3,300.1,338.8,302.5
902.2,1039,18.3,16.4,89,13.12,300,3.3,300.1,338.8,302.5
901.6,1044,18.3,16.4,89,13.10,300,3.3,300.2,338.8,302.5
901.0,1050,18.2,16.3,89,13.08,300,3.3,300.2,338.7,302.5
900.4,1056,18.2,16.3,89,13.05,300,3.3,300.2,338.6,302.5
899.8,1062,18.1,16.3,89,13.04,301,3.3,300.2,338.6,302.5
899.1,1068,18.1,16.2,89,13.00,301,3.3,300.2,338.5,302.5
898.6,1073,18.0,16.2,89,12.96,301,3.3,300.2,338.4,302.5
898.0,1078,18.0,16.1,89,12.96,302,3.4,300.2,338.4,302.5
897.5,1083,17.9,16.2,90,13.01,302,3.4,300.2,338.5,302.5
897.0,1088,17.9,16.2,90,13.04,303,3.5,300.2,338.6,302.5
896.6,1093,17.8,16.2,90,13.01,303,3.5,300.2,338.5,302.5
896.1,1097,17.8,16.1,90,12.97,304,3.6,300.2,338.4,302.6
895.6,1101,17.8,16.1,90,12.96,304,3.6,300.2,338.4,302.6
895.2,1106,17.7,16.1,90,12.95,304,3.7,300.2,338.4,302.6
894.7,1110,17.7,16.1,90,12.95,305,3.8,300.2,338.4,302.6
894.3,1114,17.7,16.1,90,12.97,305,3.8,300.2,338.4,302.6
893.8,1119,17.6,16.1,91,12.97,305,3.9,300.3,338.5,302.6
893.4,1123,17.6,16.1,91,13.00,305,4.0,300.3,338.6,302.6
893.0,1127,17.6,16.1,91,13.01,305,4.0,300.3,338.6,302.6
892.5,1131,17.5,16.1,91,13.02,305,4.1,300.3,338.7,302.6
892.1,1135,17.5,16.1,92,13.02,305,4.1,300.3,338.7,302.6
891.7,1139,17.4,16.1,92,13.01,305,4.2,300.3,338.6,302.6
891.2,1144,17.4,16.1,92,13.00,305,4.2,300.3,338.6,302.6
890.8,1148,17.4,16.1,92,13.00,305,4.3,300.3,338.6,302.6
890.4,1152,17.3,16.1,92,13.00,305,4.3,300.3,338.6,302.6
889.9,1156,17.3,16.1,93,13.01,305,4.3,300.3,338.6,302.6
889.5,1160,17.2,16.1,93,13.04,305,4.4,300.3,338.7,302.6
889.1,1164,17.2,16.1,93,13.03,304,4.4,300.3,338.6,302.6
888.6,1169,17.2,16.0,93,13.00,304,4.4,300.3,338.6,302.6
888.2,1173,17.1,16.0,93,12.95,304,4.4,300.3,338.5,302.6
887.8,1177,17.1,15.9,92,12.89,303,4.4,300.3,338.3,302.6
887.3,1181,17.1,15.8,92,12.84,303,4.3,300.3,338.2,302.7
886.9,1185,17.1,15.8,92,12.80,303,4.3,300.4,338.1,302.7
886.4,1190,17.1,15.7,91,12.77,303,4.3,300.5,338.1,302.8
885.9,1195,17.1,15.7,92,12.79,303,4.3,300.5,338.2,302.8
885.5,1199,17.0,15.7,92,12.80,302,4.2,300.4,338.2,302.7
885.0,1204,17.0,15.7,92,12.79,302,4.2,300.4,338.2,302.7
884.5,1209,16.9,15.7,92,12.76,302,4.2,300.4,338.1,302.7
884.0,1214,16.9,15.6,92,12.74,302,4.1,300.4,338.0,302.7
883.4,1219,16.8,15.6,93,12.74,302,4.1,300.4,338.0,302.7
882.9,1224,16.8,15.6,93,12.73,303,4.1,300.5,338.0,302.8
882.4,1228,16.8,15.6,93,12.70,303,4.0,300.5,337.9,302.8
881.9,1233,16.7,15.5,92,12.63,303,4.0,300.5,337.8,302.8
881.4,1238,16.7,15.4,92,12.57,303,3.9,300.5,337.6,302.8
880.9,1243,16.7,15.3,92,12.52,304,3.9,300.5,337.5,302.8
880.4,1249,16.7,15.3,92,12.50,304,3.8,300.6,337.5,302.8
879.8,1254,16.6,15.3,92,12.52,304,3.8,300.6,337.5,302.8
879.3,1259,16.6,15.3,92,12.53,305,3.8,300.6,337.5,302.8
878.8,1264,16.5,15.3,92,12.53,305,3.7,300.6,337.5,302.8
878.2,1269,16.5,15.3,93,12.52,305,3.7,300.6,337.5,302.8
877.7,1275,16.4,15.2,93,12.49,306,3.7,300.6,337.4,302.8
877.1,1280,16.4,15.2,92,12.46,306,3.7,300.6,337.4,302.8
876.6,1285,16.4,15.1,92,12.44,307,3.6,300.6,337.4,302.9
876.0,1291,16.3,15.1,93,12.44,307,3.6,300.6,337.4,302.9
875.4,1297,16.3,15.1,93,12.46,308,3.6,300.6,337.4,302.9
874.9,1302,16.2,15.1,93,12.44,308,3.6,300.6,337.4,302.9
874.3,1308,16.2,15.0,93,12.40,309,3.6,300.6,337.2,302.9
873.7,1313,16.1,15.0,93,12.35,309,3.6,300.6,337.1,302.9
873.2,1318,16.1,14.9,93,12.27,310,3.6,300.6,336.9,302.8
872.7,1323,16.0,14.8,92,12.22,310,3.6,300.7,336.8,302.9
872.2,1328,16.0,14.8,92,12.21,311,3.7,300.7,336.8,302.9
871.7,1333,16.0,14.8,92,12.22,311,3.7,300.7,336.8,302.9
871.3,1337,16.0,14.8,93,12.25,312,3.7,300.7,336.9,302.9
870.8,1342,15.9,14.8,93,12.26,313,3.7,300.7,337.0,302.9
870.3,1347,15.9,14.8,93,12.25,314,3.7,300.7,336.9,303.0
869.8,1352,15.9,14.8,93,12.25,315,3.8,300.8,337.0,303.0
869.2,1357,15.8,14.8,94,12.27,316,3.8,300.8,337.0,303.0
868.7,1362,15.8,14.8,94,12.26,317,3.8,300.8,337.0,303.0
868.2,1368,15.7,14.7,94,12.23,318,3.9,300.7,336.9,303.0
867.6,1373,15.7,14.7,94,12.18,319,3.9,300.8,336.7,303.0
867.1,1378,15.6,14.5,93,12.07,320,3.9,300.8,336.5,303.0
866.6,1383,15.6,14.4,92,11.97,322,4.0,300.8,336.2,303.0
866.1,1388,15.6,14.3,92,11.90,323,4.0,300.9,336.1,303.0
865.5,1394,15.6,14.2,91,11.81,325,4.0,301.0,335.9,303.1
865.0,1399,15.7,13.9,89,11.60,326,4.1,301.1,335.4,303.2
864.5,1404,15.8,13.5,86,11.33,328,4.1,301.3,334.9,303.3
863.9,1410,16.0,13.3,84,11.19,329,4.1,301.5,334.7,303.5
863.4,1415,16.0,13.3,84,11.16,331,4.1,301.6,334.7,303.6
862.8,1420,16.0,13.2,83,11.13,332,4.2,301.6,334.7,303.7
862.3,1426,16.0,13.1,83,11.07,334,4.2,301.7,334.6,303.7
861.7,1431,16.1,13.0,82,10.97,336,4.2,301.8,334.4,303.8
861.1,1437,16.1,12.7,80,10.78,337,4.2,301.9,333.9,303.8
860.5,1443,16.2,12.3,78,10.52,339,4.3,302.0,333.4,303.9
859.9,1449,16.3,12.0,76,10.27,340,4.3,302.2,332.8,304.0
859.3,1455,16.4,11.4,72,9.91,341,4.3,302.3,332.0,304.2
858.8,1461,16.6,10.5,67,9.31,343,4.3,302.6,330.5,304.3
858.2,1466,16.9,9.2,60,8.51,344,4.3,303.0,328.6,304.5
857.6,1472,17.2,8.0,55,7.89,345,4.4,303.3,327.2,304.8
857.1,1477,17.3,7.2,51,7.45,346,4.4,303.6,326.2,304.9
856.6,1482,17.5,6.2,48,6.97,347,4.4,303.8,325.0,305.1
856.0,1488,17.7,5.2,44,6.50,347,4.4,304.0,323.9,305.2
855.5,1493,17.8,4.0,40,5.97,348,4.4,304.2,322.6,305.3
855.0,1498,18.0,2.9,37,5.53,349,4.4,304.5,321.5,305.5
854.5,1503,18.1,2.1,34,5.21,349,4.4,304.6,320.7,305.6
853.9,1509,18.2,1.2,32,4.89,350,4.3,304.8,320.0,305.7
853.4,1514,18.3,0.7,31,4.71,350,4.3,305.0,319.6,305.8
852.9,1519,18.3,0.7,30,4.71,350,4.3,305.0,319.7,305.9
852.4,1524,18.3,0.8,31,4.75,350,4.3,305.1,319.8,305.9
851.8,1530,18.3,0.8,31,4.75,351,4.2,305.1,319.8,305.9
851.3,1535,18.2,0.7,31,4.74,351,4.2,305.1,319.8,306.0
850.8,1540,18.2,0.9,31,4.81,351,4.1,305.1,320.0,306.0
850.3,1545,18.1,1.3,32,4.94,351,4.1,305.0,320.4,306.0
850.0,1548,18.0,1.3,32,4.94,351,4.1,305.0,320.4,305.9
849.8,1550,18.0,1.3,32,4.95,351,4.0,305.0,320.4,305.9
849.3,1555,18.0,1.3,33,4.96,352,3.9,305.0,320.4,305.9
848.8,1560,17.9,1.1,32,4.89,352,3.9,305.0,320.2,305.9
848.3,1565,17.9,0.3,30,4.60,352,3.8,305.1,319.4,305.9
847.8,1570,17.9,-0.3,29,4.41,353,3.7,305.1,318.9,306.0
847.3,1575,17.9,-0.3,29,4.43,353,3.6,305.2,319.0,306.0
846.8,1580,17.9,-0.2,29,4.44,354,3.6,305.2,319.0,306.0
846.3,1585,17.8,-0.5,29,4.36,355,3.5,305.2,318.8,306.0
845.8,1590,17.8,-1.0,28,4.21,356,3.4,305.3,318.4,306.0
845.3,1595,17.8,-1.5,27,4.07,357,3.3,305.3,318.0,306.0
844.9,1600,17.8,-2.0,26,3.92,358,3.3,305.3,317.6,306.0
844.4,1605,17.8,-2.8,24,3.69,359,3.2,305.4,317.0,306.1
843.9,1609,17.9,-3.7,23,3.45,1,3.1,305.5,316.4,306.1
843.5,1614,17.9,-4.4,22,3.28,2,3.1,305.6,316.0,306.2
843.1,1618,17.9,-4.8,21,3.19,4,3.1,305.6,315.7,306.2
842.7,1622,18.0,-5.3,20,3.06,5,3.0,305.7,315.4,306.3
842.3,1626,18.0,-5.9,19,2.91,7,3.0,305.8,315.1,306.3
841.9,1630,18.0,-6.3,19,2.84,9,3.0,305.8,314.9,306.4
841.5,1634,18.0,-6.3,18,2.83,10,3.0,305.9,314.9,306.4
841.1,1638,18.0,-6.3,18,2.83,12,3.0,305.9,314.9,306.4
840.7,1643,17.9,-6.6,18,2.77,13,3.0,305.9,314.7,306.4
840.2,1647,17.9,-7.2,17,2.66,14,3.1,305.9,314.5,306.4
839.8,1652,18.0,-7.4,17,2.61,15,3.1,306.0,314.4,306.5
839.3,1656,18.1,-7.1,17,2.67,16,3.1,306.1,314.7,306.6
838.8,1661,18.2,-6.8,18,2.73,17,3.2,306.4,315.2,306.9
838.4,1666,18.4,-7.6,16,2.58,18,3.2,306.7,315.0,307.1
837.9,1671,18.6,-9.2,14,2.27,18,3.3,306.9,314.3,307.3
837.4,1675,18.8,-10.5,13,2.05,19,3.3,307.1,313.8,307.5
836.9,1680,18.8,-10.1,13,2.13,19,3.4,307.2,314.1,307.6
836.5,1685,18.8,-8.2,15,2.47,19,3.4,307.2,315.2,307.7
836.0,1690,18.8,-6.7,17,2.77,19,3.4,307.3,316.2,307.8
835.4,1696,18.7,-6.0,18,2.91,19,3.5,307.3,316.6,307.8
834.9,1701,18.7,-5.7,19,3.00,20,3.5,307.3,316.9,307.8
834.4,1706,18.7,-5.4,19,3.08,20,3.6,307.3,317.2,307.9
833.9,1711,18.7,-4.8,20,3.20,20,3.6,307.4,317.6,308.0
833.5,1716,18.6,-4.2,21,3.36,20,3.6,307.4,318.1,308.0
833.0,1721,18.6,-3.7,22,3.50,20,3.6,307.4,318.5,308.0
832.5,1726,18.6,-3.3,22,3.59,20,3.6,307.4,318.8,308.1
832.1,1730,18.5,-3.1,23,3.65,21,3.6,307.4,319.0,308.1
831.6,1735,18.5,-2.9,23,3.72,21,3.6,307.4,319.2,308.1
831.1,1740,18.4,-2.4,24,3.85,21,3.6,307.4,319.6,308.1
830.6,1745,18.4,-1.8,25,4.02,22,3.6,307.4,320.1,308.1
830.1,1750,18.3,-1.5,26,4.12,22,3.6,307.4,320.4,308.1
829.6,1756,18.3,-1.5,26,4.14,23,3.6,307.4,320.5,308.1
829.1,1761,18.2,-1.2,27,4.22,23,3.6,307.4,320.7,308.2
828.6,1766,18.1,-0.5,28,4.44,24,3.5,307.4,321.3,308.2
828.1,1771,18.1,0.3,30,4.73,24,3.5,307.4,322.2,308.2
827.6,1776,18.0,0.8,31,4.91,25,3.5,307.3,322.7,308.3
827.1,1781,18.0,1.0,32,4.99,26,3.5,307.3,323.0,308.3
826.6,1786,17.9,1.4,33,5.12,26,3.4,307.3,323.3,308.3
826.1,1792,17.8,1.6,34,5.22,27,3.4,307.3,323.6,308.3
