PRES,HGHT,TEMP,DWPT,RELH,MIXR,DRCT,SPED,THTA,THTE,THTV
1015.6,31,24.4,18.8,71,13.59,48,7.3,296.2,335.6,298.7
1015.0,36,24.6,18.9,71,13.64,51,5.8,296.5,336.0,298.9
1014.4,41,24.6,18.9,70,13.68,52,5.8,296.6,336.2,299.0
1013.6,48,24.6,18.9,70,13.69,53,6.1,296.6,336.4,299.1
1013.0,53,24.6,18.8,70,13.64,53,6.6,296.7,336.3,299.1
1012.4,58,24.6,18.8,70,13.58,53,7.0,296.7,336.1,299.1
1011.6,65,24.6,18.7,70,13.52,53,7.5,296.7,336.0,299.1
1010.8,72,24.5,18.6,70,13.48,53,7.9,296.7,335.9,299.1
1010.1,78,24.4,18.6,70,13.45,54,8.3,296.7,335.8,299.1
1009.4,84,24.4,18.5,70,13.39,54,8.7,296.8,335.6,299.1
1008.7,90,24.4,18.4,69,13.31,54,9.0,296.8,335.4,299.2
1008.0,96,24.4,18.3,69,13.26,54,9.4,296.8,335.3,299.2
1007.4,102,24.3,18.3,69,13.24,54,9.7,296.8,335.3,299.2
1006.7,107,24.3,18.3,69,13.24,55,9.9,296.8,335.3,299.2
1006.1,113,24.2,18.3,69,13.24,55,10.2,296.8,335.3,299.2
1005.5,118,24.2,18.2,70,13.23,55,10.4,296.8,335.3,299.2
1005.0,123,24.1,18.2,70,13.22,55,10.6,296.8,335.2,299.2
1004.4,128,24.1,18.2,70,13.23,55,10.7,296.8,335.3,299.2
1003.8,133,24.0,18.2,70,13.25,55,10.8,296.9,335.3,299.2
1003.2,138,24.0,18.3,70,13.27,56,10.9,296.9,335.4,299.2
1002.7,143,23.9,18.3,71,13.27,56,11.0,296.8,335.4,299.2
1002.1,148,23.9,18.3,71,13.31,56,11.0,296.9,335.5,299.2
1001.4,154,23.8,18.3,71,13.35,56,11.1,296.9,335.7,299.2
1000.8,159,23.8,18.3,71,13.35,56,11.1,296.9,335.7,299.3
1000.2,165,23.7,18.3,72,13.34,57,11.1,296.9,335.6,299.2
1000.0,166,23.7,18.3,72,13.34,57,11.0,296.9,335.6,299.3
999.5,170,23.7,18.3,72,13.32,57,11.0,296.9,335.6,299.3
998.9,176,23.6,18.2,71,13.26,57,11.0,296.9,335.4,299.2
998.2,182,23.6,18.1,72,13.22,57,11.0,296.9,335.3,299.2
997.6,187,23.5,18.1,72,13.24,58,10.9,296.9,335.3,299.2
997.0,193,23.5,18.1,72,13.26,58,10.8,296.9,335.4,299.2
996.4,198,23.4,18.1,72,13.24,58,10.8,296.9,335.3,299.2
995.7,204,23.4,18.1,72,13.22,58,10.7,296.9,335.3,299.2
995.1,209,23.3,18.1,73,13.24,59,10.6,296.9,335.3,299.2
994.5,214,23.2,18.1,73,13.27,59,10.5,296.9,335.4,299.2
994.0,219,23.2,18.1,73,13.27,59,10.4,296.8,335.4,299.2
993.4,224,23.1,18.1,73,13.24,60,10.3,296.9,335.3,299.2
992.9,229,23.1,18.0,73,13.19,60,10.2,296.9,335.2,299.2
992.3,234,23.1,18.0,73,13.18,60,10.2,296.9,335.1,299.2
991.8,238,23.0,17.9,73,13.16,61,10.1,296.9,335.1,299.2
991.3,243,23.0,17.9,73,13.14,61,10.0,296.9,335.0,299.2
990.8,248,22.9,17.9,73,13.13,61,9.9,296.9,335.0,299.2
990.2,252,22.9,17.9,74,13.14,62,9.8,296.9,335.0,299.2
989.7,257,22.8,17.9,74,13.14,62,9.7,296.8,335.0,299.2
989.2,261,22.8,17.9,74,13.13,62,9.6,296.8,335.0,299.2
988.7,266,22.8,17.9,74,13.14,63,9.5,296.9,335.0,299.2
988.1,271,22.7,17.9,74,13.17,63,9.4,296.9,335.2,299.2
987.6,276,22.7,17.9,74,13.19,63,9.3,296.9,335.2,299.2
987.0,281,22.6,17.9,75,13.19,64,9.2,296.9,335.2,299.2
986.4,286,22.6,17.9,75,13.20,64,9.1,296.9,335.2,299.3
985.8,292,22.5,17.9,75,13.21,64,9.0,296.9,335.3,299.2
985.2,297,22.5,17.9,75,13.21,65,9.0,296.9,335.3,299.2
984.5,303,22.4,17.9,75,13.19,65,8.9,296.9,335.2,299.2
983.9,308,22.4,17.8,75,13.15,65,8.8,296.9,335.1,299.2
983.3,313,22.3,17.8,75,13.11,65,8.7,296.9,335.0,299.2
982.7,318,22.3,17.7,75,13.10,66,8.7,296.9,334.9,299.2
982.2,324,22.2,17.7,75,13.07,66,8.6,296.9,334.9,299.2
981.6,329,22.2,17.6,76,13.04,66,8.5,296.9,334.8,299.2
981.0,334,22.1,17.6,76,13.04,66,8.5,296.9,334.8,299.2
980.3,340,22.1,17.7,76,13.10,66,8.5,296.9,335.0,299.2
979.7,346,22.0,17.8,77,13.19,66,8.4,296.9,335.2,299.3
979.0,352,22.0,17.8,77,13.23,66,8.4,296.9,335.3,299.3
978.2,358,21.9,17.8,78,13.23,66,8.4,296.9,335.3,299.3
977.5,365,21.8,17.8,78,13.19,66,8.4,296.9,335.2,299.3
976.8,372,21.8,17.7,78,13.17,66,8.4,296.9,335.1,299.2
976.0,378,21.7,17.7,78,13.15,66,8.5,296.9,335.1,299.2
975.3,385,21.6,17.6,78,13.13,66,8.5,296.9,335.0,299.2
974.5,392,21.6,17.6,78,13.13,66,8.5,296.9,335.0,299.2
973.8,398,21.5,17.6,79,13.12,65,8.6,296.9,335.0,299.2
973.1,404,21.4,17.6,79,13.09,65,8.6,296.9,334.9,299.2
972.4,411,21.4,17.5,79,13.06,65,8.7,296.9,334.8,299.2
971.7,417,21.3,17.5,79,13.05,65,8.8,296.9,334.8,299.2
971.1,423,21.3,17.5,79,13.08,64,8.9,296.9,334.9,299.2
970.4,429,21.2,17.5,80,13.11,64,9.0,296.9,335.0,299.2
969.7,435,21.2,17.6,80,13.15,63,9.1,296.9,335.1,299.3
969.0,441,21.1,17.6,80,13.17,63,9.2,296.9,335.1,299.2
968.3,447,21.0,17.6,81,13.18,63,9.3,296.9,335.2,299.2
967.6,453,21.0,17.6,81,13.17,62,9.4,296.9,335.1,299.2
966.9,460,20.9,17.5,81,13.15,62,9.5,296.9,335.1,299.2
966.2,466,20.8,17.5,81,13.13,62,9.6,296.9,335.0,299.2
965.5,473,20.8,17.5,81,13.13,61,9.8,296.9,335.0,299.2
964.8,479,20.7,17.5,82,13.13,61,9.9,296.9,335.0,299.2
964.0,486,20.7,17.5,82,13.13,61,10.0,296.9,335.0,299.2
963.3,492,20.6,17.4,82,13.10,60,10.1,296.9,334.9,299.2
962.6,498,20.5,17.4,82,13.09,60,10.2,296.9,334.9,299.2
961.9,505,20.5,17.4,82,13.08,60,10.4,296.9,334.9,299.2
961.2,511,20.4,17.3,83,13.06,60,10.5,296.9,334.8,299.2
960.5,517,20.3,17.3,83,13.04,60,10.6,296.9,334.7,299.2
959.9,523,20.3,17.3,83,13.04,59,10.7,296.9,334.7,299.2
959.3,528,20.2,17.3,83,13.06,59,10.8,296.9,334.8,299.2
958.7,534,20.2,17.3,84,13.08,59,10.8,296.9,334.9,299.2
958.1,539,20.1,17.3,84,13.08,59,10.9,296.9,334.9,299.2
957.5,545,20.1,17.3,84,13.06,60,11.0,296.9,334.8,299.2
956.9,550,20.0,17.2,84,13.03,60,11.0,296.9,334.7,299.2
956.3,555,20.0,17.2,84,13.00,60,11.1,296.9,334.6,299.2
955.7,560,19.9,17.2,84,13.00,60,11.1,296.9,334.6,299.2
955.1,566,19.9,17.2,85,13.06,60,11.1,296.9,334.8,299.2
954.6,571,19.8,17.4,86,13.18,60,11.1,296.9,335.1,299.2
954.0,576,19.7,17.5,87,13.28,61,11.1,296.9,335.4,299.2
953.3,582,19.7,17.5,87,13.33,61,11.1,296.9,335.6,299.2
952.7,588,19.6,17.5,88,13.34,61,11.1,296.9,335.6,299.2
952.1,594,19.6,17.5,88,13.34,61,11.1,296.9,335.6,299.2
951.4,600,19.5,17.4,88,13.29,62,11.0,296.9,335.4,299.2
950.8,606,19.5,17.4,88,13.23,62,11.0,296.8,335.3,299.2
950.1,612,19.4,17.3,88,13.18,62,10.9,296.8,335.1,299.2
949.4,618,19.3,17.3,88,13.16,62,10.9,296.9,335.1,299.2
948.7,624,19.3,17.2,88,13.14,62,10.8,296.9,335.0,299.2
948.0,630,19.2,17.1,88,13.09,63,10.8,296.9,334.9,299.2
947.3,637,19.2,17.1,88,13.02,63,10.7,296.9,334.7,299.2
946.7,643,19.1,17.0,88,12.99,63,10.7,296.9,334.6,299.2
946.0,649,19.1,17.0,88,12.98,63,10.6,296.9,334.6,299.2
945.3,655,19.0,17.0,88,12.99,63,10.6,296.9,334.6,299.2
944.6,661,18.9,17.0,88,12.99,63,10.5,296.9,334.6,299.2
944.0,667,18.9,17.0,89,12.99,63,10.5,296.9,334.6,299.2
943.4,673,18.8,16.9,89,12.97,63,10.4,296.9,334.5,299.2
942.7,679,18.8,16.9,89,12.98,63,10.4,296.9,334.6,299.2
942.1,684,18.7,16.9,89,12.99,63,10.4,296.9,334.6,299.2
941.5,690,18.7,16.9,90,13.00,63,10.3,296.9,334.6,299.2
940.9,695,18.6,17.0,90,13.03,63,10.3,296.9,334.7,299.2
940.3,700,18.6,17.0,91,13.05,63,10.3,296.9,334.8,299.2
939.8,706,18.5,17.0,91,13.06,62,10.3,296.9,334.8,299.2
939.2,711,18.4,17.0,91,13.07,62,10.3,296.9,334.8,299.2
938.6,716,18.4,17.0,91,13.06,62,10.3,296.9,334.8,299.2
938.1,721,18.3,16.9,91,13.02,62,10.3,296.9,334.6,299.2
937.5,726,18.3,16.9,91,13.01,62,10.3,296.9,334.6,299.2
937.0,731,18.3,16.9,92,13.03,62,10.3,296.9,334.7,299.2
936.4,736,18.2,16.9,92,13.07,62,10.3,296.9,334.8,299.2
935.9,741,18.2,17.0,93,13.10,61,10.4,296.9,334.9,299.2
935.3,747,18.1,17.0,93,13.11,61,10.4,296.9,334.9,299.2
934.7,752,18.1,17.0,93,13.11,61,10.4,296.9,335.0,299.2
934.1,757,18.0,17.0,94,13.12,61,10.5,296.9,335.0,299.2
933.5,763,17.9,16.9,94,13.11,61,10.5,296.9,334.9,299.2
932.9,768,17.9,16.9,94,13.07,61,10.5,296.9,334.8,299.2
932.4,774,17.8,16.8,94,13.05,61,10.6,296.9,334.8,299.2
931.8,779,17.8,16.8,94,13.05,61,10.6,296.9,334.7,299.2
931.2,784,17.7,16.8,94,13.05,60,10.7,296.9,334.7,299.2
930.7,789,17.7,16.8,95,13.06,60,10.7,296.9,334.8,299.2
930.1,794,17.7,16.8,95,13.07,60,10.8,296.9,334.8,299.2
929.6,799,17.6,16.8,95,13.05,60,10.8,296.9,334.8,299.2
929.1,804,17.6,16.8,95,13.03,60,10.9,296.9,334.7,299.2
928.5,809,17.5,16.7,95,13.02,60,11.0,296.9,334.7,299.2
928.0,814,17.5,16.7,95,13.02,60,11.0,296.9,334.7,299.2
927.5,819,17.4,16.7,96,13.03,60,11.1,296.9,334.7,299.2
927.0,823,17.4,16.7,96,13.05,60,11.1,296.9,334.8,299.2
926.4,828,17.3,16.7,96,13.05,60,11.1,296.9,334.8,299.2
925.9,833,17.3,16.7,97,13.05,60,11.2,296.9,334.8,299.2
925.4,838,17.2,16.7,97,13.06,60,11.2,296.9,334.8,299.2
925.0,842,17.2,16.8,97,13.08,60,11.2,296.9,334.9,299.2
924.8,843,17.2,16.8,97,13.10,60,11.3,296.9,334.9,299.2
924.3,848,17.1,16.8,98,13.12,60,11.3,296.9,335.0,299.2
923.8,852,17.1,16.8,98,13.13,60,11.3,296.9,335.0,299.2
923.3,857,17.1,16.8,98,13.14,60,11.3,296.9,335.1,299.2
922.8,862,17.0,16.8,99,13.17,60,11.4,296.9,335.1,299.2
922.3,866,17.0,16.8,99,13.18,60,11.4,296.9,335.2,299.3
921.9,871,16.9,16.8,99,13.19,60,11.4,296.9,335.2,299.2
921.4,875,16.9,16.8,99,13.15,60,11.4,296.9,335.1,299.3
920.9,880,16.9,16.7,99,13.13,60,11.4,296.9,335.1,299.3
920.4,884,16.9,16.7,99,13.10,60,11.4,297.0,335.0,299.3
919.9,889,16.8,16.7,99,13.08,60,11.3,297.0,335.0,299.3
919.5,893,16.8,16.6,99,13.06,60,11.3,297.0,334.9,299.3
919.0,897,16.8,16.6,99,13.04,60,11.3,297.0,334.9,299.3
918.5,902,16.8,16.5,98,12.97,60,11.2,297.0,334.7,299.3
918.1,906,16.7,16.2,97,12.69,60,11.2,297.0,333.9,299.3
917.6,910,16.6,15.3,92,11.99,60,11.1,297.0,331.8,299.1
917.2,914,16.6,13.8,84,10.85,60,11.0,297.0,328.6,298.9
916.7,918,16.9,11.7,72,9.47,60,11.0,297.3,325.0,299.0
916.3,923,17.4,10.1,62,8.49,60,10.9,297.9,322.9,299.4
915.8,927,17.7,9.7,60,8.30,60,10.8,298.3,322.8,299.8
915.3,932,17.8,10.1,61,8.49,60,10.7,298.4,323.5,299.9
914.8,937,17.8,10.4,62,8.68,60,10.6,298.4,324.0,300.0
914.2,942,17.7,10.6,63,8.82,60,10.5,298.4,324.5,300.0
913.7,947,17.7,10.7,64,8.90,60,10.4,298.5,324.7,300.1
913.2,952,17.7,10.8,64,8.91,59,10.3,298.5,324.8,300.1
912.6,957,17.6,10.8,64,8.92,59,10.2,298.5,324.8,300.1
912.1,962,17.6,10.8,64,8.93,59,10.1,298.5,324.8,300.1
911.6,967,17.6,10.8,64,8.94,59,10.0,298.5,324.9,300.1
911.1,972,17.5,10.8,65,8.97,59,10.0,298.5,325.0,300.1
910.5,977,17.5,10.9,65,9.02,58,9.9,298.5,325.1,300.2
909.9,982,17.5,11.0,66,9.07,58,9.8,298.5,325.3,300.2
909.4,988,17.4,11.0,66,9.11,58,9.7,298.6,325.4,300.2
908.8,993,17.4,11.1,66,9.14,57,9.6,298.6,325.5,300.2
908.2,999,17.3,11.1,67,9.16,57,9.5,298.6,325.6,300.2
907.6,1004,17.3,11.1,67,9.19,57,9.4,298.6,325.6,300.2
907.1,1009,17.2,11.1,68,9.21,56,9.4,298.6,325.7,300.2
906.5,1014,17.2,11.2,68,9.24,56,9.3,298.6,325.8,300.2
906.0,1019,17.1,11.2,68,9.27,56,9.2,298.6,325.9,300.3
905.5,1024,17.1,11.3,68,9.30,55,9.2,298.6,326.0,300.3
905.0,1028,17.1,11.3,69,9.35,55,9.2,298.6,326.2,300.3
904.6,1033,17.0,11.4,69,9.40,54,9.1,298.6,326.3,300.3
904.1,1037,17.0,11.5,70,9.44,54,9.1,298.6,326.4,300.3
903.6,1041,17.0,11.5,70,9.47,53,9.1,298.6,326.5,300.3
903.2,1046,16.9,11.5,70,9.48,53,9.0,298.6,326.6,300.3
902.7,1050,16.9,11.5,71,9.48,53,9.0,298.6,326.6,300.3
902.3,1054,16.8,11.5,71,9.46,52,9.0,298.6,326.5,300.3
901.9,1058,16.8,11.4,71,9.46,52,9.0,298.6,326.5,300.3
901.5,1062,16.8,11.4,71,9.44,52,9.0,298.6,326.5,300.3
901.1,1066,16.7,11.4,71,9.44,52,9.0,298.6,326.5,300.3
900.7,1069,16.7,11.4,71,9.43,51,9.0,298.7,326.4,300.3
900.3,1073,16.7,11.4,71,9.43,51,9.0,298.7,326.4,300.4
900.0,1076,16.7,11.4,71,9.43,51,9.0,298.7,326.5,300.4
899.6,1080,16.6,11.4,71,9.44,51,9.0,298.7,326.5,300.4
899.2,1083,16.6,11.4,71,9.47,51,9.0,298.7,326.6,300.4
898.8,1087,16.6,11.4,72,9.47,51,9.0,298.7,326.6,300.4
898.4,1091,16.5,11.4,72,9.45,51,9.0,298.7,326.5,300.4
898.0,1095,16.5,11.3,72,9.43,51,9.0,298.7,326.5,300.4
897.6,1099,16.5,11.3,72,9.41,51,9.0,298.7,326.4,300.4
897.2,1103,16.4,11.3,72,9.40,51,9.0,298.7,326.4,300.4
896.7,1107,16.4,11.3,72,9.40,51,8.9,298.7,326.4,300.4
896.3,1111,16.4,11.3,72,9.41,51,8.9,298.7,326.4,300.4
895.8,1116,16.3,11.3,72,9.42,51,8.9,298.7,326.5,300.4
895.3,1121,16.3,11.3,72,9.42,51,8.9,298.7,326.5,300.4
894.7,1126,16.2,11.2,72,9.41,52,8.8,298.7,326.5,300.4
894.2,1131,16.2,11.2,72,9.37,52,8.8,298.7,326.3,300.4
893.6,1137,16.1,11.1,72,9.31,52,8.7,298.7,326.2,300.4
893.1,1142,16.1,11.0,72,9.24,52,8.7,298.7,326.0,300.4
892.5,1147,16.0,10.9,71,9.20,53,8.6,298.7,325.9,300.4
892.0,1152,16.0,10.9,71,9.19,53,8.6,298.8,325.9,300.4
891.5,1157,16.0,10.9,72,9.20,53,8.5,298.8,325.9,300.4
891.0,1161,15.9,10.9,72,9.20,53,8.5,298.8,325.9,300.4
890.5,1166,15.9,10.8,72,9.18,54,8.4,298.8,325.9,300.4
890.1,1170,15.9,10.8,72,9.17,54,8.4,298.8,325.8,300.4
889.6,1175,15.8,10.8,72,9.18,54,8.3,298.8,325.9,300.5
889.2,1179,15.8,10.8,72,9.21,54,8.3,298.8,326.0,300.5
888.7,1184,15.8,10.9,73,9.26,55,8.2,298.8,326.1,300.5
888.2,1188,15.7,10.9,73,9.28,55,8.2,298.8,326.2,300.5
887.7,1193,15.7,10.9,73,9.28,55,8.1,298.8,326.2,300.5
887.2,1198,15.6,10.9,73,9.28,55,8.1,298.8,326.2,300.5
886.7,1202,15.6,10.9,74,9.28,55,8.1,298.8,326.2,300.5
886.2,1207,15.5,10.9,74,9.28,55,8.0,298.8,326.2,300.5
885.8,1212,15.5,10.9,74,9.27,55,8.0,298.8,326.2,300.5
885.3,1216,15.5,10.8,74,9.25,55,8.0,298.8,326.1,300.5
884.8,1221,15.4,10.8,74,9.26,55,7.9,298.9,326.2,300.5
884.3,1226,15.4,10.9,74,9.28,55,7.9,298.9,326.2,300.5
883.7,1231,15.4,10.9,75,9.30,55,7.9,298.9,326.3,300.5
883.2,1236,15.3,10.9,75,9.30,55,7.9,298.9,326.3,300.5
882.7,1241,15.3,10.8,75,9.28,55,7.9,298.9,326.3,300.5
882.1,1247,15.2,10.8,75,9.25,55,7.9,298.9,326.2,300.5
881.6,1252,15.1,10.7,75,9.23,55,7.9,298.9,326.1,300.5
881.1,1257,15.1,10.7,75,9.21,55,7.9,298.9,326.0,300.5
880.6,1262,15.0,10.7,75,9.21,55,7.9,298.9,326.0,300.5
880.1,1266,15.0,10.7,75,9.22,55,7.9,298.9,326.1,300.5
879.6,1271,15.0,10.7,76,9.23,55,7.9,298.9,326.1,300.5
879.1,1276,14.9,10.7,76,9.24,55,8.0,298.9,326.1,300.5
878.7,1280,14.9,10.7,76,9.25,54,8.0,298.9,326.2,300.5
878.2,1285,14.9,10.8,76,9.27,54,8.0,298.9,326.3,300.6
877.7,1289,14.8,10.8,77,9.31,54,8.0,298.9,326.4,300.6
877.2,1294,14.8,10.8,77,9.33,54,8.0,298.9,326.4,300.6
876.7,1299,14.7,10.8,77,9.32,54,8.1,298.9,326.4,300.6
876.2,1304,14.7,10.7,77,9.29,55,8.1,298.9,326.3,300.6
875.7,1309,14.6,10.7,77,9.27,55,8.1,298.9,326.2,300.6
875.2,1314,14.6,10.7,77,9.26,55,8.2,298.9,326.2,300.6
874.6,1319,14.5,10.7,78,9.26,55,8.2,298.9,326.2,300.6
874.1,1324,14.5,10.7,78,9.25,55,8.2,298.9,326.2,300.6
873.6,1329,14.4,10.6,78,9.25,56,8.3,298.9,326.2,300.6
873.1,1334,14.4,10.6,78,9.24,56,8.3,298.9,326.2,300.6
872.5,1339,14.3,10.6,78,9.23,56,8.4,298.9,326.2,300.6
872.0,1344,14.3,10.6,79,9.26,57,8.4,298.9,326.3,300.6
871.5,1349,14.2,10.7,79,9.30,57,8.5,298.9,326.3,300.6
871.0,1355,14.2,10.7,80,9.32,58,8.6,298.9,326.4,300.6
870.4,1360,14.1,10.7,80,9.34,58,8.6,298.9,326.5,300.6
869.9,1365,14.1,10.8,80,9.36,59,8.7,298.9,326.5,300.6
869.4,1370,14.0,10.8,81,9.37,60,8.8,298.9,326.5,300.6
868.9,1375,14.0,10.7,81,9.36,60,8.8,298.9,326.5,300.6
868.4,1380,14.0,10.7,81,9.34,61,8.9,298.9,326.5,300.6
867.9,1384,13.9,10.7,81,9.34,62,9.0,298.9,326.5,300.6
867.4,1389,13.9,10.7,81,9.33,62,9.0,298.9,326.5,300.6
866.9,1394,13.8,10.6,81,9.33,63,9.1,298.9,326.5,300.6
866.4,1399,13.8,10.6,81,9.31,64,9.1,298.9,326.4,300.6
865.9,1404,13.8,10.6,81,9.31,64,9.2,299.0,326.4,300.6
865.4,1409,13.7,10.6,81,9.32,65,9.2,299.0,326.5,300.7
864.9,1414,13.7,10.7,82,9.35,65,9.3,299.0,326.6,300.7
864.4,1419,13.7,10.7,82,9.37,66,9.3,299.0,326.6,300.7
863.8,1424,13.6,10.6,82,9.34,67,9.3,299.0,326.6,300.7
863.3,1429,13.6,10.5,82,9.28,67,9.4,299.0,326.4,300.7
862.8,1435,13.6,10.4,81,9.23,68,9.4,299.0,326.3,300.7
862.2,1440,13.5,10.4,81,9.20,68,9.4,299.1,326.2,300.7
861.7,1445,13.5,10.3,81,9.16,69,9.4,299.1,326.1,300.7
861.2,1450,13.5,10.2,81,9.13,69,9.4,299.1,326.1,300.7
860.7,1455,13.4,10.2,81,9.12,70,9.3,299.1,326.1,300.8
860.2,1459,13.4,10.2,81,9.11,70,9.3,299.1,326.1,300.8
859.7,1464,13.4,10.2,81,9.10,70,9.3,299.2,326.1,300.8
859.3,1468,13.4,10.1,81,9.09,71,9.3,299.2,326.1,300.8
858.9,1473,13.3,10.1,81,9.08,71,9.2,299.2,326.1,300.9
858.4,1477,13.3,10.1,81,9.06,71,9.2,299.2,326.0,300.9
858.0,1481,13.3,10.0,81,9.05,72,9.1,299.2,326.0,300.9
857.6,1485,13.3,10.0,81,9.04,72,9.1,299.3,326.0,300.9
857.3,1488,13.3,10.0,81,9.04,72,9.1,299.3,326.0,300.9
856.9,1492,13.2,10.0,81,9.05,72,9.1,299.3,326.1,300.9
856.5,1496,13.2,10.0,81,9.07,72,9.0,299.3,326.1,301.0
856.1,1500,13.2,10.1,81,9.08,72,9.0,299.3,326.2,301.0
855.6,1504,13.1,10.0,81,9.07,72,9.0,299.3,326.2,301.0
855.2,1509,13.1,10.0,82,9.06,72,9.0,299.3,326.1,301.0
854.7,1513,13.1,10.0,82,9.04,72,9.0,299.3,326.1,301.0
854.2,1518,13.0,9.9,82,9.02,72,9.0,299.3,326.0,301.0
853.7,1523,13.0,9.9,82,9.01,72,9.0,299.3,326.0,301.0
853.2,1528,12.9,9.9,82,9.01,72,9.0,299.4,326.0,301.0
852.7,1533,12.9,9.9,82,9.01,72,9.0,299.4,326.0,301.0
852.2,1538,12.8,9.9,82,9.00,72,9.0,299.4,326.0,301.0
851.8,1543,12.8,9.8,82,8.96,72,9.0,299.4,325.9,301.0
851.3,1547,12.8,9.7,82,8.92,71,9.0,299.4,325.8,301.0
850.8,1552,12.7,9.6,81,8.88,71,9.0,299.4,325.7,301.0
850.3,1557,12.7,9.6,81,8.84,71,9.0,299.4,325.6,301.0
850.0,1560,12.7,9.5,81,8.82,71,9.0,299.4,325.6,301.0
849.9,1561,12.7,9.5,81,8.81,71,9.0,299.4,325.6,301.0
849.4,1566,12.7,9.5,81,8.81,71,9.0,299.5,325.6,301.1
848.9,1570,12.6,9.5,81,8.81,70,9.0,299.5,325.6,301.1
848.5,1575,12.6,9.5,81,8.80,70,9.0,299.5,325.6,301.1
848.0,1580,12.6,9.5,81,8.80,70,9.0,299.5,325.6,301.1
847.6,1584,12.5,9.5,82,8.81,70,9.0,299.5,325.6,301.1
847.1,1589,12.5,9.5,82,8.82,70,8.9,299.5,325.6,301.1
846.6,1593,12.4,9.5,82,8.82,70,8.9,299.5,325.6,301.1
846.2,1598,12.4,9.5,82,8.83,70,8.8,299.5,325.7,301.1
845.6,1603,12.4,9.5,83,8.86,70,8.8,299.5,325.8,301.1
845.1,1609,12.3,9.6,83,8.89,70,8.7,299.5,325.8,301.1
844.5,1614,12.3,9.6,84,8.92,71,8.7,299.5,325.9,301.1
843.9,1620,12.2,9.6,84,8.93,71,8.6,299.5,326.0,301.1
843.3,1626,12.1,9.6,84,8.93,71,8.5,299.5,326.0,301.1
842.7,1632,12.1,9.6,85,8.91,71,8.5,299.5,325.9,301.1
842.1,1638,12.0,9.5,85,8.89,72,8.4,299.5,325.8,301.1
841.5,1644,12.0,9.5,85,8.88,72,8.3,299.5,325.8,301.1
841.0,1650,11.9,9.5,85,8.88,73,8.3,299.5,325.8,301.1
840.5,1655,11.9,9.5,85,8.89,73,8.2,299.5,325.8,301.1
840.0,1660,11.8,9.5,86,8.90,74,8.2,299.5,325.9,301.1
839.5,1664,11.8,9.5,86,8.89,74,8.1,299.5,325.9,301.1
839.0,1669,11.7,9.5,86,8.89,75,8.1,299.5,325.9,301.1
838.6,1674,11.7,9.5,86,8.91,75,8.1,299.5,325.9,301.1
838.1,1678,11.7,9.5,87,8.95,76,8.0,299.5,326.0,301.2
837.7,1683,11.6,9.6,87,8.97,76,8.0,299.5,326.1,301.1
837.2,1687,11.5,9.5,87,8.96,77,8.0,299.5,326.0,301.1
836.8,1692,11.5,9.5,87,8.93,77,8.0,299.5,326.0,301.1
836.3,1696,11.5,9.4,87,8.91,77,8.0,299.5,325.9,301.1
835.9,1700,11.5,9.4,87,8.91,77,8.1,299.6,326.0,301.2
835.5,1704,11.5,9.5,88,8.93,77,8.1,299.6,326.0,301.2
835.1,1709,11.4,9.5,88,8.94,77,8.1,299.6,326.1,301.2
834.7,1713,11.4,9.5,88,8.95,77,8.2,299.6,326.1,301.3
834.3,1717,11.4,9.5,88,8.96,77,8.2,299.6,326.2,301.2
833.9,1721,11.3,9.5,89,8.97,77,8.3,299.6,326.2,301.2
833.5,1724,11.3,9.5,89,8.98,77,8.3,299.6,326.2,301.2
833.1,1728,11.2,9.5,89,8.97,77,8.4,299.6,326.2,301.2
832.7,1732,11.2,9.5,89,8.97,77,8.5,299.6,326.2,301.2
832.3,1736,11.2,9.5,89,8.99,76,8.5,299.6,326.2,301.2
831.9,1740,11.1,9.5,90,9.00,76,8.6,299.6,326.3,301.2
831.5,1745,11.1,9.5,90,9.00,76,8.7,299.6,326.3,301.2
831.1,1749,11.0,9.5,90,8.98,76,8.8,299.6,326.2,301.2
830.6,1754,11.0,9.4,90,8.98,75,8.9,299.6,326.2,301.2
830.1,1758,10.9,9.4,90,8.98,75,8.9,299.6,326.2,301.2
829.6,1763,10.9,9.4,91,8.99,75,9.0,299.6,326.2,301.2
829.1,1769,10.8,9.4,91,8.99,75,9.1,299.6,326.2,301.2
828.6,1774,10.8,9.4,91,8.96,75,9.2,299.6,326.2,301.2
828.0,1780,10.8,9.3,91,8.90,74,9.3,299.6,326.0,301.2
827.4,1786,10.7,9.0,89,8.77,74,9.3,299.7,325.7,301.3
826.8,1792,10.8,8.8,87,8.60,74,9.4,299.8,325.3,301.3
826.2,1798,10.8,8.5,86,8.45,74,9.5,299.8,325.0,301.4
825.6,1804,10.8,8.3,84,8.34,75,9.5,299.9,324.7,301.4
825.1,1809,10.8,8.2,84,8.29,75,9.5,300.0,324.6,301.5
824.6,1814,10.8,8.1,84,8.24,75,9.6,300.0,324.5,301.5
824.2,1819,10.8,8.0,83,8.21,75,9.6,300.0,324.5,301.5
823.7,1823,10.8,8.0,83,8.18,75,9.6,300.1,324.4,301.6
823.3,1827,10.8,7.9,82,8.15,76,9.6,300.1,324.4,301.6
822.9,1831,10.8,7.9,82,8.14,76,9.6,300.2,324.4,301.7
822.5,1835,10.8,7.9,82,8.14,76,9.6,300.2,324.5,301.7
822.1,1840,10.7,7.9,83,8.15,76,9.6,300.2,324.5,301.7
821.7,1844,10.7,7.9,83,8.17,77,9.6,300.2,324.6,301.7
821.2,1849,10.7,7.9,83,8.18,77,9.6,300.3,324.6,301.7
820.7,1854,10.6,8.0,83,8.20,77,9.6,300.3,324.7,301.8
820.2,1859,10.6,7.9,83,8.19,77,9.5,300.3,324.7,301.8
819.7,1864,10.6,7.8,83,8.15,78,9.5,300.3,324.6,301.8
819.2,1869,10.5,7.8,83,8.13,78,9.5,300.3,324.5,301.8
