PRES,HGHT,TEMP,DWPT,RELH,MIXR,DRCT,SPED,THTA,THTE,THTV
1010.1,31,21.9,20.9,94,15.58,268,3.3,294.2,338.9,296.9
1009.7,34,22.2,20.9,92,15.59,284,1.9,294.5,339.3,297.3
1009.1,39,22.7,21.1,90,15.78,290,1.7,295.1,340.5,297.9
1008.3,46,23.6,21.3,87,16.01,293,1.7,296.1,342.3,298.9
1007.6,52,24.1,21.1,84,15.86,293,1.8,296.6,342.5,299.4
1007.4,54,24.3,20.9,82,15.68,293,1.9,296.8,342.3,299.6
1006.5,62,24.4,20.9,81,15.68,293,2.0,297.0,342.5,299.8
1005.9,67,24.5,21.0,81,15.71,294,2.1,297.1,342.7,299.9
1005.3,73,24.5,21.0,81,15.75,294,2.2,297.2,342.9,300.0
1004.7,78,24.4,21.0,81,15.81,295,2.2,297.2,343.1,300.0
1004.1,83,24.4,21.0,82,15.83,295,2.3,297.2,343.2,300.0
1003.5,88,24.4,21.0,82,15.84,295,2.3,297.2,343.2,300.0
1003.0,93,24.4,21.0,81,15.79,296,2.4,297.3,343.1,300.1
1002.5,97,24.3,20.8,81,15.63,296,2.4,297.3,342.7,300.0
1002.0,102,24.4,20.5,79,15.33,296,2.5,297.4,341.9,300.1
1001.5,106,24.5,20.1,76,14.94,296,2.5,297.5,341.0,300.2
1001.0,110,24.7,19.7,74,14.60,296,2.5,297.8,340.3,300.4
1000.5,114,24.8,19.6,73,14.47,296,2.5,297.9,340.1,300.5
1000.1,118,24.8,19.6,73,14.52,295,2.5,297.9,340.2,300.5
1000.0,119,24.8,19.6,73,14.53,295,2.5,297.9,340.2,300.5
999.6,122,24.7,19.7,73,14.57,295,2.5,297.9,340.4,300.5
999.1,126,24.7,19.7,74,14.57,294,2.5,297.9,340.4,300.5
998.6,131,24.7,19.7,74,14.58,294,2.5,297.9,340.4,300.5
998.1,135,24.6,19.7,74,14.63,293,2.5,297.9,340.6,300.5
997.6,140,24.6,19.7,75,14.67,292,2.5,297.9,340.7,300.5
997.0,145,24.5,19.7,75,14.66,290,2.6,297.9,340.6,300.5
996.4,150,24.5,19.6,74,14.59,289,2.6,297.9,340.4,300.5
995.8,156,24.4,19.5,74,14.51,288,2.6,297.9,340.2,300.5
995.2,161,24.4,19.4,74,14.43,286,2.6,298.0,340.0,300.5
994.6,166,24.4,19.4,74,14.39,284,2.6,298.0,339.9,300.6
994.0,172,24.4,19.4,74,14.37,283,2.6,298.0,339.9,300.6
993.4,177,24.3,19.4,74,14.38,281,2.7,298.0,339.9,300.6
992.8,182,24.3,19.4,74,14.43,279,2.7,298.0,340.1,300.6
992.3,187,24.2,19.5,75,14.49,278,2.8,298.0,340.2,300.6
991.7,192,24.1,19.5,76,14.55,276,2.8,298.0,340.4,300.6
991.2,197,24.1,19.5,76,14.54,275,2.8,298.0,340.3,300.5
990.6,201,24.0,19.4,75,14.46,273,2.9,298.0,340.1,300.5
990.1,206,24.0,19.3,75,14.38,272,2.9,298.0,339.9,300.6
989.6,211,24.0,19.2,75,14.33,271,3.0,298.0,339.8,300.6
989.1,215,24.0,19.2,75,14.33,270,3.1,298.0,339.8,300.6
988.5,220,23.9,19.2,75,14.33,269,3.1,298.1,339.9,300.6
988.0,224,23.9,19.2,75,14.33,268,3.2,298.1,339.9,300.6
987.6,229,23.8,19.2,75,14.31,268,3.2,298.0,339.8,300.6
987.1,233,23.8,19.2,75,14.31,268,3.2,298.0,339.8,300.6
986.6,237,23.8,19.2,75,14.30,267,3.3,298.0,339.7,300.6
986.2,241,23.7,19.1,75,14.26,267,3.3,298.1,339.7,300.6
985.7,245,23.7,19.1,76,14.28,267,3.4,298.1,339.7,300.6
985.3,249,23.7,19.2,76,14.32,267,3.4,298.1,339.9,300.6
984.9,253,23.6,19.2,76,14.34,268,3.4,298.1,339.9,300.6
984.5,256,23.6,19.1,76,14.31,268,3.4,298.1,339.8,300.6
984.0,260,23.6,19.1,76,14.28,268,3.4,298.1,339.7,300.6
983.6,264,23.5,19.0,76,14.23,269,3.5,298.1,339.6,300.6
983.1,268,23.5,18.9,76,14.16,269,3.5,298.1,339.4,300.6
982.7,272,23.5,18.9,75,14.09,270,3.5,298.1,339.2,300.6
982.2,277,23.5,18.8,75,14.06,270,3.5,298.1,339.2,300.6
981.6,281,23.4,18.8,75,14.04,271,3.5,298.1,339.1,300.7
981.1,286,23.4,18.7,75,14.00,271,3.5,298.2,339.0,300.7
980.6,291,23.4,18.7,75,13.95,272,3.5,298.2,338.9,300.7
980.0,296,23.3,18.6,75,13.88,273,3.5,298.2,338.7,300.6
979.5,301,23.3,18.5,75,13.81,273,3.5,298.2,338.5,300.6
978.9,306,23.2,18.5,75,13.81,274,3.5,298.2,338.5,300.7
978.4,310,23.2,18.5,75,13.87,274,3.5,298.2,338.6,300.6
977.9,315,23.1,18.6,76,13.88,274,3.5,298.1,338.7,300.6
977.4,320,23.1,18.4,75,13.79,274,3.5,298.2,338.4,300.6
976.8,324,23.1,18.3,74,13.65,275,3.5,298.2,338.1,300.6
976.3,329,23.1,18.1,74,13.48,275,3.5,298.2,337.6,300.6
975.8,334,23.0,17.9,73,13.35,275,3.5,298.3,337.3,300.7
975.2,339,23.0,17.8,73,13.30,275,3.5,298.3,337.2,300.7
974.7,343,23.0,17.8,72,13.26,275,3.5,298.4,337.1,300.7
974.2,348,23.0,17.7,72,13.20,274,3.4,298.4,337.0,300.8
973.7,353,23.0,17.7,72,13.16,274,3.4,298.4,336.9,300.7
973.2,357,22.9,17.6,72,13.15,274,3.4,298.4,336.9,300.8
972.7,361,22.9,17.7,72,13.19,273,3.3,298.4,337.0,300.8
972.2,366,22.9,17.7,73,13.22,273,3.3,298.4,337.1,300.8
971.8,370,22.9,17.7,72,13.19,273,3.2,298.4,337.0,300.8
971.3,374,22.9,17.5,72,13.10,272,3.2,298.5,336.8,300.8
970.9,378,23.0,17.5,71,13.05,272,3.1,298.6,336.8,300.9
970.4,382,23.0,17.4,71,13.00,271,3.0,298.7,336.7,301.0
970.0,386,23.0,17.4,71,12.99,271,2.9,298.7,336.7,301.0
969.6,389,22.9,17.4,71,13.01,270,2.8,298.7,336.8,301.0
969.2,393,22.9,17.4,71,13.02,270,2.8,298.7,336.8,301.0
968.7,397,22.9,17.4,71,13.04,269,2.7,298.7,336.9,301.1
968.3,401,22.9,17.4,71,13.05,269,2.6,298.8,337.0,301.1
967.8,405,22.8,17.4,71,13.03,269,2.5,298.8,336.9,301.1
967.4,409,22.8,17.4,71,12.99,268,2.4,298.8,336.8,301.1
966.9,413,22.8,17.3,71,12.97,268,2.3,298.8,336.8,301.1
966.4,418,22.8,17.3,71,12.95,268,2.2,298.8,336.8,301.1
966.0,422,22.7,17.3,71,12.95,268,2.1,298.8,336.8,301.2
965.5,427,22.7,17.3,72,12.98,268,2.0,298.8,336.9,301.2
965.0,431,22.7,17.3,72,12.99,269,1.9,298.9,336.9,301.2
964.5,436,22.7,17.3,72,13.02,270,1.8,298.9,337.1,301.3
963.9,440,22.7,17.3,72,13.03,271,1.7,299.0,337.2,301.3
963.4,445,22.7,17.3,71,13.01,272,1.7,299.1,337.2,301.4
962.9,450,22.7,17.2,71,12.96,273,1.6,299.1,337.1,301.4
962.3,455,22.7,17.2,71,12.90,275,1.6,299.1,337.0,301.4
961.8,460,22.7,17.1,71,12.85,277,1.5,299.1,336.8,301.4
961.3,464,22.6,17.1,71,12.84,280,1.5,299.1,336.8,301.4
960.8,469,22.6,17.1,71,12.83,282,1.4,299.1,336.8,301.4
960.3,474,22.6,17.0,71,12.83,285,1.4,299.2,336.8,301.5
959.8,478,22.5,17.1,71,12.86,287,1.4,299.2,336.9,301.5
959.3,482,22.5,17.1,72,12.89,290,1.4,299.2,337.0,301.5
958.8,487,22.5,17.1,72,12.89,293,1.4,299.2,337.0,301.5
958.3,491,22.5,17.1,71,12.87,296,1.4,299.2,337.0,301.6
957.9,496,22.5,17.1,71,12.87,299,1.4,299.3,337.2,301.7
957.4,500,22.5,17.0,71,12.86,302,1.5,299.4,337.2,301.7
956.9,504,22.5,17.0,71,12.84,304,1.5,299.4,337.1,301.7
956.5,508,22.5,17.0,71,12.83,306,1.5,299.4,337.1,301.7
956.1,512,22.4,16.9,71,12.81,309,1.5,299.4,337.0,301.7
955.7,516,22.4,16.9,71,12.80,311,1.5,299.4,337.0,301.7
955.3,519,22.4,16.9,71,12.81,313,1.5,299.4,337.1,301.7
954.8,523,22.4,16.9,71,12.79,315,1.6,299.4,337.0,301.7
954.4,527,22.4,16.9,71,12.76,317,1.6,299.5,337.0,301.8
954.0,531,22.4,16.8,71,12.69,319,1.6,299.5,336.8,301.8
953.6,534,22.4,16.7,70,12.66,320,1.6,299.6,336.9,301.9
953.2,538,22.5,16.7,70,12.66,322,1.6,299.7,336.9,302.0
952.8,542,22.4,16.7,70,12.65,324,1.6,299.7,336.9,302.0
952.3,546,22.4,16.7,70,12.62,326,1.6,299.7,336.9,302.0
951.9,550,22.4,16.6,70,12.60,327,1.6,299.7,336.8,302.0
951.5,554,22.4,16.6,70,12.61,329,1.6,299.7,336.8,302.0
951.1,557,22.3,16.6,70,12.59,331,1.5,299.7,336.8,302.0
950.7,561,22.3,16.6,70,12.59,332,1.5,299.7,336.8,302.0
950.4,564,22.2,16.6,70,12.59,334,1.5,299.7,336.7,302.0
950.0,568,22.2,16.6,70,12.61,335,1.5,299.7,336.8,302.0
949.6,571,22.2,16.6,71,12.62,336,1.5,299.7,336.9,302.0
949.2,574,22.2,16.6,71,12.61,338,1.4,299.8,336.9,302.0
948.9,578,22.1,16.6,71,12.59,339,1.4,299.7,336.8,302.0
948.5,581,22.1,16.5,71,12.57,340,1.4,299.7,336.7,302.0
948.1,585,22.0,16.5,71,12.58,341,1.4,299.7,336.7,302.0
947.7,589,22.0,16.5,71,12.58,342,1.4,299.7,336.7,302.0
947.3,592,22.0,16.5,71,12.56,342,1.4,299.7,336.7,302.0
946.9,596,22.0,16.5,71,12.55,342,1.4,299.7,336.7,302.0
946.5,599,22.0,16.5,71,12.53,343,1.4,299.8,336.7,302.0
946.2,603,22.0,16.5,71,12.54,343,1.4,299.8,336.7,302.1
945.8,606,21.9,16.5,71,12.55,343,1.4,299.8,336.8,302.1
945.4,610,21.9,16.4,71,12.54,343,1.4,299.8,336.7,302.1
945.0,613,21.9,16.4,71,12.54,343,1.4,299.8,336.8,302.1
944.6,617,21.8,16.4,71,12.54,342,1.5,299.8,336.7,302.1
944.2,621,21.8,16.4,71,12.52,342,1.5,299.8,336.7,302.1
943.8,624,21.8,16.4,71,12.51,341,1.5,299.9,336.7,302.1
943.5,627,21.8,16.4,71,12.49,341,1.5,299.9,336.7,302.1
943.1,631,21.7,16.3,71,12.48,340,1.5,299.9,336.6,302.1
942.8,634,21.7,16.3,71,12.48,340,1.6,299.9,336.6,302.1
942.4,637,21.7,16.3,71,12.48,339,1.6,299.9,336.7,302.1
942.0,641,21.7,16.3,72,12.49,338,1.6,299.9,336.7,302.2
941.7,644,21.7,16.3,72,12.49,338,1.6,299.9,336.7,302.2
941.3,648,21.6,16.3,72,12.50,337,1.6,299.9,336.7,302.2
940.9,651,21.6,16.3,72,12.51,336,1.7,299.9,336.8,302.2
940.5,655,21.6,16.3,72,12.50,336,1.7,299.9,336.7,302.2
940.0,659,21.5,16.2,72,12.45,335,1.7,299.9,336.6,302.2
939.5,664,21.5,16.1,72,12.36,334,1.7,299.9,336.3,302.2
939.1,668,21.5,16.0,71,12.26,333,1.7,300.0,336.1,302.2
938.6,672,21.6,15.9,70,12.20,333,1.8,300.1,336.1,302.3
938.1,677,21.6,15.9,70,12.17,332,1.8,300.1,336.0,302.3
937.7,681,21.5,15.8,70,12.15,331,1.8,300.1,335.9,302.3
937.2,685,21.5,15.8,70,12.14,330,1.8,300.1,336.0,302.3
936.8,689,21.5,15.9,71,12.21,329,1.9,300.1,336.1,302.3
936.3,693,21.4,16.0,71,12.31,328,1.9,300.1,336.4,302.3
935.9,698,21.3,16.1,72,12.36,327,1.9,300.1,336.5,302.3
935.5,702,21.2,16.0,72,12.35,326,2.0,300.1,336.5,302.3
935.0,706,21.2,16.0,72,12.32,325,2.0,300.1,336.4,302.3
934.6,710,21.2,16.0,72,12.29,324,2.1,300.1,336.3,302.3
934.2,714,21.2,15.9,72,12.29,324,2.1,300.1,336.3,302.3
933.7,718,21.1,15.9,72,12.29,323,2.2,300.1,336.4,302.3
933.3,722,21.1,15.9,72,12.30,322,2.3,300.1,336.4,302.3
932.8,726,21.1,15.9,72,12.29,322,2.4,300.1,336.3,302.3
932.3,731,21.0,15.9,73,12.28,322,2.4,300.1,336.3,302.3
931.8,736,21.0,15.9,73,12.27,321,2.5,300.1,336.3,302.3
931.2,741,20.9,15.9,73,12.27,321,2.6,300.1,336.3,302.3
930.7,746,20.9,15.9,73,12.30,321,2.7,300.1,336.3,302.3
930.2,751,20.8,15.9,73,12.29,321,2.8,300.1,336.3,302.3
929.6,756,20.8,15.8,73,12.25,321,2.9,300.1,336.2,302.3
929.0,761,20.7,15.8,73,12.21,321,3.0,300.1,336.1,302.3
928.5,766,20.7,15.7,73,12.15,321,3.1,300.1,336.0,302.3
927.9,772,20.6,15.6,73,12.08,322,3.2,300.1,335.8,302.3
927.3,777,20.6,15.5,72,12.02,322,3.3,300.2,335.7,302.4
926.8,783,20.6,15.5,73,12.06,322,3.4,300.2,335.8,302.4
926.2,788,20.6,15.6,73,12.12,322,3.5,300.2,336.0,302.4
925.5,794,20.5,15.5,73,12.08,322,3.6,300.2,335.9,302.4
925.0,799,20.5,15.5,73,12.03,322,3.6,300.3,335.8,302.4
924.9,800,20.5,15.5,73,12.03,322,3.7,300.3,335.8,302.4
924.3,805,20.5,15.5,73,12.05,322,3.8,300.3,335.8,302.5
923.8,811,20.4,15.5,74,12.09,322,3.9,300.2,335.9,302.4
923.2,816,20.3,15.5,74,12.11,322,4.0,300.2,335.9,302.4
922.7,821,20.2,15.5,74,12.08,322,4.1,300.2,335.8,302.3
922.2,825,20.2,15.4,74,12.04,322,4.1,300.2,335.7,302.4
921.7,830,20.2,15.4,74,12.02,321,4.2,300.2,335.7,302.4
921.2,835,20.1,15.4,74,12.03,321,4.3,300.2,335.7,302.4
920.7,840,20.1,15.4,74,12.02,321,4.4,300.3,335.7,302.4
920.1,845,20.1,15.3,74,11.98,320,4.4,300.3,335.7,302.4
919.6,850,20.0,15.3,74,11.94,320,4.5,300.3,335.5,302.4
919.1,855,20.0,15.2,74,11.94,319,4.6,300.3,335.5,302.4
918.5,860,19.9,15.2,74,11.94,319,4.6,300.3,335.5,302.4
918.0,865,19.9,15.2,74,11.93,318,4.7,300.3,335.5,302.4
917.4,870,19.8,15.2,75,11.92,317,4.7,300.3,335.5,302.4
916.9,875,19.8,15.2,75,11.89,317,4.8,300.3,335.4,302.4
916.3,881,19.8,15.1,74,11.86,316,4.8,300.3,335.3,302.4
915.7,886,19.7,15.0,74,11.82,316,4.8,300.3,335.2,302.4
915.2,891,19.7,15.0,74,11.76,315,4.8,300.3,335.1,302.4
914.7,896,19.7,14.9,74,11.70,315,4.8,300.4,334.9,302.5
914.2,901,19.7,14.8,74,11.67,314,4.8,300.4,334.9,302.5
913.7,905,19.6,14.8,74,11.65,314,4.8,300.4,334.8,302.5
913.3,909,19.6,14.7,73,11.56,313,4.8,300.4,334.6,302.5
912.9,913,19.7,14.5,72,11.42,313,4.8,300.5,334.3,302.6
912.5,917,19.7,14.4,72,11.36,312,4.7,300.6,334.2,302.6
912.1,920,19.6,14.4,72,11.37,311,4.7,300.6,334.2,302.6
911.7,924,19.6,14.4,72,11.39,311,4.6,300.6,334.2,302.6
911.3,928,19.5,14.5,72,11.43,310,4.5,300.6,334.4,302.6
910.8,933,19.5,14.6,73,11.51,310,4.5,300.6,334.6,302.6
910.3,938,19.4,14.6,74,11.58,309,4.4,300.6,334.8,302.6
909.7,943,19.4,14.6,74,11.58,308,4.3,300.5,334.8,302.6
909.1,949,19.3,14.6,74,11.53,307,4.2,300.5,334.7,302.6
908.5,954,19.3,14.5,74,11.50,306,4.2,300.6,334.6,302.6
907.9,960,19.2,14.5,74,11.50,305,4.1,300.6,334.6,302.6
907.2,966,19.1,14.5,74,11.51,304,4.0,300.5,334.5,302.6
906.6,973,19.1,14.4,75,11.48,303,4.0,300.5,334.4,302.6
905.9,979,19.0,14.4,74,11.45,302,4.0,300.5,334.4,302.6
905.3,985,19.0,14.3,75,11.42,300,3.9,300.5,334.3,302.6
904.6,992,18.9,14.3,75,11.39,299,3.9,300.5,334.2,302.6
903.9,998,18.9,14.2,75,11.36,297,3.9,300.6,334.2,302.6
903.2,1005,18.8,14.2,75,11.35,295,3.9,300.6,334.2,302.6
902.5,1012,18.8,14.2,75,11.36,294,4.0,300.6,334.2,302.7
901.8,1018,18.7,14.2,75,11.36,292,4.1,300.6,334.2,302.7
901.1,1025,18.7,14.2,75,11.35,291,4.1,300.6,334.2,302.7
900.4,1032,18.6,14.1,75,11.34,289,4.2,300.6,334.2,302.7
899.7,1038,18.5,14.1,76,11.31,288,4.3,300.6,334.0,302.6
899.1,1044,18.4,14.0,76,11.26,287,4.5,300.6,333.9,302.6
898.4,1050,18.4,14.0,75,11.23,286,4.6,300.6,333.8,302.6
897.8,1056,18.3,14.0,76,11.26,285,4.7,300.6,333.9,302.6
897.2,1062,18.3,14.1,76,11.32,284,4.9,300.6,334.1,302.7
896.6,1068,18.3,14.1,77,11.38,283,5.1,300.6,334.3,302.7
896.0,1073,18.2,14.2,77,11.42,283,5.2,300.6,334.4,302.7
895.4,1079,18.1,14.2,78,11.41,282,5.4,300.6,334.3,302.6
894.9,1085,18.0,14.1,78,11.37,282,5.6,300.6,334.2,302.6
894.3,1090,18.0,14.0,78,11.33,282,5.8,300.6,334.1,302.6
893.7,1096,17.9,14.0,78,11.32,281,5.9,300.6,334.0,302.6
893.1,1101,17.9,14.0,78,11.32,281,6.1,300.6,334.0,302.6
892.6,1106,17.8,14.0,78,11.33,281,6.3,300.5,334.0,302.6
892.0,1112,17.7,14.0,79,11.37,281,6.4,300.5,334.2,302.6
891.4,1118,17.7,14.1,80,11.42,281,6.6,300.5,334.3,302.6
890.9,1123,17.6,14.1,80,11.45,281,6.8,300.5,334.4,302.6
890.3,1129,17.6,14.2,80,11.48,282,6.9,300.5,334.5,302.6
889.7,1134,17.5,14.1,81,11.47,282,7.1,300.5,334.4,302.6
889.1,1140,17.5,14.1,81,11.44,282,7.2,300.5,334.3,302.6
888.5,1146,17.4,14.0,80,11.38,282,7.4,300.5,334.2,302.6
887.9,1151,17.4,13.9,80,11.33,283,7.5,300.6,334.1,302.6
887.4,1157,17.3,13.9,80,11.31,283,7.7,300.6,334.0,302.6
886.8,1162,17.3,13.9,80,11.30,283,7.8,300.6,334.0,302.6
886.3,1167,17.2,13.9,81,11.30,284,7.9,300.6,334.0,302.6
885.7,1172,17.2,13.8,81,11.30,284,8.0,300.6,334.0,302.6
885.2,1177,17.1,13.8,81,11.29,284,8.2,300.5,333.9,302.6
884.8,1182,17.1,13.8,81,11.25,284,8.3,300.5,333.8,302.6
884.3,1186,17.0,13.7,81,11.23,285,8.4,300.5,333.8,302.6
883.8,1191,17.0,13.7,81,11.24,285,8.5,300.6,333.8,302.6
883.4,1195,17.0,13.7,81,11.26,285,8.6,300.6,333.9,302.6
883.0,1199,16.9,13.7,82,11.26,286,8.8,300.6,333.9,302.6
882.5,1204,16.9,13.7,81,11.22,286,8.9,300.6,333.8,302.6
882.0,1208,16.9,13.5,81,11.10,286,9.0,300.6,333.4,302.6
881.5,1213,16.9,13.3,79,10.92,286,9.0,300.7,333.1,302.7
881.0,1218,17.0,13.0,77,10.76,286,9.1,300.8,332.7,302.8
880.4,1224,17.0,12.9,77,10.68,287,9.2,300.9,332.6,302.8
879.9,1229,17.0,12.9,77,10.71,287,9.3,300.9,332.7,302.9
879.3,1235,16.9,13.0,78,10.76,287,9.4,300.9,332.8,302.8
878.6,1241,16.9,13.0,78,10.78,287,9.5,300.9,332.9,302.9
878.0,1247,16.8,12.9,78,10.73,286,9.5,300.9,332.8,302.9
877.4,1253,16.7,12.9,78,10.69,286,9.6,300.9,332.6,302.9
876.8,1260,16.7,12.8,78,10.67,286,9.6,300.9,332.6,302.9
876.2,1265,16.6,12.8,78,10.63,286,9.7,300.9,332.5,302.9
875.6,1271,16.6,12.7,78,10.59,285,9.8,300.9,332.4,302.9
875.0,1276,16.5,12.6,78,10.56,285,9.8,300.9,332.3,302.8
874.5,1281,16.5,12.7,78,10.59,284,9.9,300.9,332.3,302.8
874.0,1286,16.4,12.7,79,10.64,284,9.9,300.9,332.5,302.8
873.6,1290,16.3,12.8,80,10.70,283,10.0,300.9,332.6,302.8
873.1,1295,16.3,12.9,80,10.78,283,10.0,300.9,332.8,302.8
872.6,1300,16.2,13.0,81,10.85,282,10.1,300.9,333.0,302.8
872.2,1304,16.2,13.1,82,10.94,281,10.2,300.8,333.3,302.8
871.7,1309,16.1,13.3,84,11.11,280,10.2,300.8,333.7,302.8
871.2,1314,15.9,13.6,86,11.29,279,10.3,300.7,334.1,302.7
870.7,1319,15.8,13.7,87,11.37,279,10.4,300.6,334.3,302.7
870.1,1324,15.7,13.7,88,11.40,278,10.5,300.6,334.3,302.6
869.6,1330,15.6,13.6,88,11.36,277,10.6,300.6,334.1,302.6
869.0,1335,15.6,13.4,87,11.19,276,10.7,300.6,333.7,302.6
868.5,1341,15.7,13.0,84,10.93,275,10.8,300.7,333.0,302.6
867.9,1346,15.9,12.7,82,10.71,274,10.9,300.9,332.7,302.9
867.4,1351,16.0,12.6,80,10.63,273,11.0,301.1,332.7,303.1
866.8,1357,16.0,12.6,80,10.63,272,11.1,301.2,332.8,303.1
866.3,1362,15.9,12.7,81,10.72,272,11.2,301.1,333.0,303.1
865.8,1367,15.8,12.8,83,10.81,271,11.4,301.1,333.1,303.0
865.2,1372,15.6,12.8,84,10.83,270,11.5,301.0,333.1,302.9
864.7,1377,15.6,12.7,83,10.76,270,11.6,301.0,332.9,302.9
864.2,1382,15.6,12.5,82,10.61,269,11.7,301.0,332.5,303.0
863.7,1387,15.7,12.4,81,10.53,268,11.9,301.2,332.5,303.1
863.2,1393,15.7,12.3,80,10.48,268,12.0,301.3,332.4,303.2
862.6,1398,15.7,12.3,80,10.45,267,12.1,301.3,332.4,303.2
862.1,1403,15.7,12.2,80,10.44,267,12.2,301.4,332.5,303.3
861.6,1408,15.7,12.2,80,10.43,266,12.3,301.4,332.4,303.3
861.1,1413,15.7,12.2,80,10.39,266,12.3,301.4,332.3,303.3
860.6,1418,15.6,12.1,79,10.35,266,12.4,301.4,332.2,303.3
860.1,1423,15.6,12.0,79,10.32,265,12.5,301.4,332.1,303.3
859.6,1427,15.6,12.0,79,10.31,265,12.5,301.5,332.1,303.3
859.1,1432,15.5,12.0,79,10.29,265,12.5,301.5,332.1,303.4
858.6,1437,15.5,12.0,80,10.32,264,12.6,301.5,332.2,303.4
858.1,1442,15.5,12.1,80,10.38,264,12.6,301.5,332.4,303.4
857.6,1448,15.4,12.1,81,10.41,264,12.6,301.5,332.5,303.4
857.1,1453,15.3,12.1,81,10.39,263,12.6,301.5,332.4,303.4
856.5,1458,15.3,12.0,81,10.36,263,12.6,301.5,332.3,303.4
856.0,1464,15.2,12.0,81,10.33,263,12.5,301.5,332.2,303.4
855.4,1469,15.2,11.9,80,10.26,262,12.5,301.5,332.0,303.4
854.9,1474,15.2,11.7,80,10.17,262,12.5,301.5,331.8,303.4
854.4,1480,15.2,11.6,79,10.12,262,12.4,301.6,331.8,303.5
853.9,1484,15.2,11.6,79,10.11,261,12.4,301.7,331.8,303.5
853.4,1489,15.1,11.6,80,10.13,261,12.3,301.6,331.8,303.5
852.9,1494,15.0,11.6,80,10.14,261,12.3,301.6,331.8,303.4
852.5,1499,15.0,11.6,80,10.11,260,12.3,301.6,331.7,303.4
852.0,1503,15.0,11.6,80,10.10,260,12.2,301.6,331.7,303.5
851.5,1508,15.0,11.6,80,10.13,260,12.2,301.7,331.9,303.6
851.1,1513,15.0,11.7,80,10.18,259,12.2,301.8,332.1,303.6
850.6,1518,15.0,11.7,81,10.20,259,12.1,301.8,332.1,303.6
850.0,1523,14.9,11.7,81,10.19,258,12.1,301.8,332.1,303.6
849.5,1528,14.9,11.6,81,10.18,258,12.1,301.8,332.1,303.6
849.0,1533,14.8,11.6,81,10.16,258,12.1,301.8,332.1,303.6
848.5,1538,14.8,11.6,81,10.17,258,12.1,301.8,332.1,303.6
847.9,1544,14.7,11.6,82,10.20,258,12.1,301.8,332.1,303.6
847.4,1549,14.7,11.7,82,10.22,257,12.1,301.8,332.2,303.6
846.9,1554,14.6,11.7,83,10.26,257,12.2,301.8,332.4,303.6
846.4,1559,14.6,11.8,83,10.33,257,12.2,301.8,332.6,303.7
845.9,1564,14.6,11.9,84,10.39,257,12.2,301.8,332.8,303.7
845.4,1569,14.5,12.0,85,10.46,257,12.3,301.8,333.0,303.7
845.0,1574,14.5,12.1,85,10.53,256,12.3,301.8,333.2,303.7
844.5,1578,14.5,12.1,85,10.55,256,12.4,301.9,333.3,303.8
844.0,1583,14.5,12.0,85,10.51,256,12.4,301.9,333.2,303.8
843.5,1588,14.4,11.9,85,10.44,256,12.5,301.9,333.0,303.8
843.0,1593,14.4,11.8,84,10.34,256,12.5,301.9,332.7,303.8
842.6,1598,14.4,11.6,83,10.21,255,12.6,302.0,332.4,303.8
842.1,1603,14.5,11.4,82,10.10,255,12.6,302.1,332.2,303.9
841.6,1608,14.5,11.1,80,9.93,255,12.7,302.2,331.9,304.0
841.1,1612,14.6,10.9,79,9.79,255,12.7,302.3,331.6,304.1
840.6,1617,14.6,10.8,78,9.73,255,12.8,302.4,331.5,304.1
840.2,1622,14.6,10.8,78,9.72,254,12.8,302.4,331.5,304.2
839.8,1626,14.5,10.7,78,9.70,254,12.8,302.4,331.4,304.1
839.3,1630,14.5,10.7,78,9.66,254,12.9,302.4,331.3,304.2
838.9,1635,14.5,10.6,78,9.64,254,12.9,302.4,331.3,304.2
838.5,1639,14.4,10.6,78,9.65,254,13.0,302.4,331.3,304.2
838.0,1644,14.4,10.7,78,9.70,254,13.0,302.5,331.5,304.2
837.5,1648,14.4,10.8,79,9.77,254,13.0,302.5,331.7,304.3
837.1,1653,14.3,10.9,80,9.81,253,13.1,302.5,331.8,304.3
836.6,1658,14.3,10.8,80,9.79,253,13.1,302.5,331.8,304.3
836.1,1663,14.3,10.7,79,9.70,253,13.1,302.5,331.5,304.3
835.6,1668,14.2,10.5,78,9.57,253,13.2,302.5,331.2,304.3
835.2,1672,14.2,10.2,77,9.40,253,13.2,302.5,330.7,304.3
834.7,1677,14.2,9.9,75,9.20,253,13.3,302.6,330.2,304.3
834.2,1682,14.3,9.5,73,8.99,253,13.3,302.7,329.7,304.3
833.8,1686,14.3,9.3,72,8.85,253,13.3,302.7,329.3,304.4
833.3,1691,14.3,9.3,72,8.85,253,13.4,302.8,329.4,304.4
832.8,1696,14.3,9.5,73,8.97,253,13.4,302.8,329.8,304.5
832.3,1701,14.2,9.7,74,9.09,253,13.5,302.8,330.1,304.5
831.8,1706,14.2,9.7,75,9.15,253,13.5,302.8,330.3,304.5
831.4,1711,14.1,9.7,75,9.15,253,13.6,302.8,330.3,304.5
830.9,1716,14.1,9.7,75,9.14,252,13.6,302.9,330.3,304.6
830.4,1721,14.1,9.7,74,9.12,252,13.7,303.0,330.4,304.6
