PRES,HGHT,TEMP,DWPT,RELH,MIXR,DRCT,SPED,THTA,THTE,THTV
1015.4,31,24.9,21.0,79,15.63,73,3.0,296.8,342.1,299.5
1014.9,35,24.6,21.6,83,16.24,65,1.5,296.5,343.5,299.4
1014.3,40,24.3,21.4,84,16.00,55,0.9,296.3,342.6,299.1
1013.7,45,24.1,21.2,84,15.84,51,0.9,296.1,341.8,298.9
1013.3,48,23.9,21.1,84,15.69,52,1.0,296.0,341.3,298.7
1012.9,52,23.9,21.0,84,15.60,54,1.1,296.0,341.0,298.7
1012.0,60,24.0,21.0,83,15.62,56,1.3,296.1,341.3,298.9
1011.6,64,24.0,20.9,83,15.58,57,1.4,296.2,341.2,298.9
1011.0,68,23.9,20.7,82,15.34,57,1.5,296.2,340.5,298.9
1010.5,73,23.8,20.4,81,15.06,58,1.7,296.1,339.6,298.7
1010.0,78,23.7,20.3,81,14.98,58,1.8,296.0,339.2,298.6
1009.4,83,23.5,20.3,82,15.02,58,1.9,295.9,339.3,298.5
1008.8,88,23.5,20.4,82,15.08,59,2.0,295.9,339.5,298.6
1008.2,93,23.6,20.4,82,15.13,59,2.1,296.0,339.7,298.7
1007.6,99,23.8,20.7,83,15.45,59,2.2,296.3,341.0,299.0
1006.9,104,23.9,20.8,83,15.51,60,2.3,296.5,341.3,299.2
1006.2,111,23.8,20.6,82,15.39,60,2.4,296.4,341.0,299.2
1005.5,117,23.5,20.3,82,15.05,60,2.5,296.2,339.7,298.9
1004.8,123,23.2,20.0,82,14.83,60,2.6,296.0,338.8,298.6
1004.1,129,23.1,20.1,83,14.90,61,2.7,295.9,339.0,298.6
1003.4,134,23.1,20.2,83,14.97,61,2.8,296.0,339.2,298.6
1002.8,140,23.0,20.2,84,15.02,62,2.8,295.9,339.3,298.6
1002.2,145,22.9,20.3,85,15.10,63,2.9,295.9,339.5,298.5
1001.6,150,22.8,20.3,86,15.13,63,2.9,295.8,339.5,298.5
1001.1,155,22.8,20.3,86,15.12,64,3.0,295.8,339.5,298.5
1000.5,160,22.8,20.2,85,15.02,65,3.0,295.9,339.2,298.5
1000.0,164,22.7,20.0,85,14.89,67,3.0,295.9,338.9,298.5
999.5,169,22.7,20.0,84,14.86,67,3.0,295.9,338.9,298.6
999.0,173,22.7,20.0,85,14.94,69,3.1,295.9,339.1,298.6
998.5,177,22.7,20.2,86,15.05,70,3.1,295.9,339.4,298.6
998.0,182,22.6,20.2,87,15.11,72,3.1,295.9,339.5,298.6
997.5,186,22.5,20.1,86,15.02,74,3.1,295.9,339.2,298.5
997.0,190,22.5,19.9,85,14.83,75,3.2,295.9,338.8,298.5
996.5,195,22.5,19.8,85,14.76,77,3.2,295.9,338.6,298.6
995.9,200,22.5,19.8,85,14.71,79,3.2,296.0,338.5,298.6
995.4,205,22.4,19.6,84,14.61,81,3.3,296.0,338.2,298.6
994.8,210,22.4,19.4,83,14.43,83,3.3,296.0,337.7,298.6
994.2,215,22.4,19.1,82,14.16,85,3.4,296.1,337.0,298.6
993.6,220,22.5,18.8,80,13.91,87,3.4,296.1,336.4,298.6
993.1,225,22.4,18.8,80,13.89,89,3.5,296.2,336.4,298.6
992.5,230,22.4,18.6,79,13.74,91,3.6,296.2,336.0,298.7
992.0,235,22.5,18.2,77,13.36,93,3.6,296.3,335.0,298.7
991.5,239,22.5,17.8,75,13.04,94,3.7,296.4,334.2,298.7
990.9,244,22.6,17.5,73,12.79,96,3.8,296.5,333.6,298.8
990.4,248,22.6,17.2,71,12.54,97,3.9,296.6,333.0,298.8
989.9,253,22.6,16.9,70,12.34,98,3.9,296.6,332.5,298.8
989.3,258,22.6,16.6,69,12.12,99,4.0,296.7,331.9,298.9
988.8,263,22.7,16.4,68,11.95,100,4.1,296.8,331.5,298.9
988.2,268,22.7,16.3,67,11.85,101,4.1,296.8,331.3,299.0
987.7,273,22.7,16.1,66,11.72,102,4.2,296.9,331.0,299.0
987.1,278,22.7,15.8,65,11.54,103,4.2,296.9,330.6,299.0
986.6,283,22.7,15.6,64,11.38,103,4.2,297.0,330.2,299.1
986.0,287,22.8,15.4,63,11.23,104,4.3,297.1,329.8,299.1
985.5,292,22.8,15.2,62,11.09,104,4.3,297.2,329.6,299.2
985.0,297,22.9,15.1,61,10.99,105,4.3,297.3,329.4,299.3
984.4,301,22.9,15.0,61,10.97,105,4.3,297.4,329.5,299.4
983.9,306,22.9,15.0,61,10.99,106,4.3,297.5,329.6,299.4
983.4,311,22.9,15.0,61,10.99,106,4.3,297.5,329.6,299.4
982.9,315,22.9,15.0,61,10.97,106,4.3,297.5,329.5,299.4
982.3,320,22.8,15.0,61,10.98,106,4.2,297.5,329.6,299.5
981.8,325,22.8,15.0,61,10.98,107,4.2,297.5,329.6,299.5
981.3,329,22.8,15.0,61,10.96,107,4.2,297.5,329.6,299.5
980.7,334,22.7,14.9,61,10.92,107,4.2,297.5,329.5,299.5
980.2,339,22.7,14.8,61,10.85,107,4.1,297.6,329.3,299.5
979.7,343,22.7,14.7,61,10.80,107,4.1,297.6,329.2,299.5
979.2,348,22.7,14.6,60,10.76,107,4.1,297.7,329.2,299.6
978.7,352,22.8,14.6,60,10.74,107,4.0,297.7,329.2,299.6
978.2,357,22.8,14.6,60,10.72,107,4.0,297.8,329.2,299.7
977.7,361,22.8,14.6,60,10.73,107,4.0,297.8,329.3,299.8
977.2,366,22.8,14.7,60,10.81,107,4.0,297.9,329.5,299.8
976.6,371,22.8,14.7,61,10.86,107,3.9,297.9,329.7,299.9
976.0,376,22.7,14.8,61,10.87,107,3.9,297.9,329.8,299.9
975.5,381,22.7,14.8,61,10.89,107,3.9,297.9,329.8,299.9
974.9,386,22.6,14.8,61,10.93,107,3.9,297.9,329.9,299.9
974.3,391,22.6,14.9,62,11.01,107,3.9,297.9,330.2,299.9
973.8,396,22.5,15.0,63,11.10,107,3.9,297.9,330.4,299.9
973.2,401,22.5,15.1,63,11.14,107,3.8,297.9,330.6,299.9
972.7,406,22.5,15.1,63,11.16,107,3.8,297.9,330.6,299.9
972.2,410,22.4,15.1,63,11.15,107,3.8,298.0,330.6,299.9
971.7,414,22.4,15.0,63,11.12,107,3.8,298.0,330.5,299.9
971.2,419,22.3,15.0,63,11.11,107,3.8,298.0,330.5,300.0
970.7,423,22.3,15.0,63,11.12,106,3.8,298.0,330.5,300.0
970.2,428,22.3,15.0,64,11.13,106,3.7,298.0,330.5,300.0
969.7,433,22.2,15.0,64,11.13,106,3.7,298.0,330.5,300.0
969.1,438,22.2,15.0,64,11.13,106,3.7,298.0,330.6,300.0
968.6,443,22.1,15.0,64,11.16,106,3.7,298.0,330.6,300.0
968.0,448,22.1,15.0,64,11.16,106,3.6,298.0,330.6,300.0
967.4,454,22.0,15.0,64,11.12,106,3.6,297.9,330.5,299.9
966.8,459,21.9,14.9,64,11.06,106,3.5,298.0,330.3,299.9
966.2,464,21.9,14.8,64,11.04,106,3.5,298.0,330.3,299.9
965.6,470,21.8,14.8,64,11.04,106,3.5,297.9,330.3,299.9
965.0,475,21.8,14.8,65,11.05,106,3.4,297.9,330.3,299.9
964.5,480,21.7,14.8,65,11.07,106,3.3,298.0,330.4,299.9
963.9,485,21.7,14.9,65,11.09,105,3.3,298.0,330.4,299.9
963.4,490,21.7,14.9,65,11.13,105,3.2,298.0,330.5,300.0
962.9,494,21.6,14.9,66,11.14,105,3.2,298.0,330.6,299.9
962.3,499,21.6,14.9,66,11.15,105,3.1,298.0,330.6,300.0
961.8,504,21.5,14.9,66,11.17,105,3.0,298.0,330.7,300.0
961.3,509,21.5,15.0,66,11.19,105,2.9,298.0,330.7,300.0
960.7,514,21.4,15.0,67,11.25,104,2.9,298.0,330.9,300.0
960.2,518,21.4,15.1,68,11.33,104,2.8,297.9,331.1,300.0
959.7,523,21.3,15.2,68,11.36,104,2.7,297.9,331.2,300.0
959.2,527,21.3,15.1,68,11.35,103,2.6,297.9,331.1,300.0
958.7,532,21.2,15.1,68,11.31,103,2.6,297.9,331.0,300.0
958.2,537,21.2,15.1,68,11.30,102,2.5,297.9,331.0,300.0
957.7,541,21.1,15.0,68,11.29,102,2.4,297.9,331.0,300.0
957.2,546,21.1,15.0,68,11.27,101,2.4,298.0,330.9,300.0
956.6,551,21.1,15.0,68,11.27,101,2.3,298.0,330.9,300.0
956.1,555,21.0,15.0,69,11.32,100,2.2,297.9,331.1,300.0
955.6,560,21.0,15.1,69,11.36,99,2.2,297.9,331.2,300.0
955.0,565,20.9,15.1,70,11.40,99,2.1,297.9,331.3,300.0
954.5,570,20.8,15.1,70,11.41,98,2.0,297.9,331.3,300.0
953.9,575,20.8,15.1,70,11.37,98,2.0,297.9,331.2,300.0
953.4,580,20.8,15.0,70,11.34,98,1.9,297.9,331.1,300.0
952.9,585,20.7,15.0,70,11.35,98,1.9,297.9,331.1,300.0
952.4,589,20.7,15.1,70,11.38,97,1.8,297.9,331.2,300.0
951.9,594,20.6,15.1,71,11.41,98,1.7,297.9,331.3,300.0
951.4,599,20.6,15.1,71,11.45,98,1.7,297.9,331.4,300.0
950.8,603,20.5,15.2,71,11.46,98,1.6,297.9,331.5,300.0
950.3,608,20.5,15.1,71,11.45,99,1.6,297.9,331.4,300.0
949.8,613,20.4,15.1,72,11.44,99,1.5,297.9,331.4,300.0
949.3,617,20.4,15.1,72,11.44,101,1.5,297.9,331.4,300.0
948.8,622,20.3,15.1,72,11.41,102,1.4,297.9,331.3,300.0
948.2,627,20.3,15.0,72,11.39,104,1.4,297.9,331.2,300.0
947.7,632,20.3,15.0,72,11.39,106,1.3,297.9,331.3,300.0
947.2,637,20.2,15.0,72,11.42,108,1.3,297.9,331.3,300.0
946.6,642,20.2,15.1,72,11.45,111,1.3,297.9,331.4,300.0
946.1,647,20.1,15.1,73,11.45,113,1.2,297.9,331.4,300.0
945.5,652,20.1,15.1,73,11.45,117,1.2,297.9,331.4,300.0
945.0,657,20.0,15.0,73,11.44,120,1.2,297.9,331.4,300.0
944.4,662,20.0,15.0,73,11.45,124,1.1,297.9,331.4,300.0
943.8,667,19.9,15.1,74,11.47,128,1.1,297.9,331.5,300.0
943.2,673,19.9,15.1,74,11.50,132,1.1,297.9,331.6,300.0
942.7,678,19.8,15.1,74,11.51,136,1.1,297.9,331.6,300.0
942.1,683,19.8,15.1,74,11.52,140,1.1,297.9,331.6,300.0
941.5,688,19.7,15.1,75,11.53,144,1.1,298.0,331.7,300.0
941.0,693,19.7,15.1,75,11.53,148,1.1,298.0,331.7,300.0
940.5,698,19.7,15.1,75,11.54,151,1.1,298.0,331.7,300.0
939.9,703,19.6,15.1,75,11.54,155,1.2,298.0,331.7,300.0
939.4,708,19.6,15.1,75,11.54,158,1.2,298.0,331.7,300.0
938.8,713,19.5,15.1,75,11.54,162,1.2,298.0,331.7,300.1
938.2,718,19.5,15.0,75,11.51,164,1.3,298.0,331.7,300.1
937.7,724,19.5,15.0,75,11.50,167,1.3,298.1,331.7,300.1
937.1,729,19.5,15.0,75,11.51,169,1.4,298.1,331.8,300.1
936.6,734,19.4,15.0,76,11.51,171,1.4,298.1,331.8,300.1
936.0,739,19.4,15.0,76,11.51,173,1.5,298.1,331.8,300.2
935.5,744,19.3,14.9,76,11.49,175,1.6,298.1,331.7,300.1
934.9,749,19.3,14.9,76,11.49,177,1.6,298.1,331.7,300.2
934.4,754,19.2,14.9,76,11.51,178,1.7,298.1,331.8,300.2
933.9,759,19.2,15.0,77,11.54,179,1.7,298.1,331.9,300.2
933.3,764,19.1,15.0,77,11.56,180,1.8,298.1,331.9,300.2
932.8,769,19.1,15.0,77,11.56,181,1.9,298.1,331.9,300.2
932.3,774,19.1,14.9,77,11.53,182,1.9,298.1,331.9,300.2
931.7,779,19.0,14.9,77,11.50,183,2.0,298.1,331.8,300.2
931.2,784,19.0,14.9,77,11.48,183,2.1,298.1,331.7,300.2
930.6,789,18.9,14.9,77,11.49,184,2.1,298.2,331.8,300.2
930.1,794,18.9,14.9,77,11.52,184,2.1,298.2,331.9,300.2
929.6,799,18.9,14.9,78,11.55,185,2.2,298.2,332.0,300.2
929.0,804,18.8,14.9,78,11.57,185,2.2,298.1,332.0,300.2
928.5,808,18.7,14.9,78,11.56,186,2.2,298.1,332.0,300.2
928.0,813,18.7,14.8,78,11.51,186,2.2,298.2,331.9,300.2
927.5,817,18.7,14.8,78,11.45,186,2.2,298.2,331.7,300.2
927.1,822,18.7,14.7,78,11.42,187,2.2,298.2,331.6,300.3
926.6,826,18.7,14.7,78,11.40,187,2.2,298.2,331.6,300.3
926.2,830,18.6,14.6,78,11.38,187,2.2,298.2,331.6,300.3
925.8,834,18.6,14.6,78,11.37,188,2.1,298.2,331.5,300.3
925.4,838,18.6,14.6,78,11.36,188,2.1,298.2,331.5,300.3
925.0,841,18.5,14.6,78,11.37,188,2.1,298.2,331.5,300.3
924.9,842,18.5,14.6,78,11.37,189,2.0,298.2,331.6,300.3
924.5,846,18.5,14.6,78,11.38,189,2.0,298.3,331.6,300.3
924.1,850,18.5,14.6,78,11.38,190,1.9,298.3,331.6,300.3
923.6,854,18.4,14.6,78,11.40,191,1.8,298.3,331.6,300.3
923.2,858,18.4,14.6,79,11.40,191,1.8,298.3,331.6,300.3
922.7,862,18.3,14.6,79,11.40,192,1.7,298.3,331.7,300.3
922.3,866,18.3,14.6,79,11.39,194,1.6,298.3,331.6,300.3
921.9,870,18.3,14.6,79,11.38,195,1.6,298.3,331.6,300.3
921.4,874,18.2,14.5,79,11.37,196,1.5,298.3,331.6,300.3
921.0,878,18.2,14.5,79,11.38,198,1.5,298.3,331.6,300.3
920.6,882,18.2,14.5,79,11.37,200,1.4,298.3,331.6,300.3
920.1,886,18.1,14.5,79,11.38,202,1.4,298.3,331.6,300.3
919.6,891,18.1,14.5,80,11.38,205,1.4,298.3,331.6,300.3
919.1,896,18.1,14.5,80,11.38,207,1.4,298.3,331.7,300.4
918.6,901,18.0,14.5,80,11.40,209,1.4,298.3,331.7,300.4
918.0,906,18.0,14.5,80,11.40,211,1.5,298.3,331.7,300.4
917.4,911,18.0,14.5,80,11.37,213,1.5,298.4,331.7,300.4
916.9,917,17.9,14.4,80,11.34,215,1.6,298.4,331.6,300.4
916.3,922,17.9,14.4,80,11.34,216,1.6,298.4,331.6,300.4
915.8,927,17.8,14.4,80,11.34,217,1.7,298.4,331.6,300.4
915.2,932,17.8,14.4,81,11.37,218,1.8,298.4,331.7,300.5
914.7,937,17.8,14.5,81,11.40,219,1.9,298.5,331.9,300.5
914.2,941,17.8,14.5,81,11.40,220,2.0,298.5,331.9,300.5
913.8,946,17.8,14.4,81,11.38,220,2.2,298.5,331.9,300.6
913.3,950,17.8,14.4,81,11.37,220,2.3,298.5,331.9,300.6
912.9,954,17.7,14.4,81,11.37,220,2.4,298.5,331.9,300.6
912.4,959,17.7,14.4,81,11.41,221,2.5,298.5,332.0,300.6
911.9,963,17.7,14.5,82,11.48,221,2.6,298.6,332.2,300.6
911.4,968,17.6,14.6,82,11.54,221,2.7,298.6,332.4,300.7
910.9,973,17.6,14.7,83,11.60,221,2.8,298.6,332.6,300.7
910.4,978,17.5,14.7,84,11.66,221,2.9,298.6,332.8,300.7
909.8,983,17.5,14.8,84,11.70,220,3.0,298.6,332.9,300.7
909.2,988,17.5,14.8,84,11.69,220,3.1,298.6,332.9,300.7
908.7,994,17.4,14.7,84,11.65,220,3.1,298.6,332.8,300.7
908.1,999,17.4,14.7,84,11.65,220,3.2,298.6,332.8,300.7
907.5,1004,17.3,14.7,84,11.65,220,3.2,298.7,332.8,300.7
907.0,1009,17.3,14.7,84,11.65,220,3.2,298.7,332.8,300.8
906.5,1014,17.3,14.6,85,11.64,219,3.2,298.7,332.8,300.8
906.1,1018,17.2,14.7,85,11.66,219,3.2,298.7,332.9,300.8
905.6,1023,17.2,14.7,86,11.73,219,3.1,298.7,333.0,300.8
905.1,1027,17.1,14.8,86,11.76,219,3.1,298.7,333.2,300.8
904.7,1031,17.1,14.8,86,11.75,220,3.0,298.7,333.1,300.8
904.2,1036,17.1,14.7,86,11.71,220,2.9,298.7,333.0,300.8
903.8,1040,17.0,14.7,86,11.69,220,2.8,298.7,332.9,300.8
903.3,1044,17.0,14.7,86,11.69,220,2.7,298.7,332.9,300.8
902.9,1048,16.9,14.6,86,11.68,221,2.6,298.7,332.9,300.8
902.4,1053,16.9,14.7,87,11.71,221,2.4,298.7,333.0,300.8
902.0,1057,16.9,14.7,87,11.74,222,2.3,298.7,333.1,300.8
901.5,1061,16.8,14.8,88,11.79,223,2.2,298.7,333.2,300.8
901.1,1065,16.8,14.8,88,11.82,225,2.0,298.7,333.3,300.8
900.6,1070,16.7,14.8,88,11.84,226,1.9,298.7,333.4,300.8
900.2,1074,16.7,14.8,89,11.85,228,1.8,298.7,333.4,300.8
899.7,1078,16.7,14.8,89,11.85,231,1.7,298.7,333.4,300.8
899.2,1083,16.6,14.8,89,11.88,234,1.6,298.7,333.5,300.8
898.8,1088,16.6,14.9,90,11.91,237,1.5,298.7,333.6,300.8
898.3,1092,16.5,14.8,90,11.89,241,1.4,298.7,333.5,300.8
897.8,1097,16.5,14.8,89,11.84,245,1.4,298.7,333.4,300.8
897.3,1101,16.5,14.7,89,11.81,249,1.3,298.7,333.3,300.8
896.9,1106,16.4,14.7,89,11.80,254,1.3,298.7,333.3,300.9
896.4,1110,16.4,14.7,90,11.83,258,1.3,298.8,333.4,300.9
895.9,1114,16.4,14.7,90,11.85,262,1.3,298.8,333.5,300.9
895.5,1119,16.4,14.7,90,11.85,265,1.3,298.8,333.6,300.9
895.0,1123,16.3,14.7,90,11.86,268,1.4,298.8,333.6,300.9
894.6,1127,16.3,14.7,90,11.85,270,1.4,298.8,333.6,300.9
894.1,1132,16.3,14.7,90,11.85,271,1.5,298.8,333.6,301.0
893.7,1136,16.2,14.7,91,11.86,272,1.5,298.8,333.6,301.0
893.3,1140,16.2,14.7,91,11.88,273,1.6,298.8,333.7,301.0
892.9,1144,16.2,14.7,91,11.89,273,1.7,298.9,333.7,301.0
892.4,1148,16.2,14.8,91,11.91,273,1.7,298.9,333.8,301.0
892.0,1152,16.1,14.7,91,11.91,273,1.8,298.9,333.8,301.0
891.5,1156,16.1,14.7,91,11.90,273,1.9,298.9,333.8,301.0
891.1,1161,16.1,14.7,92,11.90,272,2.0,298.9,333.8,301.1
890.5,1166,16.0,14.7,92,11.91,272,2.0,298.9,333.9,301.1
890.0,1171,16.0,14.7,92,11.94,271,2.1,298.9,334.0,301.1
889.5,1176,16.0,14.8,93,11.98,270,2.2,299.0,334.1,301.1
888.9,1181,16.0,14.8,93,12.02,269,2.3,299.0,334.3,301.2
888.4,1187,16.0,14.8,93,12.02,268,2.3,299.1,334.3,301.2
887.8,1192,16.0,14.8,93,12.01,267,2.4,299.1,334.4,301.3
887.3,1197,16.0,14.8,93,12.00,267,2.5,299.2,334.4,301.3
886.8,1202,15.9,14.8,93,11.99,266,2.6,299.2,334.4,301.3
886.3,1207,15.9,14.7,93,11.98,265,2.7,299.2,334.4,301.3
885.8,1212,15.9,14.7,93,11.96,265,2.7,299.2,334.3,301.4
885.3,1216,15.9,14.6,92,11.91,264,2.8,299.2,334.2,301.4
884.8,1221,15.9,14.6,92,11.88,264,2.9,299.3,334.2,301.4
884.3,1226,15.8,14.6,92,11.88,264,3.0,299.3,334.2,301.4
883.8,1231,15.8,14.6,93,11.89,263,3.1,299.3,334.3,301.5
883.3,1236,15.8,14.6,93,11.90,263,3.2,299.3,334.3,301.5
882.8,1240,15.7,14.6,93,11.92,263,3.2,299.4,334.4,301.5
882.3,1245,15.7,14.6,93,11.95,263,3.3,299.4,334.5,301.5
881.8,1250,15.7,14.6,93,11.96,263,3.4,299.4,334.6,301.6
881.3,1255,15.7,14.6,94,11.98,263,3.5,299.4,334.6,301.6
880.8,1259,15.6,14.6,94,11.98,263,3.6,299.4,334.6,301.6
880.3,1264,15.6,14.6,94,11.97,264,3.7,299.4,334.6,301.6
879.9,1269,15.5,14.6,94,11.96,264,3.8,299.4,334.6,301.6
879.4,1274,15.5,14.6,94,11.93,264,3.9,299.4,334.5,301.6
878.9,1278,15.4,14.5,94,11.91,264,4.0,299.4,334.4,301.6
878.4,1283,15.4,14.5,94,11.91,265,4.0,299.4,334.4,301.6
877.9,1288,15.4,14.5,95,11.91,265,4.1,299.4,334.4,301.6
877.4,1293,15.3,14.5,95,11.89,265,4.2,299.4,334.4,301.6
876.9,1298,15.3,14.4,95,11.88,265,4.3,299.5,334.4,301.6
876.4,1303,15.3,14.4,95,11.86,265,4.3,299.5,334.4,301.6
875.9,1307,15.3,14.4,95,11.85,266,4.4,299.5,334.4,301.7
875.4,1312,15.2,14.4,95,11.85,266,4.4,299.6,334.4,301.7
874.9,1317,15.2,14.4,95,11.85,266,4.5,299.6,334.5,301.7
874.4,1321,15.2,14.4,95,11.85,266,4.5,299.6,334.5,301.8
874.0,1326,15.2,14.3,95,11.83,266,4.5,299.6,334.5,301.8
873.5,1331,15.1,14.3,95,11.80,266,4.6,299.6,334.4,301.8
873.0,1335,15.1,14.2,95,11.78,266,4.6,299.6,334.3,301.8
872.6,1340,15.1,14.2,95,11.78,266,4.6,299.7,334.3,301.8
872.1,1344,15.0,14.2,95,11.78,265,4.5,299.7,334.3,301.8
871.7,1348,15.0,14.2,95,11.78,265,4.5,299.7,334.4,301.8
871.2,1352,15.0,14.2,95,11.79,265,4.5,299.7,334.4,301.8
870.8,1357,15.0,14.2,95,11.79,265,4.4,299.7,334.4,301.8
870.4,1361,14.9,14.2,96,11.80,264,4.4,299.7,334.5,301.8
869.9,1365,14.9,14.2,96,11.80,264,4.3,299.7,334.5,301.9
869.5,1370,14.9,14.2,96,11.78,263,4.3,299.7,334.4,301.9
869.0,1374,14.8,14.1,96,11.74,263,4.2,299.8,334.3,301.9
868.6,1379,14.8,14.0,95,11.68,262,4.2,299.8,334.2,301.9
868.1,1383,14.8,13.9,95,11.60,261,4.1,299.8,334.0,301.9
867.6,1388,14.8,13.8,94,11.50,261,4.0,299.8,333.7,301.9
867.2,1392,14.7,13.8,94,11.50,260,4.0,299.8,333.7,301.9
866.7,1397,14.7,13.8,95,11.56,259,3.9,299.8,333.9,301.9
866.2,1402,14.6,13.9,95,11.58,258,3.8,299.8,334.0,301.9
865.7,1406,14.6,13.8,95,11.55,257,3.8,299.8,333.9,301.9
865.2,1411,14.6,13.7,95,11.49,257,3.7,299.9,333.7,301.9
864.7,1416,14.5,13.6,94,11.42,256,3.7,299.9,333.5,301.9
864.2,1421,14.5,13.6,94,11.41,255,3.7,299.9,333.5,301.9
863.7,1426,14.4,13.6,95,11.43,255,3.6,299.9,333.6,301.9
863.2,1431,14.4,13.6,95,11.44,254,3.6,299.9,333.6,302.0
862.7,1436,14.4,13.6,95,11.42,253,3.6,299.9,333.6,302.0
862.1,1441,14.3,13.6,95,11.40,253,3.6,299.9,333.5,302.0
861.6,1447,14.3,13.5,95,11.39,252,3.6,299.9,333.5,302.0
861.0,1453,14.2,13.5,96,11.37,252,3.6,299.9,333.4,302.0
860.4,1459,14.1,13.4,95,11.31,251,3.6,299.9,333.2,301.9
859.8,1464,14.1,13.3,95,11.22,251,3.6,299.9,333.0,301.9
859.2,1470,14.1,13.1,94,11.11,250,3.6,299.9,332.7,301.9
858.7,1476,14.1,13.0,93,11.01,250,3.6,300.0,332.5,302.0
858.1,1481,14.1,12.9,92,10.93,249,3.6,300.1,332.4,302.1
857.6,1486,14.1,12.8,92,10.91,249,3.6,300.2,332.4,302.1
857.1,1491,14.1,12.8,92,10.89,248,3.6,300.2,332.4,302.2
856.6,1496,14.1,12.7,91,10.85,248,3.6,300.2,332.3,302.2
856.2,1500,14.1,12.6,91,10.80,247,3.6,300.3,332.2,302.2
855.7,1505,14.1,12.6,91,10.76,246,3.6,300.3,332.1,302.3
855.3,1509,14.1,12.5,90,10.72,246,3.6,300.3,332.0,302.3
854.9,1513,14.1,12.5,90,10.70,245,3.6,300.4,332.0,302.3
854.4,1517,14.0,12.4,90,10.68,244,3.6,300.4,332.0,302.3
854.0,1522,14.0,12.4,90,10.67,244,3.6,300.4,332.0,302.3
853.5,1526,14.0,12.4,90,10.66,243,3.6,300.4,332.0,302.4
853.1,1531,14.0,12.4,90,10.68,242,3.6,300.4,332.1,302.4
852.6,1536,13.9,12.5,91,10.75,241,3.6,300.4,332.2,302.4
852.1,1540,13.8,12.5,92,10.75,241,3.5,300.4,332.2,302.4
851.7,1545,13.8,12.4,91,10.70,240,3.5,300.4,332.1,302.4
851.2,1549,13.8,12.4,91,10.67,239,3.5,300.5,332.1,302.4
850.8,1553,13.8,12.4,91,10.69,238,3.4,300.5,332.1,302.4
850.4,1558,13.8,12.4,92,10.71,237,3.4,300.5,332.2,302.4
850.0,1561,13.7,12.4,92,10.74,237,3.4,300.5,332.3,302.4
849.5,1566,13.7,12.4,92,10.73,236,3.4,300.5,332.2,302.4
849.1,1570,13.6,12.4,92,10.70,235,3.3,300.5,332.2,302.4
848.7,1575,13.6,12.3,92,10.68,235,3.3,300.5,332.1,302.4
848.2,1579,13.6,12.3,92,10.66,234,3.3,300.5,332.1,302.5
847.7,1584,13.5,12.3,92,10.63,233,3.3,300.5,332.0,302.4
847.2,1589,13.5,12.2,92,10.57,233,3.2,300.5,331.8,302.4
846.7,1594,13.4,12.1,91,10.50,232,3.2,300.5,331.6,302.4
846.2,1599,13.4,12.0,91,10.47,232,3.2,300.5,331.5,302.4
845.8,1604,13.4,11.9,91,10.43,232,3.2,300.5,331.4,302.4
845.3,1609,13.3,11.8,90,10.34,232,3.2,300.6,331.2,302.4
844.8,1613,13.3,11.7,90,10.28,232,3.2,300.6,331.1,302.5
844.4,1618,13.3,11.7,90,10.32,232,3.2,300.6,331.2,302.5
843.9,1622,13.3,11.7,90,10.29,232,3.2,300.6,331.1,302.5
843.4,1627,13.2,11.6,90,10.23,232,3.2,300.7,331.0,302.5
843.0,1631,13.2,11.5,90,10.19,232,3.2,300.7,330.9,302.5
842.6,1636,13.2,11.5,89,10.14,233,3.3,300.7,330.7,302.5
842.2,1640,13.1,11.4,89,10.09,233,3.3,300.7,330.6,302.5
841.7,1644,13.1,11.3,89,10.03,234,3.3,300.7,330.5,302.5
841.3,1648,13.1,11.1,88,9.94,234,3.3,300.8,330.3,302.6
840.9,1652,13.1,11.0,87,9.86,235,3.4,300.8,330.1,302.6
840.5,1657,13.1,11.0,87,9.83,235,3.4,300.8,330.0,302.6
840.0,1661,13.1,11.0,87,9.83,236,3.4,300.8,330.1,302.6
839.6,1666,13.1,10.9,87,9.82,236,3.5,300.9,330.0,302.6
839.1,1670,13.0,10.9,87,9.78,237,3.5,300.9,329.9,302.6
838.6,1675,13.0,10.8,86,9.72,237,3.5,300.9,329.8,302.6
838.1,1680,13.0,10.7,86,9.69,238,3.6,300.9,329.7,302.7
837.6,1685,12.9,10.7,86,9.67,238,3.6,300.9,329.7,302.7
837.1,1690,12.9,10.6,86,9.65,239,3.6,300.9,329.6,302.7
836.6,1695,12.9,10.6,86,9.64,239,3.7,301.0,329.6,302.7
836.1,1700,12.8,10.6,86,9.63,239,3.7,301.0,329.6,302.7
835.6,1705,12.8,10.6,86,9.62,240,3.7,301.0,329.6,302.7
835.1,1710,12.7,10.5,86,9.58,240,3.7,301.0,329.5,302.7
834.7,1715,12.7,10.4,86,9.52,240,3.7,301.0,329.3,302.7
834.2,1720,12.7,10.3,85,9.47,240,3.8,301.0,329.2,302.7
833.7,1725,12.6,10.3,85,9.45,240,3.8,301.0,329.1,302.7
833.2,1730,12.6,10.3,86,9.46,240,3.8,301.0,329.2,302.7
