PRES,HGHT,TEMP,DWPT,RELH,MIXR,DRCT,SPED,THTA,THTE,THTV
1016.2,31,23.2,18.8,76,13.52,55,3.0,295.0,333.9,297.4
1015.2,39,23.7,18.7,73,13.46,41,2.2,295.6,334.5,298.0
1014.5,45,23.8,18.7,73,13.46,38,2.2,295.8,334.6,298.1
1014.1,48,23.8,18.6,73,13.42,38,2.3,295.8,334.6,298.2
1013.5,53,23.8,18.5,72,13.36,38,2.5,295.8,334.4,298.2
1012.7,60,23.7,18.5,72,13.34,39,2.6,295.8,334.4,298.2
1011.9,68,23.7,18.5,73,13.32,40,2.8,295.8,334.3,298.2
1011.2,74,23.6,18.4,73,13.29,41,2.9,295.8,334.2,298.2
1010.5,80,23.6,18.4,73,13.31,42,3.1,295.9,334.4,298.3
1009.8,86,23.6,18.3,72,13.24,43,3.2,296.0,334.3,298.3
1009.1,92,23.6,18.1,71,13.08,43,3.3,296.0,333.8,298.3
1008.3,98,23.5,18.0,71,13.01,44,3.4,296.0,333.6,298.3
1007.6,105,23.5,18.1,72,13.06,45,3.5,296.0,333.8,298.3
1006.9,111,23.4,18.1,72,13.10,46,3.6,296.0,333.9,298.3
1006.1,118,23.4,18.1,72,13.13,47,3.7,296.0,334.0,298.3
1005.3,125,23.3,18.2,73,13.20,48,3.8,296.0,334.2,298.3
1004.5,132,23.2,18.3,74,13.26,49,3.9,296.0,334.4,298.3
1003.8,138,23.1,18.2,74,13.23,50,4.0,296.0,334.3,298.3
1003.0,145,23.1,18.1,74,13.14,51,4.1,296.0,334.0,298.3
1002.3,151,23.0,17.9,73,13.02,51,4.1,296.0,333.7,298.3
1001.6,157,23.0,17.8,73,12.93,52,4.2,296.0,333.4,298.3
1000.9,163,22.9,17.8,73,12.90,53,4.2,296.0,333.3,298.2
1000.3,169,22.8,17.8,73,12.95,54,4.3,296.0,333.4,298.3
1000.0,171,22.8,17.9,74,12.98,55,4.3,296.0,333.5,298.3
999.6,174,22.8,17.9,74,13.02,55,4.3,296.0,333.6,298.3
999.0,180,22.7,17.9,74,13.04,55,4.4,295.9,333.7,298.3
998.4,185,22.7,17.9,75,13.05,56,4.4,295.9,333.7,298.3
997.7,191,22.6,18.0,75,13.11,57,4.4,296.0,333.9,298.3
997.1,196,22.6,18.0,76,13.16,57,4.4,296.0,334.0,298.3
996.5,202,22.5,18.0,76,13.15,58,4.5,295.9,334.0,298.3
995.9,207,22.4,17.9,76,13.09,58,4.5,295.9,333.8,298.3
995.3,212,22.4,17.9,76,13.07,59,4.5,295.9,333.7,298.3
994.7,217,22.4,17.9,76,13.08,59,4.4,295.9,333.8,298.3
994.2,222,22.3,17.9,76,13.11,59,4.4,296.0,333.9,298.3
993.6,227,22.3,18.0,77,13.15,60,4.4,296.0,334.0,298.3
993.0,232,22.2,18.0,77,13.17,60,4.4,296.0,334.1,298.3
992.5,237,22.2,18.0,77,13.16,60,4.3,296.0,334.0,298.3
991.9,242,22.1,17.9,77,13.14,60,4.3,296.0,334.0,298.3
991.3,247,22.1,17.9,77,13.15,60,4.2,296.0,334.0,298.3
990.7,253,22.0,17.9,78,13.17,60,4.1,296.0,334.1,298.3
990.0,258,22.0,17.9,78,13.17,59,4.1,296.0,334.1,298.3
989.4,264,21.9,17.8,78,13.09,59,4.0,296.0,333.8,298.3
988.7,270,21.9,17.7,77,13.01,59,3.9,296.0,333.6,298.3
988.0,276,21.8,17.7,77,13.00,58,3.8,296.0,333.6,298.3
987.4,282,21.7,17.7,78,13.05,57,3.7,296.0,333.7,298.3
986.7,288,21.7,17.8,79,13.08,57,3.6,295.9,333.8,298.3
986.0,294,21.6,17.8,79,13.09,56,3.6,295.9,333.8,298.3
985.3,300,21.6,17.8,79,13.10,55,3.5,296.0,333.9,298.3
984.6,306,21.5,17.8,79,13.11,55,3.4,296.0,333.9,298.3
984.0,312,21.4,17.7,79,13.10,54,3.3,296.0,333.8,298.3
983.3,317,21.4,17.7,80,13.07,53,3.2,296.0,333.8,298.3
982.7,323,21.3,17.6,80,13.03,52,3.1,295.9,333.6,298.2
982.1,328,21.3,17.6,80,12.99,52,3.1,295.9,333.5,298.2
981.6,333,21.2,17.6,80,12.98,51,3.0,295.9,333.5,298.2
981.1,337,21.2,17.6,80,13.03,50,3.0,295.9,333.6,298.3
980.6,342,21.2,17.7,80,13.07,50,3.0,296.0,333.8,298.3
980.1,346,21.1,17.6,81,13.06,49,2.9,295.9,333.7,298.3
979.7,350,21.1,17.6,81,13.06,49,2.9,295.9,333.7,298.3
979.2,354,21.0,17.6,81,13.06,49,2.9,295.9,333.7,298.3
978.7,358,21.0,17.6,81,13.07,49,2.9,295.9,333.8,298.3
978.2,363,21.0,17.7,82,13.12,49,3.0,296.0,333.9,298.3
977.7,367,20.9,17.7,82,13.16,49,3.0,296.0,334.0,298.3
977.2,372,20.9,17.7,82,13.16,49,3.0,296.0,334.0,298.3
976.7,376,20.8,17.7,82,13.15,50,3.1,295.9,334.0,298.3
976.2,381,20.8,17.7,82,13.13,50,3.2,295.9,333.9,298.3
975.7,386,20.7,17.6,82,13.10,51,3.2,295.9,333.8,298.3
975.1,390,20.7,17.6,82,13.08,52,3.3,296.0,333.8,298.3
974.6,395,20.6,17.6,83,13.10,52,3.4,295.9,333.8,298.3
974.1,399,20.6,17.6,83,13.13,53,3.5,296.0,333.9,298.3
973.6,404,20.6,17.6,83,13.14,53,3.6,296.0,334.0,298.3
973.1,409,20.5,17.6,83,13.10,54,3.7,296.0,333.9,298.3
972.5,413,20.5,17.5,83,13.08,55,3.8,295.9,333.8,298.3
972.0,418,20.4,17.5,83,13.06,55,3.9,295.9,333.7,298.3
971.4,423,20.4,17.5,84,13.07,55,4.0,296.0,333.7,298.3
970.9,428,20.3,17.5,84,13.08,56,4.1,296.0,333.8,298.3
970.3,433,20.3,17.5,84,13.11,56,4.2,296.0,333.9,298.3
969.8,438,20.2,17.5,85,13.12,56,4.3,296.0,333.9,298.3
969.2,443,20.2,17.5,85,13.11,56,4.3,296.0,333.9,298.3
968.6,448,20.1,17.5,85,13.10,56,4.4,296.0,333.8,298.3
968.1,453,20.1,17.5,85,13.07,57,4.5,295.9,333.7,298.3
967.5,458,20.0,17.4,85,13.05,57,4.5,296.0,333.7,298.3
967.0,463,20.0,17.4,85,13.04,56,4.6,295.9,333.7,298.3
966.4,468,19.9,17.4,85,13.04,56,4.6,296.0,333.7,298.3
965.9,472,19.9,17.4,86,13.06,56,4.6,296.0,333.7,298.3
965.4,477,19.9,17.4,86,13.08,56,4.6,296.0,333.8,298.3
964.8,482,19.8,17.4,86,13.10,56,4.6,296.0,333.9,298.3
964.3,487,19.8,17.4,86,13.10,56,4.6,296.0,333.8,298.3
963.8,492,19.7,17.4,87,13.09,55,4.6,296.0,333.8,298.3
963.2,497,19.7,17.4,87,13.11,55,4.6,296.0,333.9,298.3
962.7,502,19.6,17.5,87,13.14,55,4.6,296.0,334.0,298.3
962.1,507,19.6,17.5,88,13.15,54,4.6,296.0,334.0,298.3
961.5,512,19.5,17.4,88,13.13,54,4.6,296.0,333.9,298.3
960.9,517,19.5,17.4,87,13.08,54,4.5,296.0,333.8,298.3
960.4,522,19.4,17.3,88,13.07,53,4.5,296.0,333.8,298.3
959.8,528,19.4,17.3,88,13.06,53,4.4,296.0,333.7,298.3
959.2,533,19.3,17.3,88,13.04,53,4.4,296.0,333.7,298.3
958.6,538,19.3,17.2,88,13.02,53,4.4,296.0,333.6,298.3
958.0,543,19.2,17.2,88,13.02,52,4.3,296.0,333.6,298.3
957.4,548,19.2,17.3,89,13.06,52,4.3,296.0,333.7,298.3
956.9,554,19.1,17.3,89,13.05,52,4.3,296.0,333.7,298.3
956.3,559,19.1,17.2,89,13.05,52,4.3,296.0,333.7,298.3
955.7,564,19.0,17.2,89,13.05,51,4.2,296.0,333.7,298.3
955.2,569,19.0,17.2,90,13.04,51,4.2,296.0,333.7,298.3
954.6,574,18.9,17.2,90,13.05,51,4.2,296.0,333.7,298.3
954.0,579,18.9,17.2,90,13.04,51,4.2,296.0,333.7,298.3
953.5,584,18.8,17.2,90,13.03,51,4.2,296.0,333.6,298.3
953.0,589,18.8,17.2,90,13.03,51,4.2,296.0,333.7,298.3
952.5,594,18.7,17.2,91,13.08,51,4.2,296.0,333.8,298.3
951.9,598,18.7,17.2,91,13.11,51,4.2,296.0,333.9,298.3
951.4,603,18.6,17.2,92,13.12,51,4.2,296.0,333.9,298.3
950.9,607,18.6,17.2,92,13.13,51,4.2,296.0,334.0,298.3
950.5,612,18.6,17.2,92,13.12,51,4.2,296.0,333.9,298.3
950.0,616,18.5,17.2,92,13.09,51,4.2,296.0,333.8,298.3
949.5,621,18.5,17.1,92,13.05,51,4.2,296.0,333.7,298.3
949.0,625,18.4,17.0,91,12.96,51,4.2,296.0,333.5,298.3
948.5,630,18.4,16.9,91,12.84,52,4.3,296.0,333.2,298.3
948.0,634,18.4,16.6,90,12.66,52,4.3,296.0,332.7,298.3
947.4,639,18.4,16.4,88,12.47,52,4.3,296.1,332.2,298.3
946.9,644,18.4,16.3,88,12.39,52,4.3,296.1,332.0,298.3
946.3,649,18.4,16.3,88,12.42,52,4.3,296.1,332.1,298.3
945.7,654,18.3,16.3,88,12.40,52,4.3,296.1,332.0,298.3
945.2,660,18.2,16.1,88,12.30,53,4.3,296.1,331.8,298.3
944.6,665,18.2,15.9,86,12.11,53,4.3,296.1,331.2,298.3
944.0,670,18.2,15.6,85,11.89,53,4.3,296.2,330.6,298.3
943.4,676,18.2,15.5,84,11.81,53,4.3,296.2,330.4,298.3
942.8,681,18.1,15.5,85,11.84,53,4.3,296.2,330.6,298.3
942.3,686,18.1,15.7,86,11.95,53,4.3,296.2,330.9,298.3
941.7,691,18.0,15.8,87,12.07,53,4.3,296.2,331.2,298.4
941.1,696,18.0,15.9,88,12.18,53,4.2,296.2,331.5,298.4
940.5,702,17.9,16.0,89,12.27,54,4.2,296.2,331.7,298.4
940.0,707,17.8,16.0,89,12.24,54,4.2,296.1,331.6,298.3
939.4,712,17.8,15.8,88,12.08,54,4.2,296.2,331.2,298.3
938.9,717,17.8,15.5,87,11.90,53,4.2,296.2,330.7,298.3
938.3,722,17.7,15.5,87,11.90,53,4.2,296.2,330.7,298.3
937.8,727,17.7,15.6,88,11.97,53,4.1,296.2,330.9,298.3
937.3,731,17.6,15.6,88,11.99,53,4.1,296.2,330.9,298.3
936.8,736,17.6,15.6,88,11.98,53,4.1,296.2,331.0,298.3
936.3,740,17.5,15.6,89,11.99,53,4.1,296.2,331.0,298.3
935.8,745,17.5,15.6,89,12.01,53,4.1,296.2,331.0,298.3
935.3,749,17.5,15.6,89,12.02,52,4.1,296.2,331.1,298.3
934.8,754,17.4,15.6,89,12.02,52,4.1,296.2,331.0,298.3
934.4,758,17.4,15.6,89,12.01,52,4.1,296.2,331.0,298.3
933.9,763,17.3,15.6,90,12.01,51,4.2,296.2,331.0,298.3
933.4,767,17.3,15.5,90,11.98,51,4.2,296.2,330.9,298.3
932.9,772,17.2,15.5,89,11.94,50,4.2,296.2,330.8,298.3
932.4,776,17.2,15.5,90,11.94,50,4.2,296.2,330.8,298.3
931.9,781,17.2,15.4,90,11.91,49,4.3,296.2,330.7,298.3
931.4,785,17.1,15.3,89,11.84,49,4.3,296.2,330.6,298.3
930.9,790,17.1,15.2,89,11.74,48,4.4,296.2,330.3,298.3
930.4,794,17.1,15.1,88,11.69,47,4.4,296.3,330.2,298.3
929.9,799,17.0,15.1,88,11.67,47,4.5,296.3,330.1,298.3
929.5,803,17.0,15.1,88,11.67,46,4.5,296.3,330.1,298.3
929.0,807,17.0,15.1,89,11.67,45,4.6,296.3,330.1,298.3
928.6,811,16.9,15.1,89,11.66,45,4.6,296.3,330.1,298.3
928.1,816,16.9,15.0,89,11.63,44,4.7,296.3,330.0,298.4
927.6,820,16.8,14.9,88,11.58,43,4.7,296.3,329.9,298.3
927.1,825,16.8,14.8,88,11.52,43,4.8,296.3,329.8,298.4
926.6,830,16.8,14.8,88,11.47,42,4.8,296.3,329.6,298.4
926.0,835,16.8,14.7,87,11.42,41,4.9,296.4,329.5,298.4
925.5,840,16.7,14.6,87,11.38,41,4.9,296.4,329.4,298.4
925.0,844,16.7,14.6,87,11.33,41,4.9,296.4,329.3,298.4
924.9,845,16.7,14.6,87,11.33,40,5.0,296.4,329.3,298.4
924.4,850,16.7,14.4,87,11.24,40,5.0,296.4,329.1,298.4
923.8,855,16.6,14.3,86,11.17,39,5.0,296.4,328.9,298.4
923.3,860,16.6,14.2,86,11.12,39,5.1,296.4,328.7,298.4
922.7,865,16.5,14.2,86,11.10,38,5.1,296.4,328.7,298.4
922.2,870,16.5,14.2,86,11.08,38,5.1,296.4,328.6,298.4
921.7,875,16.5,14.2,86,11.10,37,5.2,296.4,328.7,298.4
921.1,880,16.4,14.2,87,11.15,37,5.2,296.5,328.9,298.4
920.6,885,16.4,14.4,88,11.29,37,5.2,296.5,329.3,298.5
920.1,890,16.3,14.7,90,11.54,37,5.2,296.4,330.0,298.5
919.5,895,16.2,15.1,93,11.79,37,5.2,296.4,330.6,298.5
919.0,900,16.2,15.1,94,11.86,37,5.3,296.4,330.8,298.5
918.5,905,16.1,15.0,93,11.79,37,5.3,296.4,330.6,298.5
917.9,910,16.1,14.9,93,11.68,37,5.3,296.4,330.3,298.5
917.4,915,16.1,14.7,92,11.57,37,5.3,296.4,330.0,298.5
916.8,920,16.0,14.6,91,11.50,38,5.3,296.4,329.8,298.5
916.3,925,16.0,14.6,91,11.49,38,5.3,296.5,329.8,298.5
915.7,930,15.9,14.6,92,11.52,38,5.3,296.4,329.9,298.5
915.1,936,15.8,14.7,93,11.57,39,5.3,296.4,330.0,298.5
914.5,941,15.8,14.7,93,11.56,39,5.3,296.4,330.0,298.5
913.9,947,15.7,14.6,93,11.53,40,5.3,296.4,329.9,298.5
913.3,953,15.7,14.6,93,11.52,41,5.2,296.4,329.9,298.5
912.7,958,15.6,14.6,93,11.49,41,5.2,296.4,329.8,298.5
912.1,964,15.6,14.4,93,11.39,42,5.2,296.5,329.5,298.5
911.5,969,15.6,14.3,92,11.30,43,5.2,296.5,329.4,298.5
910.9,975,15.6,14.2,91,11.24,44,5.2,296.6,329.2,298.6
910.4,980,15.6,14.1,91,11.17,44,5.2,296.6,329.1,298.6
909.8,985,15.5,14.0,90,11.10,45,5.1,296.6,328.9,298.6
909.3,991,15.5,13.9,90,11.03,46,5.1,296.6,328.7,298.6
908.7,996,15.5,13.8,90,10.97,47,5.1,296.6,328.6,298.6
908.2,1001,15.5,13.7,89,10.92,47,5.1,296.7,328.4,298.6
907.6,1006,15.4,13.6,89,10.84,48,5.1,296.7,328.2,298.6
907.1,1011,15.4,13.4,88,10.74,48,5.1,296.7,328.0,298.6
906.5,1016,15.4,13.3,87,10.65,49,5.1,296.7,327.8,298.6
906.0,1021,15.3,13.2,87,10.60,49,5.0,296.7,327.6,298.6
905.4,1026,15.3,13.2,87,10.58,49,5.0,296.8,327.6,298.7
904.9,1032,15.3,13.2,87,10.60,49,5.0,296.8,327.7,298.7
904.3,1037,15.2,13.2,88,10.62,49,5.0,296.8,327.7,298.7
903.8,1042,15.2,13.2,88,10.58,49,5.0,296.8,327.6,298.7
903.2,1047,15.2,13.0,87,10.50,49,5.0,296.8,327.4,298.7
902.7,1052,15.1,13.1,87,10.53,49,5.0,296.8,327.5,298.7
902.1,1057,15.1,13.3,89,10.68,48,5.0,296.9,328.0,298.8
901.6,1063,15.0,13.5,90,10.82,48,5.0,296.8,328.4,298.8
901.1,1068,15.0,13.4,91,10.82,47,5.0,296.8,328.3,298.8
900.5,1073,14.9,13.3,90,10.74,47,5.0,296.8,328.1,298.8
900.0,1077,14.9,13.3,90,10.73,46,5.0,296.9,328.1,298.8
899.5,1083,14.9,13.3,91,10.76,45,5.1,296.9,328.2,298.8
898.9,1088,14.8,13.4,91,10.79,44,5.1,296.9,328.3,298.8
898.4,1093,14.8,13.4,91,10.80,43,5.1,296.9,328.3,298.8
897.8,1098,14.7,13.3,91,10.78,43,5.2,296.9,328.3,298.8
897.3,1103,14.7,13.3,91,10.74,42,5.2,296.9,328.2,298.8
896.7,1108,14.6,13.2,91,10.73,41,5.2,296.9,328.1,298.8
896.2,1114,14.6,13.3,92,10.79,40,5.3,296.9,328.3,298.8
895.6,1119,14.6,13.4,93,10.88,39,5.3,296.9,328.6,298.9
895.0,1125,14.5,13.5,94,10.91,38,5.4,296.9,328.7,298.9
894.5,1130,14.5,13.4,93,10.85,38,5.4,296.9,328.6,298.9
893.9,1136,14.5,13.2,92,10.70,37,5.5,297.0,328.2,298.9
893.3,1141,14.5,12.8,90,10.46,36,5.5,297.0,327.5,298.9
892.7,1147,14.5,12.4,87,10.20,36,5.6,297.1,326.9,298.9
892.1,1152,14.5,12.1,86,9.97,35,5.6,297.2,326.3,298.9
891.5,1158,14.5,11.8,84,9.80,35,5.6,297.2,325.9,299.0
890.9,1164,14.5,11.7,83,9.71,35,5.7,297.3,325.7,299.0
890.3,1169,14.5,11.6,83,9.67,34,5.7,297.3,325.6,299.0
889.8,1174,14.4,11.5,83,9.63,34,5.7,297.3,325.5,299.0
889.2,1180,14.4,11.3,82,9.53,34,5.8,297.4,325.3,299.1
888.7,1185,14.4,11.2,81,9.45,34,5.8,297.4,325.1,299.1
888.1,1190,14.4,11.1,81,9.41,34,5.8,297.4,325.0,299.1
887.6,1196,14.3,11.1,81,9.36,34,5.8,297.5,324.9,299.1
887.0,1201,14.3,11.0,80,9.30,34,5.8,297.5,324.8,299.1
886.5,1206,14.3,10.9,80,9.25,34,5.8,297.5,324.6,299.2
885.9,1211,14.3,10.7,79,9.16,34,5.8,297.5,324.4,299.2
885.4,1216,14.3,10.3,77,8.93,34,5.8,297.6,323.8,299.2
884.9,1221,14.3,10.0,76,8.77,34,5.8,297.7,323.4,299.2
884.4,1226,14.3,10.1,76,8.78,35,5.8,297.7,323.5,299.3
883.9,1230,14.2,10.1,76,8.82,35,5.8,297.7,323.6,299.3
883.5,1235,14.2,10.2,77,8.86,35,5.8,297.7,323.7,299.3
883.0,1239,14.2,10.3,77,8.92,36,5.8,297.7,323.9,299.3
882.6,1243,14.1,10.5,79,9.05,36,5.7,297.7,324.3,299.3
882.1,1248,14.1,10.8,81,9.29,36,5.7,297.7,325.0,299.4
881.6,1252,14.0,11.4,84,9.64,37,5.7,297.7,326.0,299.4
881.2,1257,14.0,11.8,87,9.92,37,5.6,297.7,326.8,299.5
880.7,1261,13.9,12.0,88,10.04,37,5.6,297.7,327.1,299.5
880.2,1266,13.9,12.1,89,10.10,38,5.5,297.7,327.3,299.5
879.8,1270,13.8,12.2,90,10.20,38,5.5,297.7,327.5,299.5
879.3,1274,13.8,12.4,91,10.33,38,5.5,297.7,327.9,299.5
878.9,1279,13.8,12.5,92,10.44,39,5.4,297.7,328.3,299.6
878.4,1283,13.8,12.5,92,10.42,39,5.4,297.8,328.3,299.7
878.0,1287,13.9,12.3,90,10.29,39,5.3,297.9,328.0,299.7
877.5,1292,13.9,12.0,88,10.07,39,5.3,297.9,327.5,299.8
877.1,1296,13.9,11.5,86,9.78,39,5.2,298.0,326.7,299.8
876.6,1301,13.9,11.3,84,9.64,40,5.2,298.1,326.4,299.8
876.1,1305,13.9,11.3,84,9.64,40,5.2,298.1,326.4,299.8
875.6,1310,13.9,11.3,85,9.67,40,5.1,298.1,326.5,299.9
875.1,1315,13.9,11.3,85,9.68,40,5.1,298.2,326.6,299.9
874.6,1320,13.8,11.4,85,9.72,40,5.0,298.2,326.7,299.9
874.2,1324,13.8,11.5,86,9.80,39,5.0,298.2,327.0,299.9
873.7,1329,13.8,11.6,87,9.84,39,5.0,298.2,327.1,300.0
873.2,1333,13.7,11.6,87,9.85,39,5.0,298.2,327.2,300.0
872.7,1338,13.7,11.5,87,9.83,39,4.9,298.2,327.1,300.0
872.3,1342,13.7,11.5,86,9.80,39,4.9,298.3,327.1,300.0
871.9,1346,13.7,11.4,86,9.78,39,4.9,298.3,327.0,300.0
871.4,1351,13.7,11.4,86,9.77,39,4.9,298.3,327.0,300.1
871.0,1355,13.6,11.4,86,9.75,39,4.9,298.3,327.0,300.1
870.6,1359,13.6,11.3,86,9.71,38,4.9,298.4,326.9,300.1
870.1,1363,13.6,11.3,86,9.69,38,4.9,298.4,326.9,300.1
869.7,1367,13.6,11.3,86,9.70,38,4.9,298.4,326.9,300.2
869.3,1372,13.6,11.3,86,9.73,38,4.8,298.4,327.0,300.2
868.8,1376,13.5,11.3,86,9.75,38,4.8,298.4,327.1,300.2
868.4,1380,13.5,11.3,87,9.76,38,4.8,298.4,327.1,300.2
868.0,1384,13.5,11.4,87,9.77,38,4.8,298.4,327.2,300.2
867.5,1389,13.4,11.4,87,9.78,38,4.8,298.4,327.2,300.2
867.1,1393,13.4,11.4,88,9.79,38,4.8,298.4,327.2,300.2
866.6,1397,13.4,11.4,88,9.81,38,4.8,298.5,327.3,300.2
866.1,1402,13.3,11.4,88,9.82,38,4.7,298.5,327.3,300.2
865.7,1406,13.3,11.4,88,9.82,38,4.7,298.5,327.4,300.3
865.2,1411,13.3,11.4,88,9.82,39,4.7,298.5,327.4,300.3
864.8,1415,13.2,11.4,88,9.82,39,4.7,298.5,327.4,300.3
864.3,1420,13.2,11.4,89,9.83,39,4.6,298.5,327.4,300.3
863.9,1424,13.1,11.4,89,9.83,39,4.6,298.5,327.4,300.3
863.4,1428,13.1,11.3,89,9.82,39,4.5,298.5,327.4,300.3
863.0,1433,13.1,11.3,89,9.80,40,4.5,298.5,327.3,300.3
862.6,1437,13.0,11.3,89,9.80,40,4.4,298.5,327.3,300.3
862.1,1441,13.0,11.3,89,9.82,40,4.4,298.6,327.4,300.3
861.7,1445,13.0,11.3,90,9.84,40,4.3,298.6,327.5,300.3
861.3,1450,13.0,11.3,90,9.84,41,4.3,298.6,327.5,300.3
860.8,1454,12.9,11.3,90,9.83,41,4.2,298.6,327.5,300.4
860.4,1458,12.9,11.3,90,9.82,42,4.2,298.6,327.5,300.4
859.9,1462,12.9,11.3,90,9.80,42,4.1,298.6,327.5,300.4
859.5,1467,12.9,11.2,90,9.75,42,4.1,298.6,327.3,300.4
859.1,1471,12.8,11.0,89,9.67,43,4.0,298.7,327.1,300.4
858.6,1475,12.8,10.9,88,9.57,43,4.0,298.7,326.9,300.4
858.2,1480,12.8,10.7,87,9.45,44,4.0,298.7,326.6,300.4
857.7,1484,12.8,10.5,86,9.31,44,3.9,298.8,326.2,300.4
857.3,1489,12.8,10.3,85,9.24,45,3.9,298.8,326.1,300.5
856.8,1493,12.8,10.5,85,9.32,45,3.8,298.9,326.4,300.6
856.3,1498,12.8,10.7,87,9.50,46,3.8,298.9,326.9,300.6
855.8,1503,12.8,10.9,88,9.59,46,3.8,298.9,327.2,300.7
855.3,1508,12.7,10.9,88,9.59,47,3.8,298.9,327.2,300.7
854.8,1513,12.7,10.8,88,9.55,48,3.8,298.9,327.1,300.7
854.3,1518,12.6,10.7,88,9.52,48,3.7,298.9,327.0,300.6
853.7,1523,12.6,10.7,88,9.53,49,3.7,298.9,327.0,300.7
853.2,1529,12.5,10.8,89,9.56,50,3.7,298.9,327.1,300.7
852.6,1534,12.5,10.8,89,9.56,50,3.7,299.0,327.1,300.7
852.1,1540,12.5,10.7,89,9.52,51,3.7,299.0,327.0,300.7
851.5,1546,12.4,10.6,88,9.45,52,3.7,299.0,326.9,300.7
850.9,1551,12.4,10.4,88,9.36,53,3.8,299.0,326.6,300.7
850.3,1557,12.4,10.3,87,9.28,54,3.8,299.1,326.5,300.7
850.0,1560,12.4,10.2,87,9.24,54,3.8,299.1,326.4,300.8
849.7,1563,12.4,10.2,86,9.21,55,3.8,299.1,326.3,300.8
849.2,1568,12.4,10.0,86,9.14,55,3.8,299.1,326.2,300.8
848.6,1574,12.3,9.9,85,9.03,57,3.9,299.2,325.9,300.8
848.1,1579,12.3,9.6,83,8.87,58,3.9,299.3,325.5,300.8
847.6,1584,12.3,9.2,81,8.68,59,3.9,299.3,325.0,300.9
847.1,1589,12.3,9.0,80,8.52,60,4.0,299.4,324.6,300.9
846.6,1594,12.3,8.8,79,8.45,61,4.0,299.4,324.4,300.9
846.1,1599,12.3,8.8,79,8.44,62,4.1,299.4,324.4,300.9
845.7,1603,12.3,8.9,80,8.50,63,4.1,299.4,324.6,301.0
845.2,1608,12.3,9.1,81,8.61,65,4.2,299.5,325.0,301.0
844.7,1613,12.2,9.3,82,8.74,66,4.2,299.5,325.4,301.1
844.3,1617,12.2,9.6,84,8.90,67,4.3,299.5,325.8,301.1
843.8,1622,12.2,9.7,85,9.01,68,4.3,299.5,326.2,301.1
843.3,1627,12.1,9.7,85,9.00,69,4.4,299.5,326.2,301.1
842.8,1632,12.1,9.6,85,8.94,70,4.4,299.5,326.0,301.1
842.3,1637,12.1,9.5,84,8.88,71,4.4,299.5,325.8,301.1
841.9,1641,12.1,9.4,84,8.83,72,4.5,299.6,325.7,301.2
841.4,1646,12.1,9.3,83,8.75,73,4.5,299.6,325.6,301.2
841.0,1650,12.1,9.0,81,8.59,73,4.6,299.7,325.2,301.3
840.5,1655,12.2,8.5,78,8.31,74,4.6,299.8,324.5,301.3
840.1,1659,12.2,7.8,74,7.91,75,4.6,299.9,323.5,301.4
839.6,1663,12.3,6.9,69,7.47,75,4.6,300.1,322.4,301.5
839.2,1668,12.4,6.5,67,7.26,76,4.6,300.2,321.9,301.5
838.8,1672,12.4,6.5,67,7.26,76,4.6,300.3,322.0,301.6
838.3,1677,12.4,6.7,68,7.37,77,4.6,300.4,322.4,301.7
837.9,1681,12.5,6.9,69,7.49,77,4.6,300.4,322.8,301.8
837.4,1686,12.5,7.2,70,7.64,78,4.5,300.5,323.3,301.8
836.9,1691,12.4,7.4,71,7.75,78,4.5,300.5,323.6,301.9
836.5,1695,12.4,7.5,72,7.79,78,4.5,300.5,323.8,301.9
836.0,1700,12.4,7.5,72,7.82,79,4.4,300.5,323.8,301.9
835.5,1705,12.3,7.6,73,7.85,79,4.4,300.5,323.9,301.9
835.0,1710,12.3,7.6,73,7.86,79,4.3,300.5,324.0,301.9
834.5,1715,12.2,7.6,73,7.85,79,4.3,300.5,324.0,301.9
834.0,1720,12.2,7.5,73,7.80,80,4.2,300.5,323.8,301.9
833.5,1725,12.1,7.2,72,7.67,80,4.2,300.5,323.4,301.9
833.0,1730,12.1,6.8,70,7.45,80,4.1,300.6,322.9,301.9
832.5,1735,12.2,6.4,68,7.27,81,4.1,300.7,322.4,302.0
832.0,1740,12.2,6.2,67,7.17,81,4.0,300.7,322.2,302.0
831.5,1746,12.2,6.1,66,7.10,81,3.9,300.8,322.1,302.1
830.9,1751,12.2,5.9,66,7.05,82,3.9,300.8,322.0,302.1
830.4,1756,12.2,5.9,66,7.04,82,3.9,300.9,322.0,302.1
829.9,1762,12.2,6.2,67,7.20,82,3.8,300.9,322.5,302.2
829.3,1767,12.1,6.6,69,7.40,83,3.8,301.0,323.2,302.3
828.8,1773,12.1,6.8,70,7.48,83,3.8,301.0,323.4,302.4
828.2,1778,12.1,6.7,69,7.45,83,3.7,301.0,323.4,302.4
827.7,1784,12.1,6.6,69,7.38,83,3.7,301.1,323.2,302.4
827.1,1790,12.1,6.3,68,7.27,83,3.7,301.1,322.9,302.4
826.5,1796,12.0,6.0,67,7.13,83,3.7,301.1,322.6,302.4
825.9,1801,12.0,6.0,67,7.10,83,3.7,301.2,322.5,302.5
825.4,1807,12.0,6.1,67,7.18,83,3.7,301.2,322.8,302.5
824.8,1812,11.9,6.3,69,7.29,82,3.6,301.2,323.1,302.5
824.3,1818,11.9,6.4,69,7.35,82,3.6,301.3,323.3,302.6
823.8,1823,11.9,6.5,70,7.41,82,3.6,301.3,323.5,302.6
823.3,1828,11.9,6.7,70,7.50,81,3.6,301.3,323.8,302.7
822.8,1833,11.9,7.0,72,7.65,80,3.6,301.4,324.3,302.8
822.4,1838,11.9,7.2,73,7.76,80,3.6,301.4,324.6,302.8
821.9,1843,11.8,7.2,73,7.75,79,3.6,301.4,324.6,302.8
821.4,1848,11.8,7.1,73,7.71,78,3.6,301.4,324.6,302.8
820.9,1853,11.8,7.0,72,7.67,77,3.6,301.4,324.5,302.8
820.4,1858,11.7,6.9,72,7.63,76,3.6,301.5,324.4,302.9
