PRES,HGHT,TEMP,DWPT,RELH,MIXR,DRCT,SPED,THTA,THTE,THTV
1015.5,31,24.0,21.7,87,16.32,63,4.7,295.8,343.0,298.7
1014.2,41,24.4,21.3,83,15.88,65,4.3,296.3,342.3,299.2
1013.9,44,24.5,21.3,82,15.94,66,4.4,296.5,342.6,299.3
1013.5,48,24.5,21.3,82,15.93,65,4.6,296.5,342.7,299.4
1012.8,54,24.5,21.2,82,15.84,65,5.0,296.5,342.4,299.3
1012.3,58,24.5,21.1,81,15.73,65,5.3,296.6,342.1,299.4
1011.7,64,24.4,21.0,81,15.66,65,5.6,296.6,342.0,299.4
1010.9,71,24.4,20.9,81,15.60,64,5.9,296.6,341.8,299.4
1010.2,77,24.4,20.9,81,15.55,64,6.2,296.6,341.7,299.4
1009.5,83,24.3,20.8,81,15.49,64,6.5,296.6,341.5,299.4
1008.8,89,24.3,20.8,81,15.48,64,6.8,296.7,341.5,299.4
1008.1,95,24.2,20.8,81,15.49,64,7.0,296.7,341.5,299.4
1007.4,101,24.2,20.8,81,15.51,63,7.3,296.7,341.6,299.4
1006.8,106,24.1,20.8,82,15.50,63,7.5,296.7,341.6,299.4
1006.2,111,24.1,20.7,82,15.48,63,7.7,296.7,341.5,299.4
1005.6,117,24.0,20.7,82,15.49,63,7.9,296.7,341.6,299.4
1005.0,122,23.9,20.7,82,15.49,63,8.1,296.7,341.5,299.4
1004.4,127,23.9,20.7,82,15.49,63,8.2,296.6,341.5,299.4
1003.8,132,23.8,20.7,83,15.50,63,8.4,296.7,341.6,299.4
1003.2,137,23.8,20.7,83,15.53,63,8.5,296.7,341.7,299.4
1002.6,142,23.7,20.8,83,15.56,62,8.6,296.7,341.8,299.4
1002.1,148,23.7,20.8,84,15.58,62,8.7,296.7,341.8,299.4
1001.5,153,23.6,20.8,84,15.59,62,8.8,296.7,341.8,299.4
1000.9,158,23.6,20.7,84,15.58,62,8.9,296.7,341.8,299.4
1000.3,163,23.6,20.7,84,15.58,62,9.0,296.7,341.8,299.4
1000.0,166,23.5,20.7,84,15.59,62,9.0,296.7,341.8,299.4
999.8,168,23.5,20.7,84,15.58,62,9.1,296.7,341.8,299.4
999.2,173,23.5,20.7,84,15.57,62,9.1,296.7,341.8,299.5
998.6,178,23.4,20.7,85,15.55,62,9.2,296.7,341.7,299.5
998.1,182,23.4,20.6,85,15.53,62,9.2,296.7,341.7,299.4
997.5,188,23.3,20.6,85,15.51,62,9.3,296.7,341.6,299.4
996.9,193,23.3,20.6,85,15.52,63,9.3,296.7,341.6,299.4
996.4,197,23.2,20.6,85,15.54,63,9.3,296.7,341.7,299.4
995.8,202,23.2,20.6,85,15.53,63,9.4,296.7,341.7,299.4
995.2,207,23.1,20.6,86,15.53,63,9.4,296.7,341.7,299.5
994.7,212,23.1,20.6,86,15.53,63,9.4,296.7,341.7,299.4
994.1,217,23.0,20.6,86,15.51,63,9.5,296.7,341.6,299.4
993.5,222,23.0,20.5,86,15.49,64,9.5,296.7,341.6,299.4
993.0,227,22.9,20.6,86,15.52,64,9.5,296.7,341.7,299.4
992.4,232,22.9,20.6,87,15.56,64,9.5,296.7,341.8,299.4
991.9,237,22.9,20.6,87,15.58,65,9.5,296.7,341.8,299.5
991.3,242,22.8,20.6,87,15.59,65,9.5,296.7,341.9,299.5
990.8,247,22.8,20.6,87,15.59,65,9.5,296.7,341.9,299.5
990.2,252,22.7,20.6,88,15.58,65,9.5,296.7,341.8,299.5
989.7,256,22.7,20.5,88,15.55,66,9.5,296.7,341.8,299.4
989.1,261,22.6,20.5,88,15.54,66,9.5,296.7,341.7,299.4
988.5,267,22.6,20.5,88,15.53,66,9.5,296.7,341.7,299.5
987.9,272,22.5,20.5,88,15.53,67,9.5,296.7,341.7,299.5
987.4,277,22.5,20.5,88,15.53,67,9.4,296.7,341.7,299.5
986.8,282,22.4,20.4,89,15.51,67,9.4,296.7,341.6,299.4
986.2,287,22.4,20.4,89,15.49,68,9.4,296.7,341.6,299.4
985.6,292,22.3,20.4,89,15.49,68,9.4,296.7,341.6,299.4
985.1,297,22.2,20.4,89,15.49,68,9.3,296.7,341.5,299.4
984.5,302,22.2,20.4,89,15.49,68,9.3,296.7,341.6,299.4
984.0,307,22.2,20.4,90,15.49,69,9.3,296.7,341.6,299.4
983.5,311,22.1,20.4,90,15.51,69,9.2,296.7,341.6,299.5
982.9,316,22.1,20.4,90,15.51,69,9.2,296.7,341.6,299.5
982.4,320,22.1,20.4,90,15.53,69,9.2,296.7,341.7,299.5
981.9,325,22.0,20.4,91,15.57,69,9.2,296.7,341.8,299.5
981.5,329,22.0,20.5,91,15.61,69,9.2,296.7,341.9,299.5
981.0,334,21.9,20.4,91,15.60,69,9.1,296.7,341.9,299.5
980.5,338,21.9,20.4,91,15.56,70,9.1,296.7,341.8,299.4
980.0,342,21.8,20.4,91,15.53,70,9.1,296.7,341.7,299.4
979.5,347,21.8,20.4,92,15.54,70,9.1,296.7,341.7,299.5
979.0,351,21.8,20.4,92,15.55,70,9.1,296.7,341.7,299.5
978.5,356,21.7,20.3,92,15.53,70,9.1,296.7,341.7,299.5
977.9,361,21.7,20.3,92,15.52,70,9.1,296.7,341.7,299.5
977.4,365,21.6,20.3,92,15.53,70,9.1,296.7,341.7,299.5
976.9,370,21.6,20.3,92,15.55,71,9.1,296.7,341.8,299.5
976.3,375,21.5,20.3,93,15.54,71,9.1,296.7,341.7,299.5
975.8,380,21.5,20.2,93,15.48,71,9.2,296.7,341.5,299.4
975.2,385,21.4,20.2,92,15.43,71,9.2,296.7,341.4,299.5
974.7,390,21.4,20.2,93,15.43,71,9.2,296.7,341.4,299.5
974.1,394,21.4,20.2,93,15.44,72,9.2,296.7,341.5,299.5
973.6,400,21.3,20.1,93,15.43,72,9.3,296.7,341.4,299.5
973.0,405,21.3,20.2,93,15.45,72,9.3,296.8,341.5,299.5
972.4,410,21.3,20.2,94,15.51,72,9.3,296.8,341.7,299.5
971.8,415,21.2,20.2,94,15.53,73,9.3,296.8,341.8,299.5
971.2,421,21.1,20.2,94,15.50,73,9.4,296.7,341.7,299.5
970.6,426,21.1,20.1,94,15.46,73,9.4,296.7,341.5,299.5
970.1,431,21.0,20.1,94,15.43,73,9.4,296.7,341.4,299.5
969.5,436,21.0,20.1,94,15.42,74,9.5,296.7,341.4,299.5
968.9,441,21.0,20.1,95,15.44,74,9.5,296.8,341.5,299.5
968.4,446,20.9,20.1,95,15.44,74,9.5,296.8,341.5,299.5
967.8,451,20.9,20.1,95,15.45,74,9.6,296.8,341.5,299.5
967.2,456,20.8,20.1,96,15.45,74,9.6,296.8,341.5,299.5
966.7,461,20.7,20.0,96,15.43,74,9.6,296.7,341.4,299.5
966.1,466,20.7,19.9,95,15.36,74,9.7,296.7,341.3,299.5
965.5,472,20.7,19.8,95,15.21,74,9.7,296.8,340.9,299.5
965.0,477,20.7,19.6,94,15.06,74,9.7,296.8,340.5,299.5
964.4,482,20.7,19.5,93,15.00,74,9.8,296.9,340.4,299.6
963.8,487,20.6,19.5,93,15.01,74,9.8,296.9,340.4,299.6
963.2,493,20.6,19.5,93,14.98,74,9.8,296.9,340.4,299.6
962.6,498,20.6,19.5,93,14.94,74,9.9,296.9,340.3,299.6
962.0,503,20.5,19.4,94,14.93,73,9.9,296.9,340.2,299.6
961.4,509,20.5,19.4,93,14.90,73,10.0,296.9,340.1,299.6
960.8,514,20.5,19.3,93,14.85,73,10.0,297.0,340.1,299.6
960.2,520,20.4,19.3,94,14.88,73,10.0,297.0,340.1,299.6
959.6,525,20.3,19.3,94,14.89,72,10.1,296.9,340.1,299.6
959.0,530,20.3,19.1,93,14.68,72,10.1,296.9,339.5,299.5
958.5,535,20.3,18.6,90,14.24,72,10.1,297.0,338.3,299.5
957.9,541,20.4,18.1,87,13.79,71,10.2,297.2,337.3,299.6
957.3,546,20.5,17.9,85,13.61,71,10.2,297.3,336.9,299.8
956.7,552,20.5,17.9,85,13.63,71,10.2,297.4,337.0,299.8
956.1,557,20.4,18.0,86,13.70,71,10.2,297.4,337.2,299.8
955.5,563,20.4,18.0,87,13.76,70,10.3,297.4,337.4,299.8
954.8,568,20.3,18.1,87,13.79,70,10.3,297.4,337.4,299.8
954.2,574,20.3,18.1,87,13.80,70,10.3,297.4,337.5,299.8
953.6,579,20.2,18.1,88,13.84,70,10.3,297.4,337.6,299.8
953.0,585,20.2,18.1,88,13.87,69,10.3,297.4,337.7,299.8
952.3,591,20.1,18.1,88,13.88,69,10.3,297.4,337.7,299.9
951.6,597,20.1,18.1,89,13.90,69,10.3,297.4,337.8,299.9
950.9,604,20.0,18.2,89,13.95,69,10.3,297.4,338.0,299.9
950.2,610,20.0,18.2,90,13.98,69,10.3,297.4,338.1,299.9
949.5,617,19.9,18.2,90,13.94,69,10.3,297.4,338.0,299.9
948.8,623,19.8,18.1,90,13.87,69,10.3,297.4,337.8,299.9
948.1,629,19.8,18.0,89,13.80,69,10.3,297.4,337.6,299.9
947.5,635,19.7,17.9,89,13.78,69,10.3,297.4,337.5,299.9
946.8,641,19.7,17.9,90,13.80,69,10.3,297.4,337.6,299.9
946.2,647,19.6,18.0,90,13.82,69,10.3,297.5,337.6,299.9
945.6,652,19.6,17.9,90,13.78,69,10.3,297.5,337.6,299.9
945.0,657,19.6,17.8,89,13.70,69,10.3,297.5,337.4,300.0
944.4,663,19.6,17.7,89,13.64,69,10.3,297.6,337.3,300.0
943.9,668,19.6,17.7,89,13.59,69,10.4,297.6,337.2,300.0
943.3,673,19.5,17.6,89,13.56,69,10.4,297.6,337.1,300.0
942.7,679,19.5,17.6,89,13.52,69,10.5,297.6,337.0,300.0
942.1,684,19.5,17.5,89,13.52,69,10.5,297.6,337.0,300.1
941.5,690,19.4,17.5,89,13.51,69,10.5,297.7,337.0,300.1
940.9,695,19.4,17.5,89,13.49,70,10.6,297.7,337.0,300.1
940.3,700,19.3,17.5,89,13.48,70,10.6,297.7,336.9,300.1
939.8,706,19.3,17.5,89,13.48,70,10.7,297.7,336.9,300.1
939.2,711,19.2,17.5,89,13.50,70,10.8,297.7,337.0,300.1
938.6,716,19.2,17.5,90,13.51,70,10.8,297.7,337.1,300.1
938.1,721,19.2,17.5,90,13.52,70,10.9,297.7,337.1,300.1
937.5,727,19.1,17.5,90,13.51,71,11.0,297.7,337.1,300.1
936.9,732,19.1,17.5,90,13.51,71,11.0,297.7,337.1,300.1
936.3,737,19.1,17.5,91,13.54,71,11.1,297.7,337.2,300.2
935.8,743,19.0,17.5,91,13.57,71,11.1,297.7,337.3,300.2
935.2,748,18.9,17.5,91,13.57,71,11.2,297.7,337.3,300.1
934.6,754,18.9,17.4,91,13.54,71,11.2,297.7,337.2,300.1
934.0,759,18.8,17.4,91,13.49,71,11.3,297.7,337.0,300.1
933.4,764,18.8,17.3,91,13.46,71,11.3,297.7,336.9,300.1
932.8,769,18.7,17.3,91,13.44,71,11.3,297.7,336.9,300.1
932.3,775,18.7,17.3,92,13.45,71,11.3,297.7,336.9,300.1
931.7,780,18.6,17.3,92,13.47,71,11.4,297.7,337.0,300.2
931.1,785,18.6,17.3,92,13.50,71,11.4,297.8,337.1,300.2
930.5,791,18.5,17.4,93,13.56,71,11.4,297.7,337.3,300.2
929.9,796,18.5,17.5,94,13.63,71,11.4,297.7,337.4,300.2
929.3,802,18.4,17.5,94,13.66,71,11.3,297.7,337.5,300.2
928.7,808,18.4,17.5,94,13.63,71,11.3,297.7,337.4,300.2
928.0,814,18.3,17.4,95,13.61,71,11.3,297.7,337.4,300.2
927.4,820,18.2,17.4,95,13.62,71,11.3,297.7,337.4,300.2
926.7,826,18.2,17.4,95,13.62,71,11.3,297.7,337.4,300.2
926.0,833,18.1,17.4,96,13.64,71,11.2,297.8,337.5,300.2
925.2,840,18.1,17.4,96,13.68,71,11.2,297.8,337.6,300.2
925.0,842,18.1,17.4,96,13.67,71,11.2,297.8,337.6,300.2
924.5,847,18.0,17.4,96,13.67,71,11.2,297.8,337.6,300.2
923.8,854,18.0,17.3,96,13.61,71,11.1,297.8,337.5,300.2
923.0,860,18.0,17.3,95,13.54,71,11.1,297.9,337.4,300.3
922.3,867,18.0,17.2,95,13.48,71,11.1,297.9,337.2,300.3
921.6,874,18.0,17.1,95,13.45,71,11.1,298.0,337.2,300.4
920.9,880,17.9,17.1,95,13.46,71,11.1,298.0,337.3,300.4
920.3,886,17.9,17.1,95,13.49,71,11.0,298.0,337.4,300.4
919.6,892,17.8,17.2,96,13.51,71,11.0,298.0,337.4,300.4
919.0,898,17.8,17.1,96,13.49,71,11.0,298.0,337.4,300.5
918.4,903,17.7,17.1,96,13.47,71,11.0,298.1,337.3,300.5
917.8,909,17.7,17.1,96,13.46,71,11.1,298.1,337.3,300.5
917.2,915,17.7,17.1,97,13.50,71,11.1,298.1,337.5,300.5
916.6,920,17.6,17.1,97,13.54,71,11.1,298.1,337.6,300.5
916.0,926,17.6,17.2,97,13.56,71,11.1,298.1,337.7,300.5
915.5,931,17.5,17.1,97,13.55,71,11.1,298.1,337.7,300.5
914.9,937,17.5,17.1,98,13.55,72,11.1,298.1,337.7,300.6
914.3,942,17.5,17.1,98,13.54,72,11.2,298.2,337.7,300.6
913.7,948,17.4,17.1,98,13.52,72,11.2,298.2,337.6,300.6
913.1,953,17.4,17.0,98,13.50,72,11.2,298.2,337.6,300.6
912.5,959,17.4,17.0,98,13.50,72,11.3,298.2,337.6,300.6
911.9,964,17.3,17.0,98,13.49,73,11.3,298.2,337.6,300.6
911.3,970,17.3,17.0,98,13.47,73,11.4,298.2,337.5,300.6
910.7,976,17.2,16.9,98,13.46,73,11.4,298.2,337.5,300.6
910.1,982,17.2,17.0,98,13.48,73,11.4,298.3,337.6,300.7
909.5,987,17.2,17.0,99,13.49,74,11.5,298.3,337.7,300.7
908.8,993,17.2,16.9,99,13.48,74,11.5,298.3,337.7,300.8
908.2,999,17.1,16.9,98,13.44,75,11.5,298.4,337.6,300.8
907.6,1005,17.1,16.8,98,13.36,75,11.6,298.4,337.5,300.8
907.0,1011,17.2,16.7,97,13.32,75,11.6,298.5,337.5,300.9
906.4,1017,17.2,16.7,97,13.31,76,11.7,298.6,337.5,301.0
905.7,1022,17.1,16.7,97,13.29,76,11.7,298.6,337.5,301.0
905.1,1028,17.1,16.6,97,13.28,76,11.7,298.6,337.5,301.0
904.5,1034,17.1,16.6,97,13.27,77,11.8,298.7,337.5,301.0
903.9,1040,17.0,16.6,97,13.28,77,11.8,298.7,337.5,301.1
903.3,1046,17.0,16.6,98,13.30,78,11.8,298.7,337.6,301.1
902.7,1052,17.0,16.6,98,13.30,78,11.9,298.7,337.7,301.1
902.0,1058,16.9,16.6,98,13.29,79,11.9,298.8,337.6,301.1
901.4,1064,16.9,16.5,97,13.24,79,11.9,298.8,337.6,301.2
900.8,1070,17.0,16.5,97,13.23,79,11.9,298.9,337.7,301.3
900.2,1075,17.0,16.5,96,13.19,80,12.0,299.0,337.7,301.4
899.6,1081,17.0,16.4,96,13.17,80,12.0,299.1,337.7,301.4
899.0,1087,17.0,16.4,96,13.16,81,12.0,299.1,337.7,301.5
898.4,1092,17.0,16.4,96,13.14,81,12.0,299.2,337.7,301.5
897.8,1098,17.0,16.3,96,13.12,81,12.0,299.2,337.7,301.6
897.3,1103,17.0,16.3,96,13.11,82,12.1,299.2,337.7,301.6
896.7,1109,17.0,16.3,96,13.12,82,12.1,299.3,337.8,301.7
896.1,1114,17.0,16.3,96,13.12,82,12.1,299.4,337.9,301.7
895.5,1120,17.0,16.3,95,13.09,82,12.0,299.4,337.9,301.8
894.9,1126,17.0,16.2,95,13.03,82,12.0,299.5,337.7,301.8
894.3,1132,17.0,16.1,95,12.99,83,12.0,299.5,337.7,301.8
893.7,1137,17.0,16.1,94,12.96,83,12.0,299.6,337.6,301.9
893.0,1143,17.0,16.0,94,12.93,83,11.9,299.7,337.7,302.0
892.4,1149,17.0,16.0,94,12.89,83,11.9,299.7,337.6,302.0
891.8,1155,16.9,15.9,94,12.87,83,11.8,299.7,337.5,302.0
891.2,1161,16.9,15.9,94,12.84,83,11.8,299.7,337.5,302.0
890.6,1166,16.8,15.9,94,12.84,83,11.7,299.7,337.5,302.1
890.1,1172,16.8,15.9,94,12.88,83,11.7,299.7,337.6,302.1
889.5,1178,16.8,15.9,95,12.89,83,11.6,299.8,337.7,302.1
888.9,1183,16.7,15.9,95,12.88,83,11.5,299.8,337.6,302.1
888.3,1189,16.6,15.8,95,12.85,83,11.4,299.8,337.5,302.1
887.7,1194,16.6,15.8,95,12.83,83,11.3,299.8,337.5,302.1
887.2,1200,16.5,15.8,95,12.82,83,11.3,299.8,337.4,302.1
886.6,1205,16.5,15.8,96,12.83,83,11.2,299.8,337.5,302.1
886.1,1210,16.4,15.8,96,12.84,83,11.1,299.8,337.5,302.1
885.6,1215,16.4,15.8,96,12.86,83,11.0,299.8,337.6,302.1
885.1,1220,16.4,15.8,97,12.87,83,11.0,299.8,337.6,302.1
884.5,1225,16.3,15.8,97,12.90,83,10.9,299.8,337.7,302.1
884.0,1230,16.2,15.9,98,12.93,83,10.8,299.8,337.8,302.1
883.5,1236,16.2,15.9,98,12.93,83,10.8,299.8,337.8,302.1
882.9,1241,16.2,15.8,98,12.91,83,10.7,299.8,337.7,302.1
882.3,1246,16.1,15.8,98,12.87,84,10.7,299.8,337.7,302.1
881.8,1252,16.1,15.7,97,12.83,84,10.7,299.8,337.6,302.1
881.2,1257,16.1,15.7,97,12.81,84,10.7,299.9,337.6,302.2
880.7,1262,16.1,15.6,97,12.80,84,10.7,299.9,337.6,302.2
880.2,1267,16.1,15.6,97,12.80,85,10.7,299.9,337.6,302.2
879.6,1273,16.0,15.6,97,12.76,85,10.7,300.0,337.5,302.3
879.1,1278,16.0,15.5,97,12.72,85,10.7,300.0,337.4,302.3
878.6,1283,16.0,15.5,97,12.69,86,10.8,300.0,337.4,302.3
878.1,1288,16.0,15.5,97,12.69,86,10.8,300.1,337.4,302.4
877.5,1293,15.9,15.5,97,12.69,86,10.9,300.1,337.5,302.4
877.0,1299,15.9,15.4,97,12.69,87,10.9,300.1,337.4,302.4
876.4,1304,15.8,15.4,97,12.68,87,11.0,300.1,337.4,302.4
875.8,1310,15.8,15.4,97,12.66,87,11.0,300.1,337.4,302.4
875.2,1316,15.8,15.4,97,12.65,88,11.1,300.1,337.4,302.4
874.6,1322,15.8,15.3,97,12.62,88,11.2,300.2,337.4,302.4
874.0,1328,15.7,15.3,97,12.59,88,11.2,300.2,337.3,302.5
873.4,1334,15.7,15.3,97,12.58,89,11.3,300.2,337.3,302.5
872.8,1340,15.6,15.3,98,12.61,89,11.4,300.2,337.4,302.5
872.2,1345,15.6,15.3,98,12.60,89,11.5,300.2,337.3,302.5
871.6,1351,15.5,15.2,98,12.55,89,11.5,300.2,337.2,302.5
871.1,1356,15.5,15.1,98,12.48,90,11.6,300.2,337.0,302.5
870.5,1361,15.5,15.0,97,12.44,90,11.7,300.3,336.9,302.5
870.0,1367,15.4,15.0,98,12.45,90,11.8,300.3,337.0,302.5
869.4,1372,15.4,15.1,98,12.50,90,11.8,300.3,337.2,302.6
868.9,1378,15.4,15.1,98,12.53,90,11.9,300.3,337.3,302.6
868.3,1383,15.3,15.1,99,12.55,90,11.9,300.3,337.3,302.6
867.7,1389,15.3,15.1,99,12.57,90,12.0,300.4,337.5,302.6
867.2,1394,15.3,15.2,99,12.59,90,12.1,300.4,337.5,302.7
866.6,1400,15.3,15.1,99,12.56,90,12.1,300.5,337.5,302.7
866.1,1405,15.2,15.0,99,12.51,90,12.2,300.5,337.4,302.7
865.5,1410,15.2,15.0,98,12.48,90,12.2,300.5,337.3,302.8
865.0,1415,15.2,14.9,98,12.44,90,12.3,300.5,337.3,302.8
864.5,1420,15.2,14.9,98,12.42,90,12.3,300.6,337.2,302.8
864.0,1425,15.1,14.9,98,12.42,90,12.4,300.6,337.2,302.8
863.5,1430,15.1,14.9,99,12.44,90,12.4,300.6,337.3,302.9
863.0,1435,15.1,14.9,99,12.46,90,12.5,300.6,337.4,302.9
862.5,1440,15.1,14.9,99,12.48,90,12.5,300.6,337.5,302.9
862.0,1445,15.0,14.9,99,12.48,90,12.6,300.7,337.5,302.9
861.5,1450,15.0,14.9,99,12.47,90,12.6,300.7,337.5,302.9
861.0,1455,15.0,14.9,99,12.48,89,12.6,300.7,337.6,303.0
860.5,1460,15.0,14.9,99,12.49,89,12.7,300.8,337.7,303.0
859.9,1465,15.0,14.9,100,12.48,89,12.7,300.8,337.7,303.1
859.4,1470,14.9,14.9,100,12.46,89,12.8,300.8,337.6,303.1
858.9,1476,14.9,14.8,100,12.43,89,12.8,300.8,337.6,303.1
858.4,1481,14.9,14.8,100,12.42,89,12.8,300.8,337.5,303.1
857.9,1486,14.8,14.8,100,12.40,89,12.9,300.9,337.5,303.1
857.4,1491,14.8,14.7,100,12.37,89,12.9,300.9,337.4,303.1
856.9,1496,14.7,14.7,99,12.33,89,12.9,300.9,337.3,303.1
856.4,1501,14.7,14.6,99,12.31,89,12.9,300.9,337.3,303.1
855.9,1506,14.7,14.6,99,12.30,89,13.0,300.9,337.3,303.1
855.3,1511,14.6,14.6,99,12.28,89,13.0,300.9,337.3,303.2
854.8,1517,14.6,14.5,99,12.27,89,13.0,301.0,337.2,303.2
854.2,1522,14.6,14.5,100,12.27,89,13.0,301.0,337.3,303.2
853.7,1528,14.6,14.5,100,12.27,88,13.1,301.0,337.3,303.2
853.1,1533,14.5,14.5,100,12.27,88,13.1,301.0,337.3,303.2
852.5,1539,14.5,14.5,100,12.27,88,13.1,301.1,337.3,303.3
852.0,1544,14.5,14.5,100,12.24,88,13.1,301.1,337.3,303.3
851.4,1550,14.4,14.4,100,12.20,88,13.1,301.1,337.2,303.3
850.9,1555,14.4,14.4,99,12.18,88,13.1,301.2,337.2,303.4
850.3,1561,14.4,14.3,99,12.15,88,13.2,301.2,337.2,303.4
850.0,1564,14.4,14.2,99,12.10,88,13.2,301.2,337.1,303.4
849.8,1566,14.4,14.2,99,12.08,88,13.2,301.2,337.0,303.4
849.3,1571,14.4,14.1,98,11.98,88,13.2,301.3,336.8,303.5
848.7,1577,14.4,13.9,97,11.85,88,13.2,301.4,336.5,303.5
848.2,1582,14.4,13.8,96,11.74,88,13.2,301.4,336.3,303.6
847.6,1588,14.5,13.7,95,11.67,88,13.2,301.5,336.1,303.6
847.1,1593,14.5,13.6,94,11.61,88,13.2,301.6,336.1,303.7
846.6,1598,14.5,13.5,94,11.55,89,13.2,301.7,335.9,303.7
846.1,1603,14.5,13.4,93,11.49,89,13.2,301.7,335.8,303.8
845.6,1609,14.5,13.4,93,11.49,89,13.2,301.7,335.8,303.8
845.1,1613,14.4,13.4,93,11.48,89,13.1,301.7,335.9,303.8
844.6,1618,14.4,13.3,93,11.48,89,13.1,301.8,335.9,303.8
844.1,1623,14.4,13.3,93,11.48,89,13.1,301.8,335.9,303.9
843.6,1628,14.3,13.3,94,11.48,89,13.1,301.8,335.9,303.9
843.1,1633,14.3,13.3,94,11.47,90,13.1,301.8,335.9,303.9
842.6,1638,14.3,13.3,94,11.48,90,13.0,301.8,335.9,303.9
842.1,1643,14.2,13.4,95,11.53,90,13.0,301.8,336.1,303.9
841.6,1648,14.2,13.4,95,11.59,90,13.0,301.8,336.3,303.9
841.2,1653,14.1,13.5,96,11.62,90,12.9,301.8,336.3,303.9
840.7,1657,14.1,13.5,96,11.62,91,12.9,301.8,336.3,303.9
840.3,1662,14.0,13.4,96,11.59,91,12.9,301.8,336.3,303.9
839.9,1666,14.0,13.4,96,11.58,91,12.8,301.8,336.2,303.9
839.4,1670,14.0,13.4,96,11.58,91,12.8,301.9,336.3,304.0
839.0,1674,14.0,13.4,96,11.58,91,12.8,301.9,336.3,304.0
838.6,1679,13.9,13.3,96,11.56,92,12.7,301.9,336.2,304.0
838.1,1683,13.9,13.3,96,11.54,92,12.7,301.9,336.2,304.0
837.6,1688,13.9,13.3,96,11.52,92,12.7,301.9,336.2,304.0
837.1,1693,13.8,13.3,96,11.52,92,12.7,301.9,336.2,304.0
836.6,1698,13.8,13.3,97,11.52,92,12.6,301.9,336.2,304.0
836.1,1704,13.7,13.3,97,11.53,93,12.6,301.9,336.2,304.0
835.6,1709,13.7,13.3,97,11.55,93,12.6,302.0,336.3,304.0
835.0,1715,13.7,13.3,97,11.55,93,12.6,302.0,336.3,304.1
834.5,1720,13.6,13.3,98,11.57,93,12.6,302.0,336.4,304.1
834.0,1725,13.6,13.3,98,11.59,93,12.6,302.0,336.5,304.1
833.4,1731,13.6,13.3,98,11.60,93,12.6,302.0,336.5,304.1
832.9,1736,13.5,13.3,98,11.58,93,12.6,302.0,336.5,304.1
832.4,1741,13.5,13.2,98,11.52,93,12.6,302.0,336.3,304.1
832.0,1746,13.4,13.1,98,11.46,94,12.6,302.0,336.1,304.1
831.5,1750,13.4,13.0,98,11.42,94,12.6,302.1,336.0,304.1
831.1,1755,13.4,13.0,98,11.42,94,12.6,302.1,336.1,304.2
830.7,1759,13.4,13.0,98,11.44,94,12.6,302.1,336.1,304.2
830.2,1763,13.3,13.1,98,11.46,94,12.7,302.1,336.2,304.2
829.8,1767,13.3,13.0,98,11.45,94,12.7,302.1,336.2,304.2
829.4,1772,13.3,13.0,98,11.41,94,12.7,302.1,336.1,304.2
828.9,1776,13.2,12.9,98,11.34,94,12.7,302.2,335.9,304.2
828.5,1781,13.3,12.8,97,11.26,94,12.8,302.2,335.7,304.3
828.0,1786,13.3,12.7,96,11.19,93,12.8,302.3,335.6,304.3
827.5,1791,13.3,12.6,96,11.15,93,12.8,302.3,335.6,304.3
827.0,1796,13.2,12.6,96,11.13,93,12.9,302.4,335.5,304.4
826.4,1802,13.2,12.5,96,11.12,93,12.9,302.4,335.6,304.4
825.9,1807,13.2,12.5,96,11.12,93,12.9,302.4,335.6,304.4
825.4,1813,13.2,12.5,96,11.10,93,13.0,302.5,335.6,304.5
824.8,1818,13.2,12.5,96,11.11,93,13.0,302.5,335.6,304.5
824.3,1824,13.1,12.5,96,11.10,93,13.0,302.5,335.6,304.5
823.8,1829,13.1,12.4,96,11.09,93,13.0,302.5,335.6,304.5
823.2,1835,13.0,12.4,96,11.06,93,13.0,302.5,335.5,304.5
822.7,1840,12.9,12.3,96,11.02,92,13.1,302.5,335.4,304.5
822.2,1845,12.9,12.3,96,10.99,92,13.1,302.5,335.3,304.5
821.7,1851,12.9,12.3,96,10.98,92,13.1,302.5,335.3,304.5
821.1,1856,12.9,12.3,96,11.00,92,13.1,302.6,335.4,304.6
820.6,1861,12.8,12.3,97,11.00,92,13.1,302.6,335.4,304.6
820.1,1867,12.8,12.2,97,10.97,92,13.0,302.6,335.3,304.6
819.6,1872,12.7,12.2,97,10.94,92,13.0,302.6,335.2,304.6
819.1,1877,12.7,12.1,96,10.91,91,13.0,302.6,335.2,304.6
818.5,1883,12.7,12.0,96,10.86,91,13.0,302.7,335.1,304.6
818.0,1888,12.7,12.0,96,10.84,91,12.9,302.7,335.1,304.7
817.5,1894,12.6,12.0,96,10.83,91,12.9,302.7,335.0,304.7
816.9,1899,12.6,12.0,96,10.82,90,12.9,302.7,335.0,304.7
816.4,1905,12.5,12.0,96,10.83,90,12.8,302.7,335.1,304.7
815.9,1910,12.5,12.0,97,10.83,90,12.8,302.7,335.1,304.7
815.4,1916,12.4,11.9,97,10.83,90,12.7,302.7,335.1,304.7
814.8,1921,12.4,11.9,97,10.83,89,12.7,302.7,335.1,304.7
814.3,1926,12.3,11.9,97,10.81,89,12.7,302.7,335.0,304.7
813.8,1932,12.3,11.9,97,10.81,88,12.6,302.8,335.1,304.7
