PRES,HGHT,TEMP,DWPT,RELH,MIXR,DRCT,SPED,THTA,THTE,THTV
1017.1,31,23.1,21.0,88,15.59,52,5.0,294.8,339.6,297.6
1016.7,34,23.3,21.3,88,15.85,52,4.4,295.1,340.7,297.9
1016.2,39,23.2,21.2,89,15.78,53,4.5,295.0,340.3,297.7
1015.5,44,23.1,21.1,89,15.74,54,4.8,295.0,340.2,297.8
1014.9,50,23.1,21.1,88,15.68,54,5.1,295.0,340.1,297.8
1014.3,55,23.1,21.0,88,15.63,55,5.5,295.0,340.0,297.8
1013.8,59,23.0,20.9,88,15.55,55,5.8,295.0,339.8,297.8
1013.3,63,23.0,20.9,88,15.49,56,6.1,295.0,339.6,297.8
1012.8,67,23.0,20.8,88,15.44,56,6.4,295.0,339.5,297.8
1012.3,72,23.0,20.8,87,15.42,57,6.7,295.1,339.5,297.8
1011.8,76,23.0,20.8,88,15.45,58,7.0,295.1,339.6,297.8
1011.3,81,22.9,20.8,88,15.46,58,7.2,295.1,339.6,297.8
1010.8,85,22.8,20.7,88,15.40,59,7.5,295.0,339.3,297.8
1010.2,90,22.8,20.6,88,15.31,60,7.7,295.1,339.1,297.8
1009.7,94,22.9,20.6,87,15.28,60,7.9,295.2,339.2,297.9
1009.2,99,23.1,20.6,86,15.27,61,8.0,295.4,339.4,298.1
1008.7,103,23.1,20.5,85,15.25,62,8.2,295.6,339.5,298.3
1008.2,108,23.2,20.6,85,15.29,62,8.3,295.6,339.7,298.3
1007.6,112,23.2,20.6,86,15.35,63,8.4,295.7,340.0,298.4
1007.1,117,23.1,20.6,86,15.38,64,8.5,295.7,340.1,298.4
1006.6,121,23.1,20.7,86,15.42,65,8.5,295.7,340.2,298.4
1006.1,125,23.1,20.7,86,15.44,65,8.6,295.7,340.2,298.4
1005.7,130,23.0,20.7,87,15.44,66,8.6,295.7,340.2,298.4
1005.2,134,23.0,20.7,87,15.44,67,8.6,295.7,340.2,298.4
1004.7,138,23.0,20.6,87,15.41,68,8.6,295.7,340.2,298.5
1004.3,141,23.0,20.6,86,15.38,69,8.6,295.8,340.1,298.5
1003.8,145,23.0,20.6,86,15.40,69,8.6,295.8,340.3,298.5
1003.4,149,23.0,20.6,87,15.43,70,8.6,295.9,340.4,298.6
1002.9,153,23.0,20.6,87,15.44,71,8.5,295.9,340.5,298.6
1002.5,157,22.9,20.6,87,15.43,71,8.5,295.9,340.4,298.6
1002.0,161,22.9,20.6,87,15.44,72,8.5,295.9,340.4,298.6
1001.5,166,22.8,20.6,87,15.45,73,8.4,295.9,340.4,298.6
1001.0,170,22.8,20.6,87,15.44,73,8.4,295.9,340.4,298.6
1000.5,174,22.7,20.6,88,15.42,74,8.4,295.8,340.3,298.5
1000.0,179,22.6,20.6,88,15.42,75,8.3,295.8,340.3,298.5
999.5,183,22.6,20.6,88,15.43,75,8.3,295.8,340.3,298.5
999.0,188,22.6,20.6,88,15.44,75,8.3,295.8,340.4,298.5
998.5,192,22.5,20.6,89,15.43,76,8.3,295.8,340.4,298.5
998.0,196,22.5,20.5,89,15.43,76,8.3,295.8,340.4,298.6
997.5,200,22.5,20.5,89,15.44,76,8.2,295.8,340.4,298.6
997.0,205,22.5,20.5,89,15.44,77,8.2,295.9,340.4,298.6
996.5,209,22.5,20.5,89,15.41,77,8.2,295.9,340.4,298.6
996.0,214,22.4,20.4,89,15.36,77,8.2,295.9,340.3,298.6
995.5,218,22.4,20.4,89,15.33,77,8.2,295.9,340.2,298.6
995.0,222,22.3,20.4,89,15.31,78,8.2,295.9,340.1,298.6
994.5,227,22.3,20.4,89,15.34,78,8.2,295.9,340.2,298.6
994.0,231,22.3,20.4,89,15.35,78,8.2,295.9,340.3,298.6
993.5,236,22.2,20.4,89,15.32,78,8.2,295.9,340.2,298.6
993.0,240,22.2,20.3,89,15.28,78,8.2,295.9,340.1,298.6
992.5,245,22.2,20.3,89,15.31,78,8.2,295.9,340.1,298.6
991.9,250,22.1,20.4,90,15.35,78,8.2,295.9,340.3,298.7
991.4,254,22.1,20.4,90,15.36,78,8.2,295.9,340.3,298.7
990.9,259,22.0,20.3,90,15.35,78,8.2,295.9,340.3,298.7
990.3,264,22.0,20.3,90,15.34,78,8.2,295.9,340.2,298.7
989.8,268,21.9,20.3,91,15.35,78,8.3,295.9,340.3,298.7
989.3,273,21.9,20.3,91,15.38,78,8.3,295.9,340.4,298.7
988.7,278,21.8,20.4,91,15.42,79,8.3,295.9,340.5,298.7
988.2,283,21.8,20.4,92,15.44,79,8.3,295.9,340.5,298.7
987.6,288,21.7,20.4,92,15.44,79,8.3,295.9,340.5,298.7
987.0,293,21.7,20.4,92,15.42,79,8.4,296.0,340.5,298.7
986.5,298,21.7,20.4,92,15.43,79,8.4,296.0,340.5,298.7
986.0,302,21.6,20.4,93,15.44,79,8.4,295.9,340.5,298.7
985.4,307,21.6,20.3,93,15.43,79,8.4,296.0,340.5,298.7
984.9,312,21.5,20.3,93,15.41,79,8.5,296.0,340.4,298.7
984.4,316,21.5,20.3,93,15.39,79,8.5,296.0,340.4,298.7
983.9,320,21.5,20.3,93,15.37,79,8.5,296.0,340.4,298.7
983.4,325,21.4,20.2,93,15.35,79,8.6,296.0,340.3,298.7
982.9,329,21.4,20.2,93,15.35,79,8.6,296.0,340.3,298.7
982.5,333,21.3,20.2,93,15.38,79,8.7,296.0,340.4,298.7
982.0,337,21.3,20.3,94,15.41,79,8.7,296.0,340.5,298.7
981.6,341,21.3,20.3,94,15.45,79,8.7,296.0,340.6,298.7
981.1,345,21.2,20.3,95,15.47,79,8.8,296.0,340.6,298.7
980.6,349,21.2,20.3,95,15.49,79,8.8,296.0,340.7,298.7
980.2,353,21.1,20.3,95,15.50,79,8.9,296.0,340.7,298.7
979.7,357,21.1,20.3,95,15.51,78,8.9,296.0,340.8,298.7
979.3,362,21.1,20.3,95,15.50,78,8.9,296.0,340.7,298.7
978.8,366,21.0,20.3,95,15.46,78,9.0,296.0,340.6,298.7
978.4,370,21.0,20.2,95,15.42,78,9.0,296.0,340.5,298.7
977.9,374,21.0,20.2,95,15.37,78,9.1,296.0,340.4,298.7
977.5,378,20.9,20.1,95,15.35,77,9.1,296.0,340.3,298.7
977.0,382,20.9,20.1,95,15.37,77,9.1,296.0,340.4,298.7
976.5,386,20.9,20.2,96,15.41,77,9.1,296.0,340.5,298.7
976.1,390,20.8,20.2,96,15.44,76,9.2,296.0,340.6,298.7
975.6,394,20.8,20.2,97,15.45,76,9.2,296.0,340.6,298.7
975.1,398,20.7,20.2,97,15.45,76,9.2,296.0,340.6,298.7
974.7,402,20.7,20.2,97,15.43,75,9.2,296.0,340.6,298.7
974.2,406,20.6,20.1,97,15.42,75,9.2,296.0,340.5,298.7
973.8,410,20.6,20.1,97,15.42,75,9.2,296.0,340.5,298.7
973.4,414,20.6,20.1,97,15.41,74,9.2,296.0,340.5,298.7
973.0,417,20.5,20.1,97,15.40,74,9.1,296.0,340.5,298.7
972.6,421,20.5,20.1,98,15.41,74,9.1,296.0,340.5,298.7
972.2,424,20.5,20.1,98,15.40,74,9.1,296.0,340.4,298.7
971.8,428,20.4,20.1,98,15.37,74,9.1,296.0,340.4,298.7
971.4,432,20.4,20.0,98,15.36,74,9.0,296.0,340.4,298.7
971.0,435,20.4,20.0,98,15.36,74,9.0,296.0,340.4,298.7
970.6,439,20.3,20.0,98,15.35,74,8.9,296.0,340.3,298.7
970.1,443,20.3,20.0,98,15.32,74,8.9,296.0,340.3,298.7
969.7,446,20.3,19.9,98,15.29,74,8.8,296.0,340.2,298.7
969.3,450,20.3,19.9,98,15.30,75,8.8,296.0,340.2,298.8
968.9,454,20.2,20.0,98,15.36,75,8.7,296.1,340.4,298.8
968.5,458,20.2,20.1,99,15.46,76,8.7,296.1,340.7,298.8
968.0,462,20.2,20.1,100,15.52,76,8.7,296.1,340.9,298.8
967.6,466,20.1,20.1,100,15.52,76,8.6,296.1,340.9,298.8
967.2,469,20.1,20.1,100,15.50,77,8.6,296.1,340.8,298.8
966.7,473,20.1,20.1,100,15.46,78,8.6,296.1,340.7,298.8
966.3,477,20.0,20.0,100,15.38,78,8.6,296.1,340.5,298.8
965.9,481,20.0,19.9,99,15.30,79,8.5,296.1,340.3,298.8
965.4,485,20.0,19.8,99,15.27,79,8.5,296.1,340.2,298.8
965.0,489,19.9,19.8,99,15.25,80,8.5,296.1,340.1,298.8
964.6,492,19.9,19.8,99,15.23,81,8.5,296.1,340.1,298.8
964.2,496,19.9,19.8,99,15.22,81,8.5,296.1,340.0,298.8
963.8,500,19.8,19.7,99,15.20,82,8.5,296.1,340.0,298.8
963.3,504,19.8,19.7,99,15.18,82,8.5,296.1,340.0,298.8
962.9,507,19.8,19.7,100,15.19,83,8.5,296.1,340.0,298.8
962.5,511,19.8,19.7,100,15.22,83,8.5,296.1,340.1,298.8
962.1,515,19.8,19.8,100,15.24,84,8.5,296.2,340.2,298.9
961.7,519,19.7,19.7,100,15.21,84,8.5,296.2,340.1,298.9
961.2,523,19.7,19.7,100,15.17,85,8.5,296.2,340.0,298.9
960.8,527,19.7,19.6,100,15.15,86,8.5,296.2,340.0,298.9
960.3,531,19.7,19.7,100,15.19,86,8.5,296.3,340.2,299.0
959.9,535,19.7,19.7,100,15.21,87,8.4,296.3,340.3,299.0
959.4,539,19.7,19.6,100,15.18,88,8.4,296.3,340.2,299.0
959.0,543,19.7,19.6,100,15.13,88,8.4,296.3,340.1,299.0
958.5,547,19.6,19.4,99,14.99,89,8.4,296.3,339.6,298.9
958.0,552,19.5,19.3,99,14.88,90,8.3,296.2,339.2,298.8
957.5,556,19.4,19.3,99,14.84,91,8.3,296.2,339.1,298.8
957.1,560,19.3,19.2,99,14.82,92,8.3,296.2,339.0,298.8
956.6,565,19.3,19.2,100,14.84,93,8.2,296.2,339.1,298.8
956.1,569,19.3,19.3,100,14.87,94,8.2,296.2,339.2,298.8
955.6,574,19.2,19.2,100,14.85,95,8.2,296.2,339.2,298.8
955.1,578,19.2,19.2,100,14.84,96,8.1,296.2,339.2,298.9
954.6,583,19.2,19.2,100,14.81,97,8.1,296.2,339.1,298.9
954.1,587,19.2,19.1,100,14.74,99,8.1,296.3,338.9,298.9
953.6,591,19.1,19.0,99,14.63,100,8.1,296.2,338.6,298.8
953.2,596,19.1,18.9,99,14.56,101,8.0,296.2,338.3,298.8
952.7,600,19.0,18.9,99,14.54,102,8.0,296.3,338.3,298.8
952.3,604,19.0,18.9,99,14.56,102,8.0,296.3,338.4,298.9
951.8,607,19.0,18.9,99,14.59,103,8.0,296.3,338.5,298.9
951.4,611,19.0,18.9,100,14.61,104,8.0,296.3,338.6,298.9
951.0,615,19.0,18.9,100,14.64,105,8.0,296.4,338.7,299.0
950.5,619,19.1,19.0,100,14.73,105,8.0,296.5,339.1,299.1
950.0,624,19.1,19.1,100,14.78,105,8.0,296.6,339.4,299.2
949.5,628,19.1,18.9,99,14.62,106,8.0,296.6,338.9,299.2
949.0,633,18.9,18.7,99,14.45,106,8.0,296.5,338.3,299.0
948.5,638,18.9,18.6,98,14.39,106,8.0,296.5,338.1,299.0
947.9,643,18.9,18.6,98,14.38,106,7.9,296.5,338.1,299.1
947.4,648,18.8,18.7,99,14.47,106,7.9,296.5,338.4,299.1
946.8,653,18.9,18.9,100,14.64,106,7.9,296.6,339.0,299.2
946.2,659,19.0,19.0,100,14.73,105,7.8,296.8,339.4,299.4
945.6,664,18.9,18.9,100,14.73,105,7.8,296.8,339.5,299.4
945.0,669,18.8,18.8,100,14.65,105,7.8,296.7,339.2,299.4
944.5,675,18.7,18.7,100,14.50,104,7.7,296.7,338.7,299.2
943.9,680,18.6,18.6,100,14.43,104,7.6,296.6,338.4,299.2
943.2,686,18.6,18.6,100,14.42,103,7.6,296.6,338.4,299.2
942.6,691,18.6,18.6,100,14.44,103,7.5,296.7,338.6,299.3
942.0,697,18.6,18.6,100,14.51,102,7.5,296.8,338.9,299.4
941.3,703,18.7,18.7,100,14.57,102,7.4,296.9,339.2,299.5
940.7,709,18.7,18.7,100,14.59,101,7.4,297.0,339.3,299.6
940.0,715,18.7,18.7,100,14.57,101,7.3,297.0,339.3,299.6
939.4,721,18.6,18.6,100,14.49,100,7.2,297.0,339.0,299.6
938.7,727,18.6,18.6,100,14.50,100,7.2,297.1,339.1,299.6
938.0,734,18.7,18.7,100,14.60,100,7.1,297.2,339.6,299.8
937.3,740,18.7,18.7,100,14.64,100,7.1,297.3,339.8,299.9
936.7,746,18.7,18.7,100,14.62,100,7.0,297.3,339.8,299.9
936.0,752,18.6,18.6,100,14.60,100,7.0,297.4,339.8,300.0
935.4,757,18.6,18.6,100,14.56,100,7.0,297.3,339.6,299.9
934.8,763,18.5,18.5,100,14.50,100,6.9,297.3,339.5,299.9
934.3,768,18.5,18.5,100,14.46,100,6.9,297.3,339.4,299.9
933.8,773,18.4,18.4,100,14.44,100,6.9,297.3,339.3,299.9
933.3,777,18.4,18.4,100,14.43,100,6.9,297.4,339.3,299.9
932.8,781,18.4,18.3,100,14.37,100,6.9,297.4,339.1,299.9
932.4,785,18.3,18.2,99,14.22,100,6.9,297.3,338.6,299.8
932.0,789,18.1,18.0,99,14.06,101,6.9,297.2,338.0,299.7
931.6,793,18.1,18.1,100,14.14,101,6.9,297.2,338.3,299.7
931.2,797,18.2,18.2,100,14.26,101,6.9,297.3,338.8,299.9
930.8,800,18.1,18.1,100,14.17,101,6.9,297.3,338.5,299.8
930.4,804,18.1,18.1,100,14.15,102,6.9,297.3,338.4,299.8
929.9,808,18.1,18.1,100,14.22,102,6.9,297.4,338.7,299.9
929.5,812,18.1,18.1,100,14.21,102,6.9,297.4,338.7,299.9
929.0,817,18.1,18.1,100,14.24,103,6.9,297.5,338.9,300.0
928.4,822,18.2,18.2,100,14.29,103,6.9,297.6,339.1,300.1
927.9,827,18.2,18.2,100,14.29,103,6.9,297.6,339.2,300.2
927.3,832,18.2,18.2,100,14.30,103,6.9,297.7,339.3,300.2
926.8,837,18.1,18.1,100,14.28,104,6.9,297.7,339.3,300.2
926.2,843,18.1,18.1,100,14.28,104,6.9,297.7,339.3,300.3
925.6,848,18.1,18.1,100,14.27,104,6.8,297.8,339.3,300.3
925.0,854,17.9,17.8,99,14.02,105,6.8,297.6,338.4,300.1
924.4,859,17.8,17.8,100,13.99,105,6.8,297.6,338.3,300.1
923.8,865,18.0,18.0,100,14.16,105,6.8,297.8,339.0,300.3
923.2,870,18.0,18.0,100,14.25,105,6.7,297.9,339.4,300.5
922.6,876,18.0,18.0,100,14.19,106,6.7,297.9,339.3,300.5
922.0,882,17.9,17.8,99,14.03,106,6.6,297.9,338.8,300.4
921.4,887,17.7,17.6,99,13.88,106,6.6,297.8,338.2,300.3
920.9,892,17.5,17.4,99,13.74,106,6.6,297.6,337.6,300.0
920.3,897,17.6,17.6,100,13.86,107,6.5,297.7,338.1,300.2
919.8,902,17.6,17.6,100,13.91,107,6.4,297.8,338.3,300.3
919.3,906,17.5,17.5,100,13.80,107,6.4,297.7,337.9,300.2
918.9,911,17.3,17.3,100,13.61,107,6.3,297.6,337.2,300.0
918.4,915,17.2,17.1,100,13.47,108,6.3,297.4,336.6,299.8
918.0,919,17.1,17.1,100,13.45,108,6.2,297.4,336.5,299.8
917.6,923,17.1,17.1,100,13.46,108,6.1,297.4,336.6,299.8
917.2,927,17.1,17.1,100,13.46,108,6.1,297.5,336.6,299.9
916.7,931,17.0,17.0,100,13.46,108,6.0,297.5,336.6,299.9
916.4,934,17.0,17.0,100,13.45,108,5.9,297.5,336.7,299.9
916.0,938,17.0,17.0,100,13.44,108,5.8,297.5,336.6,299.9
915.6,942,17.0,17.0,100,13.43,107,5.8,297.5,336.6,299.9
915.2,945,17.0,17.0,100,13.43,107,5.7,297.6,336.7,300.0
914.8,949,17.0,17.0,100,13.42,107,5.6,297.6,336.7,300.0
914.4,952,17.0,17.0,100,13.42,106,5.6,297.6,336.7,300.0
914.0,956,16.9,16.9,100,13.41,106,5.5,297.6,336.7,300.0
913.6,960,16.9,16.9,100,13.40,105,5.4,297.7,336.7,300.0
913.3,963,16.9,16.9,100,13.39,104,5.3,297.7,336.7,300.1
912.9,967,16.9,16.9,100,13.39,104,5.3,297.7,336.7,300.1
912.5,971,16.9,16.9,100,13.38,103,5.2,297.7,336.7,300.1
912.1,974,16.9,16.9,100,13.39,102,5.2,297.8,336.8,300.2
911.8,978,16.9,16.9,100,13.43,101,5.1,297.8,337.0,300.2
911.4,981,17.0,17.0,100,13.47,100,5.1,297.9,337.2,300.3
911.1,984,17.0,17.0,100,13.52,99,5.0,298.0,337.4,300.4
910.7,987,17.1,17.1,100,13.60,98,5.0,298.1,337.8,300.5
910.4,990,17.1,17.1,100,13.60,98,5.0,298.2,337.9,300.6
910.1,993,17.1,17.0,100,13.56,97,5.0,298.2,337.7,300.6
909.7,997,17.0,17.0,100,13.52,96,4.9,298.1,337.6,300.6
909.4,1000,17.0,16.9,100,13.48,96,4.9,298.1,337.4,300.5
909.0,1003,16.9,16.9,100,13.47,95,5.0,298.1,337.4,300.5
908.7,1006,16.9,16.9,100,13.41,95,5.0,298.0,337.2,300.4
908.3,1010,16.8,16.8,100,13.35,95,5.0,298.0,336.9,300.4
908.0,1013,16.8,16.8,100,13.34,95,5.0,298.0,336.9,300.4
907.6,1017,16.8,16.8,100,13.38,95,5.1,298.1,337.1,300.5
907.2,1020,16.8,16.8,100,13.39,95,5.1,298.1,337.2,300.5
906.8,1024,16.8,16.8,100,13.36,95,5.1,298.1,337.1,300.5
906.5,1027,16.7,16.7,100,13.31,96,5.2,298.1,337.0,300.5
906.1,1031,16.7,16.6,99,13.25,96,5.2,298.1,336.8,300.5
905.7,1034,16.7,16.6,100,13.26,97,5.3,298.2,336.9,300.5
905.4,1038,16.7,16.7,100,13.30,97,5.3,298.2,337.0,300.6
905.0,1041,16.7,16.7,100,13.32,98,5.4,298.2,337.1,300.6
904.6,1045,16.6,16.6,100,13.28,99,5.4,298.2,337.0,300.6
904.2,1048,16.6,16.6,100,13.26,100,5.4,298.2,336.9,300.6
903.8,1052,16.6,16.6,100,13.29,100,5.5,298.3,337.1,300.7
903.4,1056,16.6,16.6,100,13.31,101,5.5,298.3,337.2,300.7
903.1,1059,16.6,16.6,100,13.24,101,5.5,298.3,337.0,300.7
902.7,1063,16.5,16.5,100,13.18,102,5.6,298.3,336.7,300.6
902.3,1067,16.5,16.5,100,13.17,102,5.6,298.3,336.7,300.6
901.9,1070,16.4,16.4,100,13.11,103,5.6,298.3,336.5,300.6
901.6,1073,16.4,16.3,100,13.05,103,5.6,298.2,336.3,300.6
901.2,1077,16.4,16.3,100,13.06,103,5.6,298.3,336.4,300.6
900.9,1080,16.4,16.3,100,13.06,103,5.6,298.3,336.4,300.6
900.6,1083,16.4,16.3,100,13.05,103,5.6,298.3,336.4,300.6
900.2,1086,16.3,16.3,99,13.03,102,5.6,298.3,336.4,300.7
899.9,1090,16.3,16.2,99,13.02,102,5.6,298.3,336.4,300.7
899.5,1093,16.3,16.3,100,13.03,101,5.6,298.3,336.4,300.7
899.1,1097,16.3,16.3,100,13.06,100,5.6,298.4,336.5,300.7
898.7,1101,16.3,16.3,100,13.04,99,5.6,298.4,336.5,300.7
898.3,1104,16.2,16.2,100,13.03,99,5.6,298.4,336.5,300.7
897.9,1108,16.2,16.2,100,13.02,97,5.6,298.4,336.5,300.7
897.5,1112,16.2,16.2,100,13.03,96,5.6,298.4,336.5,300.8
897.1,1116,16.2,16.2,100,13.03,95,5.7,298.5,336.6,300.8
896.7,1120,16.2,16.2,100,13.03,94,5.7,298.5,336.6,300.9
896.3,1123,16.2,16.2,100,13.02,93,5.8,298.6,336.6,300.9
896.0,1127,16.2,16.2,100,13.04,92,5.8,298.6,336.7,300.9
895.6,1130,16.2,16.2,100,13.04,90,5.9,298.6,336.7,300.9
895.2,1134,16.2,16.2,100,13.03,89,6.0,298.6,336.7,301.0
894.9,1137,16.2,16.2,100,13.02,88,6.1,298.6,336.7,301.0
894.5,1141,16.2,16.2,100,13.02,87,6.2,298.7,336.8,301.0
894.1,1145,16.1,16.1,100,13.01,86,6.3,298.7,336.8,301.0
893.7,1148,16.1,16.1,100,13.01,86,6.4,298.7,336.8,301.0
893.3,1152,16.1,16.1,100,12.99,85,6.4,298.7,336.7,301.0
892.9,1156,16.1,16.1,100,12.98,84,6.5,298.7,336.7,301.1
892.4,1160,16.1,16.1,100,12.98,84,6.6,298.8,336.8,301.1
892.0,1165,16.0,16.0,100,12.95,83,6.7,298.8,336.7,301.1
891.6,1169,16.0,16.0,100,12.92,83,6.7,298.8,336.6,301.1
891.1,1173,16.0,16.0,100,12.91,82,6.8,298.8,336.6,301.1
890.7,1177,15.9,15.9,100,12.90,82,6.8,298.8,336.6,301.1
890.3,1181,15.9,15.9,100,12.90,82,6.8,298.8,336.6,301.2
889.8,1186,15.9,15.9,100,12.91,81,6.8,298.9,336.7,301.2
889.4,1190,16.0,16.0,100,12.94,81,6.8,299.0,336.9,301.3
888.9,1194,16.0,16.0,100,12.98,81,6.7,299.0,337.1,301.4
888.4,1199,16.0,16.0,100,13.00,81,6.7,299.1,337.2,301.4
887.9,1204,16.0,16.0,100,12.95,81,6.6,299.1,337.1,301.4
887.4,1208,15.9,15.9,100,12.90,80,6.6,299.1,336.9,301.4
886.9,1214,15.9,15.9,100,12.90,80,6.5,299.1,336.9,301.4
886.3,1219,15.9,15.9,100,12.93,80,6.4,299.2,337.1,301.5
885.7,1225,15.9,15.9,100,12.95,80,6.3,299.3,337.2,301.6
885.1,1231,15.9,15.9,100,12.92,80,6.2,299.3,337.2,301.6
884.5,1237,15.8,15.8,100,12.87,80,6.1,299.3,337.0,301.6
883.9,1243,15.7,15.7,100,12.83,80,5.9,299.2,336.9,301.6
883.3,1249,15.7,15.7,100,12.78,80,5.8,299.3,336.8,301.5
882.7,1254,15.7,15.6,100,12.75,80,5.7,299.3,336.7,301.6
882.1,1260,15.6,15.6,100,12.74,80,5.5,299.3,336.7,301.6
881.5,1265,15.6,15.6,100,12.74,80,5.4,299.3,336.7,301.6
881.0,1271,15.6,15.6,100,12.74,80,5.3,299.4,336.8,301.7
880.4,1276,15.6,15.6,100,12.77,81,5.2,299.5,336.9,301.7
879.9,1281,15.6,15.6,100,12.80,81,5.1,299.5,337.1,301.8
879.3,1287,15.6,15.6,100,12.79,82,4.9,299.6,337.2,301.9
878.7,1292,15.6,15.6,100,12.78,83,4.8,299.6,337.2,301.9
878.1,1298,15.6,15.6,100,12.77,83,4.8,299.6,337.2,301.9
877.5,1304,15.5,15.5,100,12.74,84,4.7,299.7,337.1,301.9
876.9,1310,15.5,15.5,100,12.74,86,4.6,299.7,337.2,302.0
876.3,1316,15.5,15.5,100,12.75,87,4.5,299.7,337.2,302.0
875.6,1323,15.5,15.5,100,12.76,89,4.5,299.8,337.3,302.1
875.0,1329,15.5,15.5,100,12.73,90,4.5,299.8,337.3,302.1
874.3,1335,15.4,15.4,100,12.70,92,4.5,299.9,337.2,302.1
873.6,1342,15.4,15.4,100,12.68,94,4.5,299.9,337.2,302.2
873.0,1348,15.3,15.3,100,12.65,95,4.5,299.9,337.1,302.2
872.3,1355,15.3,15.3,100,12.64,97,4.5,299.9,337.1,302.2
871.7,1361,15.3,15.3,100,12.63,99,4.6,300.0,337.1,302.2
871.1,1367,15.3,15.3,100,12.62,101,4.6,300.0,337.2,302.3
870.4,1373,15.2,15.2,100,12.62,102,4.7,300.1,337.2,302.3
869.8,1379,15.2,15.2,100,12.61,104,4.8,300.1,337.2,302.4
869.2,1385,15.2,15.2,100,12.61,105,4.9,300.1,337.3,302.4
868.6,1391,15.2,15.2,100,12.62,107,5.0,300.2,337.4,302.5
868.0,1397,15.2,15.2,100,12.60,108,5.2,300.2,337.4,302.5
867.4,1403,15.1,15.1,100,12.58,109,5.3,300.2,337.3,302.5
866.8,1409,15.1,15.1,100,12.55,110,5.5,300.3,337.3,302.5
866.2,1414,15.1,15.1,100,12.54,110,5.6,300.3,337.3,302.6
865.7,1420,15.0,15.0,100,12.51,111,5.8,300.3,337.2,302.6
865.1,1425,15.0,15.0,100,12.51,111,5.9,300.3,337.2,302.6
864.6,1430,15.0,15.0,100,12.50,111,6.1,300.4,337.2,302.6
864.1,1435,15.0,15.0,100,12.49,112,6.2,300.4,337.2,302.7
863.6,1440,14.9,14.9,100,12.46,112,6.4,300.4,337.2,302.7
863.1,1445,14.9,14.9,100,12.44,111,6.5,300.4,337.1,302.7
862.7,1449,14.9,14.9,100,12.43,111,6.6,300.4,337.1,302.7
862.2,1454,14.9,14.9,100,12.43,111,6.8,300.5,337.2,302.7
861.8,1458,14.9,14.9,100,12.43,111,6.9,300.5,337.2,302.8
861.3,1463,14.9,14.9,100,12.43,110,7.0,300.6,337.2,302.8
860.9,1467,14.8,14.8,100,12.41,110,7.1,300.6,337.2,302.8
860.4,1472,14.8,14.8,100,12.39,110,7.2,300.6,337.2,302.8
859.9,1477,14.8,14.8,100,12.39,109,7.3,300.6,337.2,302.8
859.4,1482,14.8,14.8,100,12.38,109,7.4,300.6,337.2,302.9
858.9,1487,14.7,14.7,100,12.37,108,7.5,300.7,337.2,302.9
858.3,1492,14.7,14.7,100,12.36,108,7.6,300.7,337.2,302.9
857.8,1497,14.7,14.7,100,12.35,107,7.6,300.7,337.2,303.0
857.3,1502,14.7,14.7,100,12.34,107,7.7,300.8,337.2,303.0
856.8,1508,14.7,14.7,100,12.33,106,7.7,300.8,337.2,303.0
856.3,1513,14.6,14.6,100,12.32,106,7.8,300.8,337.2,303.0
855.7,1518,14.5,14.5,100,12.26,106,7.8,300.8,337.0,303.0
855.2,1523,14.5,14.5,100,12.20,106,7.8,300.8,336.8,303.0
854.6,1529,14.4,14.4,100,12.16,105,7.8,300.7,336.7,302.9
854.1,1534,14.3,14.3,100,12.12,105,7.8,300.7,336.6,302.9
853.6,1540,14.4,14.4,100,12.15,105,7.8,300.8,336.7,303.0
853.0,1545,14.4,14.4,100,12.18,105,7.8,300.9,336.9,303.1
852.5,1550,14.4,14.4,100,12.18,105,7.8,300.9,337.0,303.1
852.0,1555,14.3,14.3,100,12.15,106,7.7,301.0,336.9,303.1
851.5,1560,14.3,14.3,100,12.14,106,7.7,301.0,336.9,303.2
850.9,1566,14.3,14.3,100,12.14,106,7.6,301.0,336.9,303.2
850.4,1571,14.3,14.3,100,12.15,106,7.5,301.1,337.0,303.3
850.0,1575,14.3,14.3,100,12.15,106,7.5,301.1,337.1,303.3
849.9,1576,14.3,14.3,100,12.15,107,7.5,301.1,337.1,303.3
849.3,1582,14.3,14.3,100,12.16,107,7.4,301.2,337.2,303.4
848.7,1587,14.3,14.3,100,12.16,108,7.3,301.2,337.2,303.4
848.2,1593,14.3,14.3,100,12.15,108,7.2,301.3,337.3,303.5
847.6,1599,14.3,14.3,100,12.15,109,7.1,301.3,337.3,303.5
846.9,1605,14.2,14.2,100,12.13,109,7.0,301.3,337.3,303.5
846.3,1612,14.2,14.2,100,12.13,110,6.9,301.4,337.3,303.6
845.7,1618,14.2,14.2,100,12.16,110,6.8,301.5,337.5,303.7
845.0,1625,14.3,14.3,100,12.18,111,6.6,301.6,337.7,303.8
844.3,1632,14.2,14.2,100,12.18,112,6.5,301.6,337.7,303.8
843.7,1638,14.3,14.3,100,12.20,112,6.3,301.7,337.9,303.9
843.0,1645,14.2,14.2,100,12.20,113,6.2,301.8,337.9,304.0
842.4,1651,14.2,14.2,100,12.14,113,6.1,301.7,337.8,303.9
