PRES,HGHT,TEMP,DWPT,RELH,MIXR,DRCT,SPED,THTA,THTE,THTV
1017.5,31,26.1,22.0,78,16.56,72,5.2,297.8,346.0,300.7
1016.8,37,25.9,21.9,79,16.51,65,3.9,297.6,345.7,300.6
1016.1,43,25.7,21.9,79,16.48,61,3.6,297.5,345.4,300.4
1015.6,47,25.5,21.8,80,16.38,60,3.7,297.3,344.9,300.2
1014.9,53,25.3,21.6,80,16.25,60,4.0,297.2,344.4,300.1
1014.3,59,25.1,21.5,80,16.08,60,4.3,297.0,343.7,299.9
1013.4,66,24.8,21.3,81,15.91,60,4.6,296.8,343.0,299.7
1012.6,73,24.5,21.1,81,15.71,60,4.8,296.6,342.1,299.4
1011.9,79,24.3,20.8,81,15.49,60,5.0,296.4,341.2,299.2
1011.2,85,24.0,20.7,81,15.33,60,5.2,296.2,340.6,298.9
1010.5,91,23.9,20.7,82,15.36,61,5.4,296.2,340.6,298.9
1009.8,97,23.8,20.5,82,15.24,61,5.6,296.1,340.1,298.8
1009.2,103,23.5,20.3,82,15.02,61,5.8,295.9,339.3,298.6
1008.5,109,23.4,20.2,82,14.96,61,6.0,295.8,339.0,298.5
1007.9,114,23.4,20.2,83,14.97,61,6.1,295.8,339.1,298.5
1007.2,120,23.3,20.2,83,14.97,62,6.3,295.8,339.1,298.5
1006.6,125,23.2,20.2,83,14.97,62,6.4,295.8,339.1,298.5
1006.0,131,23.2,20.2,83,14.96,62,6.5,295.8,339.0,298.5
1005.3,136,23.1,20.1,83,14.93,63,6.6,295.8,339.0,298.5
1004.7,142,23.1,20.1,83,14.90,63,6.7,295.8,338.8,298.5
1004.1,147,23.0,20.1,83,14.88,63,6.8,295.8,338.8,298.5
1003.5,152,23.0,20.0,83,14.84,64,6.8,295.9,338.7,298.5
1002.9,158,23.0,20.0,83,14.83,64,6.9,295.9,338.7,298.5
1002.3,163,22.9,20.0,84,14.85,65,7.0,295.9,338.7,298.5
1001.7,168,22.9,20.0,84,14.86,65,7.0,295.9,338.8,298.5
1001.1,173,22.8,20.0,84,14.88,65,7.0,295.9,338.8,298.5
1000.5,178,22.8,20.1,85,14.94,66,7.1,295.9,339.0,298.5
1000.0,183,22.7,20.1,85,15.01,66,7.1,295.9,339.2,298.5
999.9,183,22.7,20.1,85,15.02,66,7.1,295.9,339.2,298.5
999.3,188,22.7,20.2,86,15.06,66,7.2,295.9,339.4,298.5
998.8,193,22.6,20.2,86,15.06,67,7.2,295.9,339.4,298.5
998.2,198,22.6,20.1,86,15.01,67,7.2,295.9,339.2,298.5
997.7,203,22.5,20.0,86,14.96,67,7.2,295.9,339.1,298.5
997.1,208,22.5,20.0,86,14.90,67,7.3,295.9,338.9,298.5
996.5,213,22.5,19.9,86,14.86,67,7.3,295.9,338.8,298.5
996.0,218,22.4,19.9,86,14.84,67,7.3,295.9,338.7,298.5
995.4,223,22.4,19.9,86,14.83,67,7.3,295.9,338.7,298.5
994.8,228,22.3,19.9,86,14.85,67,7.4,295.9,338.8,298.5
994.2,233,22.3,19.9,87,14.90,67,7.4,295.9,338.9,298.5
993.7,238,22.2,19.9,87,14.91,67,7.4,295.9,339.0,298.5
993.1,243,22.2,19.9,87,14.89,67,7.4,295.9,338.9,298.5
992.6,248,22.1,19.8,87,14.84,67,7.4,295.9,338.8,298.5
992.0,252,22.1,19.8,87,14.82,66,7.5,295.9,338.7,298.5
991.5,257,22.1,19.8,87,14.79,66,7.5,295.9,338.6,298.5
990.9,262,22.0,19.7,87,14.77,66,7.5,295.9,338.6,298.5
990.4,267,22.0,19.7,87,14.77,65,7.5,295.9,338.6,298.5
989.8,272,21.9,19.8,88,14.80,65,7.5,295.9,338.7,298.5
989.2,278,21.9,19.8,88,14.84,65,7.5,295.9,338.8,298.5
988.6,283,21.8,19.8,89,14.88,64,7.6,295.9,338.9,298.5
988.0,288,21.7,19.8,89,14.88,64,7.6,295.9,338.9,298.5
987.4,293,21.7,19.8,89,14.87,63,7.6,295.9,338.8,298.5
986.8,299,21.6,19.8,89,14.87,63,7.6,295.9,338.8,298.5
986.2,304,21.6,19.7,89,14.84,63,7.7,295.9,338.8,298.5
985.6,309,21.5,19.7,89,14.83,63,7.7,295.9,338.7,298.5
985.0,314,21.5,19.7,90,14.84,62,7.7,295.9,338.8,298.5
984.5,319,21.4,19.7,90,14.83,62,7.8,295.9,338.7,298.5
983.9,324,21.4,19.7,90,14.82,62,7.8,295.9,338.7,298.5
983.3,329,21.3,19.7,90,14.83,62,7.8,295.9,338.7,298.5
982.8,334,21.3,19.7,91,14.86,62,7.9,295.9,338.8,298.5
982.2,339,21.3,19.8,91,14.92,62,7.9,295.9,339.0,298.6
981.6,344,21.2,19.8,92,14.98,62,7.9,295.9,339.2,298.6
981.1,349,21.1,19.8,92,14.97,62,8.0,295.9,339.1,298.6
980.5,355,21.1,19.8,92,14.97,62,8.0,295.9,339.1,298.6
979.9,360,21.0,19.8,93,15.00,62,8.1,295.9,339.2,298.6
979.3,365,21.0,19.8,93,15.03,63,8.1,295.9,339.3,298.6
978.7,370,20.9,19.8,93,15.02,63,8.2,295.9,339.3,298.6
978.1,376,20.9,19.8,93,15.03,63,8.2,295.9,339.3,298.6
977.5,381,20.8,19.8,94,15.08,63,8.3,295.9,339.5,298.6
976.9,386,20.8,19.9,94,15.10,64,8.3,295.9,339.5,298.6
976.3,391,20.7,19.8,94,15.06,64,8.4,295.9,339.4,298.6
975.8,396,20.7,19.8,94,15.02,64,8.4,295.9,339.3,298.5
975.2,402,20.6,19.7,95,15.00,65,8.5,295.9,339.2,298.5
974.6,407,20.6,19.7,94,14.94,65,8.6,295.9,339.1,298.6
974.0,412,20.6,19.5,94,14.85,66,8.6,295.9,338.8,298.6
973.4,417,20.5,19.5,94,14.77,66,8.7,296.0,338.6,298.6
972.8,423,20.5,19.5,94,14.78,66,8.7,296.0,338.7,298.6
972.2,428,20.5,19.5,94,14.86,67,8.8,296.0,338.9,298.6
971.6,434,20.4,19.6,95,14.94,67,8.9,296.0,339.1,298.6
971.0,439,20.3,19.6,96,14.95,68,8.9,295.9,339.1,298.6
970.4,445,20.3,19.5,95,14.87,68,9.0,295.9,338.9,298.6
969.8,450,20.3,19.3,94,14.71,68,9.0,296.0,338.5,298.6
969.2,455,20.2,19.2,94,14.60,69,9.1,296.0,338.2,298.6
968.6,461,20.2,19.2,94,14.63,69,9.1,296.0,338.3,298.6
968.0,466,20.2,19.2,94,14.59,69,9.1,296.0,338.2,298.6
967.4,471,20.1,18.9,93,14.35,70,9.2,296.1,337.5,298.6
966.9,476,20.2,18.5,90,14.03,70,9.2,296.1,336.7,298.6
966.3,481,20.2,18.4,89,13.89,70,9.2,296.2,336.4,298.7
965.8,485,20.2,18.4,89,13.91,71,9.2,296.3,336.5,298.7
965.3,490,20.2,18.4,90,13.94,71,9.2,296.3,336.6,298.8
964.8,494,20.1,18.4,90,13.98,71,9.2,296.3,336.8,298.8
964.3,498,20.1,18.5,90,13.99,71,9.2,296.3,336.8,298.8
963.9,503,20.1,18.4,90,13.99,71,9.2,296.3,336.8,298.8
963.4,507,20.0,18.5,91,14.01,72,9.2,296.3,336.9,298.8
963.0,511,20.0,18.5,91,14.02,72,9.2,296.3,336.9,298.8
962.5,515,20.0,18.5,91,14.03,72,9.2,296.3,336.9,298.8
962.0,519,19.9,18.4,91,14.02,72,9.1,296.3,336.9,298.8
961.5,524,19.9,18.4,91,14.01,72,9.1,296.3,336.9,298.8
961.1,528,19.8,18.4,91,14.00,72,9.1,296.3,336.8,298.8
960.6,532,19.8,18.4,91,13.98,72,9.0,296.3,336.8,298.8
960.1,537,19.8,18.3,91,13.95,72,9.0,296.3,336.7,298.8
959.6,541,19.7,18.3,91,13.92,72,8.9,296.4,336.6,298.8
959.1,546,19.7,18.3,92,13.92,71,8.9,296.4,336.7,298.8
958.5,551,19.7,18.3,92,13.93,71,8.9,296.4,336.7,298.9
958.0,555,19.7,18.3,92,13.92,71,8.8,296.4,336.7,298.9
957.5,560,19.6,18.3,92,13.91,71,8.8,296.4,336.7,298.9
957.0,564,19.6,18.2,92,13.91,71,8.7,296.4,336.7,298.9
956.5,569,19.5,18.2,92,13.89,70,8.7,296.4,336.7,298.9
956.0,574,19.5,18.2,92,13.85,70,8.7,296.5,336.6,298.9
955.5,578,19.5,18.1,92,13.80,70,8.6,296.5,336.5,298.9
955.0,583,19.5,18.1,92,13.79,70,8.6,296.5,336.5,299.0
954.4,588,19.5,18.1,92,13.79,69,8.6,296.5,336.5,299.0
953.9,593,19.4,18.0,92,13.78,69,8.5,296.6,336.5,299.0
953.3,598,19.4,18.0,92,13.75,69,8.5,296.6,336.4,299.0
952.8,603,19.4,17.9,91,13.71,68,8.5,296.6,336.3,299.0
952.2,608,19.4,17.9,91,13.72,68,8.5,296.6,336.4,299.1
951.7,613,19.3,17.9,92,13.72,68,8.4,296.6,336.4,299.1
951.1,618,19.3,17.9,92,13.72,67,8.4,296.6,336.4,299.1
950.5,623,19.2,17.9,92,13.71,67,8.4,296.7,336.4,299.1
949.9,629,19.2,17.9,92,13.70,67,8.4,296.7,336.4,299.1
949.3,634,19.2,17.8,92,13.67,67,8.4,296.7,336.3,299.1
948.7,640,19.1,17.7,92,13.59,67,8.3,296.7,336.1,299.1
948.1,646,19.1,17.6,91,13.50,66,8.3,296.7,335.9,299.1
947.4,651,19.1,17.5,90,13.39,66,8.3,296.8,335.6,299.2
946.8,657,19.1,17.4,90,13.35,66,8.3,296.8,335.6,299.2
946.2,663,19.0,17.4,90,13.33,66,8.2,296.8,335.5,299.2
945.6,668,19.0,17.4,90,13.30,66,8.2,296.8,335.5,299.2
945.0,674,19.0,17.3,90,13.26,66,8.2,296.9,335.4,299.2
944.4,679,18.9,17.2,90,13.21,66,8.2,296.9,335.3,299.3
943.8,684,18.9,17.2,90,13.19,66,8.1,296.9,335.2,299.3
943.3,689,18.9,17.2,90,13.16,66,8.1,297.0,335.2,299.3
942.7,694,18.9,17.1,89,13.11,66,8.1,297.0,335.1,299.3
942.2,699,18.9,17.0,89,13.08,66,8.1,297.0,335.0,299.4
941.6,704,18.9,17.0,89,13.06,67,8.0,297.1,335.0,299.4
941.1,710,18.8,17.0,89,13.05,67,8.0,297.1,335.0,299.4
940.5,715,18.8,17.0,89,13.06,67,8.0,297.1,335.1,299.4
939.9,720,18.8,17.0,89,13.07,67,7.9,297.1,335.1,299.5
939.3,725,18.7,17.0,90,13.08,67,7.9,297.1,335.1,299.5
938.8,730,18.7,17.0,90,13.10,67,7.9,297.1,335.2,299.4
938.2,736,18.6,17.0,90,13.08,68,7.8,297.1,335.2,299.5
937.6,741,18.6,16.9,90,13.06,68,7.8,297.1,335.1,299.5
937.1,746,18.5,16.9,90,13.03,68,7.8,297.2,335.0,299.5
936.5,751,18.5,16.8,90,13.00,68,7.7,297.2,335.0,299.5
935.9,756,18.5,16.8,90,12.98,68,7.7,297.2,335.0,299.5
935.4,762,18.5,16.8,90,12.97,69,7.7,297.2,335.0,299.6
934.8,767,18.4,16.7,90,12.93,69,7.7,297.3,334.9,299.6
934.2,773,18.4,16.7,90,12.89,69,7.6,297.3,334.8,299.6
933.6,778,18.4,16.6,89,12.84,69,7.6,297.3,334.7,299.6
933.0,784,18.3,16.6,89,12.80,69,7.6,297.3,334.6,299.6
932.3,790,18.3,16.5,89,12.76,69,7.6,297.3,334.5,299.6
931.7,795,18.3,16.4,89,12.71,69,7.6,297.4,334.4,299.6
931.1,801,18.2,16.4,89,12.69,69,7.5,297.4,334.3,299.7
930.6,806,18.2,16.4,89,12.72,69,7.5,297.4,334.4,299.7
930.0,811,18.2,16.5,90,12.77,69,7.5,297.4,334.6,299.7
929.4,816,18.1,16.5,90,12.79,69,7.6,297.4,334.7,299.7
928.9,821,18.1,16.5,90,12.78,69,7.6,297.4,334.6,299.7
928.3,827,18.0,16.4,90,12.76,68,7.6,297.4,334.6,299.7
927.8,832,18.0,16.4,90,12.73,68,7.6,297.5,334.5,299.7
927.3,837,18.0,16.3,90,12.68,68,7.6,297.5,334.4,299.7
926.7,842,17.9,16.3,90,12.68,68,7.6,297.5,334.4,299.8
926.2,847,17.9,16.3,90,12.70,68,7.7,297.5,334.5,299.8
925.6,852,17.9,16.3,91,12.73,67,7.7,297.5,334.6,299.8
925.1,857,17.8,16.4,91,12.76,67,7.7,297.5,334.7,299.8
925.0,857,17.8,16.4,91,12.77,67,7.7,297.5,334.7,299.8
924.5,862,17.8,16.4,92,12.79,67,7.7,297.5,334.8,299.8
924.0,867,17.7,16.4,92,12.80,67,7.8,297.5,334.8,299.8
923.4,872,17.7,16.4,92,12.82,67,7.8,297.5,334.9,299.8
922.8,878,17.6,16.4,92,12.80,66,7.8,297.5,334.8,299.8
922.3,883,17.6,16.3,92,12.76,66,7.8,297.5,334.7,299.8
921.7,888,17.5,16.3,92,12.72,66,7.9,297.5,334.6,299.8
921.2,893,17.5,16.2,92,12.71,66,7.9,297.5,334.6,299.8
920.7,898,17.4,16.2,93,12.71,66,7.9,297.5,334.6,299.8
920.2,902,17.4,16.2,93,12.68,66,7.9,297.5,334.5,299.8
919.6,907,17.4,16.1,92,12.64,65,7.9,297.6,334.4,299.8
919.1,912,17.3,16.0,92,12.58,65,7.9,297.6,334.2,299.8
918.6,917,17.3,16.0,92,12.51,65,7.9,297.6,334.0,299.8
918.1,922,17.3,15.9,92,12.46,65,7.9,297.6,333.9,299.8
917.5,927,17.2,15.8,91,12.43,65,7.9,297.6,333.8,299.8
917.0,932,17.2,15.8,91,12.42,65,7.9,297.6,333.8,299.9
916.4,937,17.2,15.8,92,12.45,64,7.8,297.7,334.0,299.9
915.9,942,17.1,15.9,92,12.49,64,7.8,297.7,334.1,299.9
915.3,948,17.1,15.9,93,12.51,64,7.8,297.7,334.1,299.9
914.7,953,17.0,15.9,93,12.51,64,7.8,297.7,334.1,299.9
914.2,958,17.0,15.9,93,12.50,64,7.7,297.7,334.1,299.9
913.6,964,17.0,15.8,93,12.47,63,7.7,297.7,334.1,299.9
913.0,969,16.9,15.8,93,12.45,63,7.7,297.7,334.0,299.9
912.4,975,16.9,15.7,93,12.41,63,7.6,297.7,333.9,299.9
911.8,981,16.8,15.7,93,12.38,63,7.6,297.7,333.8,299.9
911.1,987,16.8,15.6,93,12.35,62,7.6,297.7,333.8,300.0
910.5,993,16.7,15.6,93,12.31,62,7.5,297.8,333.7,300.0
909.9,998,16.7,15.5,93,12.28,62,7.5,297.8,333.6,300.0
909.3,1004,16.7,15.5,93,12.27,61,7.5,297.8,333.6,300.0
908.7,1010,16.6,15.5,93,12.29,61,7.5,297.8,333.7,300.0
908.1,1015,16.6,15.5,93,12.31,61,7.4,297.8,333.7,300.0
907.5,1021,16.5,15.6,94,12.34,60,7.4,297.8,333.8,300.0
907.0,1026,16.5,15.6,94,12.35,60,7.4,297.8,333.9,300.0
906.4,1031,16.5,15.6,94,12.35,60,7.4,297.9,333.9,300.1
905.9,1036,16.4,15.6,94,12.36,60,7.4,297.9,334.0,300.1
905.3,1041,16.4,15.6,95,12.37,60,7.4,297.9,334.0,300.1
904.8,1046,16.4,15.5,95,12.37,59,7.4,297.9,334.1,300.2
904.3,1051,16.4,15.5,95,12.38,59,7.4,298.0,334.1,300.2
903.7,1056,16.4,15.5,95,12.38,59,7.4,298.0,334.1,300.2
903.2,1062,16.3,15.5,95,12.36,59,7.3,298.0,334.1,300.2
902.6,1067,16.3,15.4,94,12.30,59,7.3,298.1,334.0,300.3
902.1,1072,16.3,15.3,94,12.20,59,7.3,298.1,333.8,300.3
901.5,1077,16.3,15.2,93,12.11,59,7.3,298.2,333.6,300.3
901.0,1082,16.3,15.1,92,12.05,59,7.3,298.2,333.4,300.4
900.4,1088,16.3,15.0,92,12.03,60,7.3,298.2,333.4,300.4
899.9,1093,16.3,15.0,92,12.01,60,7.3,298.3,333.4,300.4
899.4,1098,16.2,15.0,92,12.00,60,7.2,298.3,333.4,300.4
898.8,1103,16.2,14.9,92,11.97,60,7.2,298.3,333.3,300.5
898.3,1108,16.2,14.9,92,11.95,60,7.2,298.4,333.3,300.5
897.7,1113,16.2,14.9,92,11.94,61,7.2,298.4,333.3,300.5
897.2,1119,16.2,14.9,92,11.95,61,7.2,298.4,333.4,300.6
896.6,1124,16.1,14.9,93,11.98,61,7.1,298.4,333.5,300.6
896.1,1129,16.1,14.9,93,11.99,61,7.1,298.4,333.5,300.6
895.5,1134,16.0,14.9,93,12.00,62,7.1,298.4,333.5,300.6
895.0,1140,16.0,14.9,93,11.99,62,7.1,298.4,333.5,300.6
894.4,1145,15.9,14.8,93,11.95,62,7.1,298.4,333.4,300.6
893.8,1151,15.9,14.8,93,11.92,62,7.0,298.5,333.4,300.6
893.2,1156,15.9,14.8,93,11.92,63,7.0,298.5,333.4,300.6
892.7,1162,15.9,14.8,93,11.91,63,7.0,298.5,333.4,300.7
892.1,1167,15.8,14.8,93,11.92,63,7.0,298.6,333.5,300.7
891.5,1173,15.8,14.8,94,11.93,63,7.0,298.6,333.5,300.7
890.9,1178,15.8,14.8,94,11.95,63,7.0,298.6,333.6,300.7
890.3,1184,15.7,14.8,94,11.95,63,7.0,298.6,333.6,300.8
889.8,1189,15.7,14.8,94,11.97,63,7.0,298.6,333.7,300.8
889.2,1194,15.6,14.8,95,12.00,63,7.0,298.6,333.8,300.8
888.7,1200,15.6,14.8,95,12.02,63,7.0,298.6,333.8,300.8
888.1,1205,15.5,14.8,95,12.02,63,7.0,298.6,333.9,300.8
887.6,1210,15.5,14.8,96,12.04,63,7.1,298.7,333.9,300.8
887.0,1216,15.5,14.9,96,12.06,63,7.1,298.7,334.0,300.8
886.5,1221,15.4,14.9,97,12.10,62,7.1,298.7,334.1,300.8
885.9,1226,15.4,14.9,97,12.14,62,7.2,298.7,334.2,300.8
885.3,1232,15.3,15.0,98,12.17,62,7.2,298.7,334.3,300.9
884.8,1237,15.2,15.0,98,12.19,61,7.2,298.7,334.4,300.8
884.2,1242,15.2,14.9,98,12.17,61,7.3,298.7,334.3,300.9
883.7,1248,15.2,14.9,98,12.14,61,7.3,298.7,334.2,300.9
883.1,1253,15.1,14.9,98,12.13,60,7.4,298.7,334.2,300.9
882.6,1258,15.1,14.8,98,12.11,60,7.4,298.7,334.2,300.9
882.0,1264,15.1,14.8,98,12.06,59,7.4,298.8,334.1,300.9
881.5,1269,15.1,14.6,97,11.96,59,7.5,298.8,333.8,300.9
880.9,1275,15.1,14.5,96,11.83,59,7.5,298.9,333.6,301.0
880.3,1281,15.1,14.4,96,11.76,58,7.5,298.9,333.4,301.0
879.7,1286,15.0,14.3,95,11.72,58,7.6,298.9,333.3,301.0
879.1,1292,15.0,14.3,95,11.70,58,7.6,299.0,333.3,301.1
878.5,1298,15.0,14.2,95,11.69,57,7.6,299.0,333.3,301.1
877.9,1303,15.0,14.3,95,11.72,57,7.6,299.1,333.5,301.2
877.4,1308,15.0,14.3,96,11.75,57,7.6,299.1,333.6,301.2
876.9,1313,14.9,14.3,96,11.76,57,7.6,299.1,333.6,301.2
876.4,1318,14.9,14.3,96,11.76,57,7.6,299.1,333.7,301.2
875.9,1323,14.9,14.3,96,11.75,57,7.6,299.2,333.7,301.3
875.4,1328,14.9,14.2,96,11.72,57,7.6,299.2,333.6,301.3
874.9,1332,14.9,14.1,95,11.67,57,7.6,299.2,333.5,301.3
874.5,1337,14.9,14.0,95,11.60,57,7.6,299.3,333.4,301.3
874.0,1341,14.9,13.9,94,11.53,58,7.5,299.3,333.2,301.4
873.5,1346,14.9,13.8,94,11.46,58,7.5,299.3,333.1,301.4
873.0,1351,14.8,13.8,93,11.43,58,7.4,299.4,333.0,301.4
872.6,1355,14.8,13.8,94,11.44,59,7.4,299.4,333.0,301.4
872.1,1360,14.8,13.8,94,11.45,59,7.4,299.4,333.1,301.5
871.6,1365,14.8,13.8,94,11.46,59,7.3,299.4,333.1,301.5
871.1,1370,14.7,13.8,94,11.47,60,7.3,299.5,333.2,301.5
870.5,1375,14.7,13.8,94,11.46,60,7.3,299.5,333.2,301.5
870.0,1380,14.7,13.8,94,11.46,61,7.2,299.5,333.2,301.6
869.5,1385,14.7,13.8,94,11.45,61,7.2,299.5,333.2,301.6
868.9,1390,14.6,13.7,94,11.43,62,7.2,299.6,333.2,301.6
868.4,1396,14.6,13.7,94,11.42,62,7.2,299.6,333.2,301.6
867.9,1401,14.6,13.7,94,11.42,63,7.2,299.6,333.2,301.7
867.3,1407,14.5,13.6,94,11.40,63,7.2,299.6,333.2,301.7
866.7,1412,14.5,13.6,94,11.35,63,7.2,299.7,333.1,301.7
866.2,1418,14.5,13.5,94,11.27,64,7.2,299.7,332.9,301.7
865.6,1423,14.4,13.3,93,11.19,64,7.2,299.7,332.7,301.7
865.0,1429,14.4,13.2,93,11.13,64,7.2,299.7,332.5,301.7
864.4,1435,14.4,13.2,93,11.11,64,7.2,299.7,332.5,301.7
863.9,1440,14.3,13.2,93,11.11,65,7.2,299.7,332.5,301.7
863.3,1445,14.3,13.2,93,11.13,65,7.3,299.8,332.6,301.8
862.8,1451,14.2,13.2,94,11.14,65,7.3,299.8,332.6,301.8
862.3,1456,14.2,13.2,94,11.14,65,7.3,299.8,332.6,301.8
861.7,1461,14.2,13.2,94,11.13,65,7.4,299.8,332.6,301.8
861.2,1466,14.1,13.2,94,11.11,65,7.4,299.8,332.5,301.8
860.7,1472,14.1,13.1,94,11.08,65,7.4,299.8,332.5,301.8
860.1,1477,14.0,13.1,94,11.05,65,7.4,299.8,332.4,301.8
859.6,1482,14.0,13.0,94,11.01,65,7.5,299.8,332.3,301.8
859.0,1488,13.9,12.9,93,10.92,65,7.5,299.8,332.0,301.8
858.5,1493,13.9,12.6,92,10.77,65,7.5,299.8,331.6,301.8
858.0,1498,13.9,12.5,91,10.66,65,7.5,299.9,331.4,301.8
857.5,1503,13.9,12.4,91,10.60,65,7.5,299.9,331.2,301.8
857.0,1508,13.9,12.4,91,10.62,65,7.5,300.0,331.3,301.9
856.5,1512,13.9,12.5,91,10.67,65,7.5,300.0,331.5,301.9
856.0,1517,13.9,12.5,91,10.68,64,7.5,300.0,331.6,302.0
855.5,1522,13.9,12.4,91,10.64,64,7.5,300.1,331.5,302.0
855.0,1527,13.8,12.3,90,10.56,64,7.5,300.1,331.3,302.0
854.5,1532,13.8,12.2,90,10.50,64,7.5,300.1,331.2,302.0
854.0,1538,13.8,12.2,90,10.53,64,7.5,300.2,331.3,302.1
853.4,1543,13.7,12.3,91,10.57,64,7.5,300.2,331.4,302.1
852.9,1549,13.7,12.2,90,10.50,64,7.4,300.2,331.2,302.1
852.3,1554,13.7,12.0,90,10.38,64,7.4,300.2,330.9,302.1
851.8,1559,13.6,11.8,89,10.29,64,7.4,300.2,330.7,302.1
851.2,1565,13.6,11.8,89,10.25,64,7.4,300.3,330.6,302.1
850.7,1570,13.6,11.7,89,10.23,64,7.3,300.3,330.6,302.1
850.1,1576,13.6,11.7,89,10.23,64,7.3,300.3,330.6,302.2
850.0,1577,13.6,11.7,89,10.24,64,7.3,300.3,330.7,302.2
849.6,1581,13.6,11.8,89,10.29,64,7.3,300.4,330.8,302.2
849.0,1587,13.5,11.9,90,10.38,64,7.3,300.4,331.1,302.3
848.5,1592,13.5,12.0,91,10.45,64,7.3,300.4,331.4,302.3
847.9,1598,13.4,12.0,91,10.48,63,7.2,300.4,331.4,302.3
847.4,1603,13.4,12.1,92,10.49,63,7.2,300.4,331.5,302.3
846.8,1609,13.3,12.0,92,10.50,63,7.2,300.4,331.5,302.3
846.3,1614,13.3,12.0,92,10.49,63,7.2,300.4,331.5,302.3
845.7,1619,13.3,12.0,92,10.47,63,7.2,300.5,331.5,302.4
845.2,1624,13.2,12.0,92,10.48,63,7.2,300.5,331.5,302.4
844.7,1629,13.2,12.0,92,10.49,63,7.2,300.5,331.6,302.4
844.3,1634,13.2,12.0,92,10.49,63,7.1,300.5,331.6,302.4
843.8,1639,13.2,12.0,92,10.48,63,7.1,300.5,331.6,302.4
843.3,1644,13.1,12.0,93,10.49,63,7.1,300.6,331.6,302.5
842.8,1648,13.1,12.0,93,10.51,63,7.1,300.6,331.7,302.5
842.3,1653,13.1,12.0,93,10.53,63,7.1,300.7,331.9,302.6
841.8,1659,13.1,12.0,93,10.51,63,7.1,300.7,331.9,302.6
841.3,1664,13.1,11.9,92,10.45,64,7.1,300.8,331.8,302.7
840.8,1669,13.1,11.8,92,10.41,64,7.1,300.8,331.7,302.7
840.3,1674,13.1,11.8,91,10.37,64,7.1,300.9,331.7,302.8
839.8,1679,13.1,11.7,91,10.36,64,7.0,300.9,331.7,302.8
839.3,1684,13.2,11.7,91,10.37,65,7.0,301.0,331.8,302.9
838.9,1688,13.2,11.7,91,10.34,65,7.0,301.0,331.7,302.9
838.4,1693,13.2,11.6,90,10.29,65,7.0,301.1,331.6,303.0
837.9,1698,13.1,11.4,89,10.19,66,7.0,301.1,331.4,303.0
837.5,1702,13.1,11.2,88,10.06,66,7.0,301.2,331.1,303.0
837.0,1707,13.1,11.1,88,9.98,67,7.0,301.2,330.9,303.0
836.5,1712,13.1,11.2,88,10.03,67,6.9,301.3,331.1,303.1
836.0,1717,13.1,11.3,89,10.14,68,6.9,301.3,331.5,303.1
835.5,1722,13.1,11.4,90,10.21,68,6.9,301.3,331.7,303.2
835.0,1728,13.1,11.3,89,10.12,69,6.9,301.3,331.4,303.2
834.4,1733,13.0,11.0,88,9.95,69,6.9,301.4,331.0,303.2
833.9,1739,13.0,10.7,86,9.77,70,6.9,301.4,330.5,303.2
833.3,1744,13.0,10.5,85,9.62,70,6.9,301.5,330.2,303.2
832.7,1750,13.0,10.4,84,9.57,71,6.8,301.5,330.1,303.3
832.2,1756,13.0,10.5,85,9.63,71,6.8,301.6,330.3,303.4
831.6,1761,13.0,10.7,86,9.77,72,6.8,301.7,330.8,303.4
831.1,1767,13.0,10.8,87,9.86,72,6.8,301.7,331.1,303.5
830.6,1772,13.0,10.8,86,9.83,73,6.8,301.7,331.0,303.5
830.1,1777,13.0,10.6,86,9.75,73,6.8,301.8,330.9,303.6
829.6,1782,13.0,10.6,85,9.72,73,6.7,301.8,330.8,303.6
829.1,1787,13.0,10.7,86,9.77,73,6.7,301.9,331.1,303.7
828.6,1792,13.0,10.7,86,9.83,73,6.7,302.0,331.3,303.8
828.0,1798,13.0,10.8,86,9.86,74,6.7,302.0,331.5,303.8
827.5,1803,13.0,10.7,86,9.82,74,6.6,302.0,331.4,303.8
826.9,1809,13.0,10.6,85,9.73,74,6.6,302.1,331.1,303.8
826.4,1815,13.0,10.4,84,9.61,74,6.5,302.1,330.8,303.9
825.9,1820,13.0,10.2,83,9.50,74,6.5,302.2,330.6,303.9
825.4,1825,13.0,10.1,82,9.44,74,6.5,302.3,330.5,304.0
824.9,1830,13.0,10.1,82,9.44,73,6.4,302.4,330.6,304.1
824.5,1834,13.1,10.1,82,9.46,73,6.4,302.5,330.8,304.2
824.1,1838,13.1,10.2,82,9.50,73,6.3,302.5,330.9,304.2
823.6,1843,13.1,10.2,83,9.53,73,6.2,302.6,331.1,304.3
823.2,1847,13.1,10.2,83,9.55,73,6.2,302.6,331.2,304.3
822.7,1852,13.1,10.2,83,9.55,72,6.1,302.6,331.2,304.4
822.3,1857,13.1,10.1,82,9.51,72,6.1,302.7,331.2,304.4
821.8,1862,13.1,10.1,82,9.47,72,6.0,302.7,331.1,304.5
821.3,1867,13.1,10.0,82,9.45,71,5.9,302.8,331.1,304.5
820.8,1872,13.1,10.0,82,9.45,71,5.9,302.8,331.2,304.5
820.3,1877,13.0,10.1,82,9.49,71,5.8,302.9,331.3,304.6
819.9,1881,13.0,10.1,82,9.51,71,5.8,302.9,331.4,304.6
819.4,1886,13.0,10.1,82,9.49,70,5.7,302.9,331.4,304.7
818.9,1891,13.0,10.0,82,9.43,70,5.7,303.0,331.3,304.7
818.5,1896,13.0,9.8,81,9.36,70,5.6,303.0,331.1,304.7
818.0,1900,13.0,9.7,80,9.29,70,5.6,303.1,331.0,304.8
817.5,1905,13.0,9.5,79,9.19,69,5.5,303.2,330.8,304.8
