PRES,HGHT,TEMP,DWPT,RELH,MIXR,DRCT,SPED,THTA,THTE,THTV
1012.1,31,27.9,20.5,64,15.16,57,6.4,300.0,344.6,302.7
1011.2,38,27.5,20.7,66,15.34,56,4.4,299.7,344.8,302.5
1010.9,41,27.4,20.6,67,15.32,55,4.1,299.6,344.6,302.4
1010.4,45,27.2,20.6,67,15.26,55,4.2,299.5,344.3,302.2
1009.9,50,27.0,20.4,67,15.11,55,4.5,299.3,343.6,302.0
1009.3,55,26.7,20.2,67,14.91,55,4.8,299.1,342.8,301.8
1008.5,62,26.5,20.0,67,14.71,54,5.1,298.9,342.0,301.5
1007.8,68,26.2,19.7,68,14.50,54,5.3,298.6,341.0,301.2
1007.2,74,25.8,19.5,68,14.34,54,5.5,298.4,340.3,300.9
1006.5,79,25.6,19.4,69,14.26,54,5.7,298.2,339.8,300.7
1005.9,85,25.4,19.4,69,14.23,54,5.9,298.0,339.6,300.6
1005.3,90,25.3,19.3,69,14.19,54,6.1,298.0,339.4,300.6
1004.8,95,25.3,19.3,70,14.17,54,6.2,298.0,339.3,300.5
1004.3,99,25.2,19.3,70,14.14,54,6.4,298.0,339.3,300.5
1003.7,104,25.2,19.2,70,14.12,54,6.5,298.0,339.2,300.5
1003.2,108,25.2,19.2,70,14.13,54,6.6,298.0,339.2,300.6
1002.8,113,25.1,19.2,70,14.12,54,6.7,298.0,339.2,300.6
1002.3,117,25.1,19.2,70,14.09,55,6.8,298.0,339.1,300.5
1001.8,121,25.0,19.1,70,14.06,55,6.9,298.0,339.1,300.5
1001.3,125,25.0,19.1,70,14.04,55,6.9,298.0,339.0,300.5
1000.8,129,24.9,19.1,70,14.05,55,7.0,298.0,339.0,300.5
1000.4,134,24.9,19.1,70,14.08,56,7.0,298.0,339.1,300.5
1000.0,137,24.9,19.1,70,14.08,56,7.0,298.0,339.1,300.5
999.9,138,24.9,19.1,70,14.09,56,7.0,298.0,339.1,300.5
999.4,142,24.8,19.1,71,14.10,56,7.1,298.0,339.2,300.5
998.9,146,24.8,19.2,71,14.15,57,7.1,298.0,339.3,300.6
998.4,151,24.7,19.3,72,14.22,57,7.1,298.0,339.5,300.6
997.9,156,24.7,19.3,72,14.27,58,7.1,298.0,339.6,300.5
997.3,160,24.6,19.3,72,14.28,58,7.1,298.0,339.7,300.6
996.8,165,24.6,19.3,72,14.28,58,7.1,298.0,339.7,300.6
996.2,170,24.5,19.3,73,14.29,59,7.1,298.0,339.7,300.6
995.6,175,24.5,19.3,73,14.29,59,7.2,298.0,339.7,300.6
995.1,180,24.5,19.3,73,14.27,60,7.2,298.0,339.7,300.6
994.5,185,24.4,19.2,73,14.26,60,7.2,298.0,339.6,300.6
993.9,190,24.4,19.2,73,14.25,60,7.1,298.0,339.6,300.6
993.4,195,24.3,19.2,73,14.21,61,7.1,298.0,339.5,300.6
992.8,200,24.3,19.1,73,14.18,61,7.1,298.0,339.4,300.6
992.3,205,24.2,19.1,73,14.17,61,7.1,298.0,339.4,300.6
991.8,209,24.2,19.2,74,14.23,61,7.1,298.0,339.5,300.6
991.3,214,24.1,19.2,74,14.27,61,7.1,298.0,339.7,300.6
990.8,218,24.1,19.2,74,14.28,61,7.1,298.0,339.7,300.6
990.3,222,24.1,19.2,74,14.28,61,7.1,298.0,339.7,300.6
989.8,226,24.0,19.2,74,14.28,61,7.1,298.0,339.7,300.6
989.4,231,24.0,19.2,75,14.28,61,7.0,298.0,339.7,300.6
988.9,235,23.9,19.2,75,14.27,61,7.0,298.0,339.7,300.6
988.4,239,23.9,19.1,75,14.26,60,7.0,298.0,339.6,300.6
987.9,243,23.8,19.1,75,14.27,60,7.0,298.0,339.6,300.6
987.4,248,23.8,19.1,75,14.25,60,7.0,298.0,339.6,300.6
986.9,252,23.8,19.1,75,14.23,59,6.9,298.0,339.5,300.6
986.5,256,23.7,19.1,75,14.21,59,6.9,298.0,339.4,300.6
986.0,261,23.7,19.0,75,14.19,58,6.9,298.0,339.4,300.5
985.5,265,23.6,19.0,75,14.18,58,6.9,298.0,339.4,300.6
985.1,269,23.6,19.0,75,14.14,58,6.9,298.0,339.3,300.5
984.6,273,23.6,18.9,75,14.13,57,6.9,298.0,339.3,300.6
984.2,277,23.5,18.9,76,14.14,57,6.8,298.0,339.3,300.5
983.7,281,23.5,18.9,76,14.15,56,6.8,298.0,339.3,300.5
983.3,285,23.4,19.0,76,14.18,56,6.8,298.0,339.4,300.5
982.8,289,23.4,19.0,76,14.21,56,6.8,298.0,339.5,300.5
982.4,293,23.3,19.0,77,14.22,55,6.8,298.0,339.5,300.5
981.9,297,23.3,19.0,77,14.19,55,6.8,298.0,339.4,300.5
981.4,301,23.3,18.9,77,14.15,55,6.9,298.0,339.3,300.5
981.0,305,23.2,18.9,77,14.11,55,6.9,298.0,339.2,300.5
980.5,309,23.2,18.9,77,14.11,55,6.9,298.0,339.2,300.5
980.0,314,23.1,18.8,77,14.11,55,6.9,298.0,339.2,300.5
979.6,318,23.1,18.8,77,14.08,55,6.9,298.0,339.1,300.5
979.1,322,23.1,18.8,77,14.06,55,6.9,298.0,339.0,300.5
978.7,326,23.0,18.8,77,14.06,55,7.0,298.0,339.0,300.5
978.2,330,23.0,18.8,77,14.06,55,7.0,298.0,339.0,300.5
977.7,334,22.9,18.8,77,14.06,55,7.0,298.0,339.0,300.5
977.2,339,22.9,18.8,78,14.13,55,7.1,298.0,339.2,300.5
976.7,344,22.8,18.9,79,14.22,55,7.1,298.0,339.5,300.5
976.1,348,22.8,18.9,79,14.22,55,7.1,298.0,339.4,300.5
975.6,353,22.7,18.8,79,14.17,56,7.1,298.0,339.3,300.5
975.0,358,22.7,18.8,79,14.12,56,7.2,298.0,339.1,300.5
974.5,363,22.6,18.7,79,14.10,56,7.2,298.0,339.1,300.5
974.0,368,22.6,18.7,79,14.11,56,7.2,298.0,339.1,300.5
973.4,373,22.5,18.7,79,14.12,56,7.3,298.0,339.1,300.5
972.9,377,22.5,18.7,79,14.13,56,7.3,298.0,339.2,300.5
972.4,382,22.5,18.7,79,14.12,56,7.3,298.0,339.2,300.5
971.9,387,22.4,18.7,80,14.13,56,7.4,298.0,339.2,300.5
971.3,392,22.4,18.8,80,14.18,56,7.4,298.0,339.3,300.5
970.8,397,22.3,18.9,81,14.26,56,7.4,298.0,339.6,300.5
970.2,402,22.3,18.9,81,14.30,56,7.4,298.0,339.7,300.5
969.6,407,22.2,18.8,81,14.24,56,7.4,298.0,339.5,300.5
969.0,412,22.2,18.6,80,14.05,57,7.5,298.0,338.9,300.5
968.5,417,22.1,18.3,79,13.77,57,7.5,298.0,338.2,300.5
967.9,422,22.1,18.0,77,13.50,57,7.5,298.0,337.4,300.4
967.4,427,22.1,17.8,77,13.38,57,7.5,298.1,337.1,300.5
966.9,432,22.1,17.9,77,13.47,57,7.5,298.1,337.4,300.5
966.4,436,22.0,18.0,78,13.58,58,7.5,298.1,337.7,300.5
965.9,440,22.0,18.0,78,13.55,58,7.5,298.1,337.6,300.5
965.5,444,21.9,17.9,78,13.47,58,7.5,298.1,337.4,300.5
965.0,448,21.9,17.9,78,13.45,59,7.5,298.1,337.3,300.5
964.6,452,21.9,17.9,78,13.49,59,7.6,298.1,337.5,300.5
964.2,456,21.8,17.9,79,13.54,59,7.6,298.1,337.6,300.5
963.8,459,21.8,18.0,79,13.56,60,7.6,298.1,337.6,300.5
963.4,463,21.8,17.9,79,13.55,60,7.6,298.1,337.6,300.5
963.0,467,21.7,17.9,79,13.53,60,7.7,298.1,337.5,300.5
962.6,471,21.7,17.9,79,13.50,61,7.7,298.1,337.5,300.5
962.1,474,21.7,17.8,79,13.46,61,7.8,298.1,337.4,300.5
961.7,478,21.6,17.7,79,13.41,61,7.8,298.1,337.2,300.5
961.3,482,21.6,17.7,78,13.36,62,7.9,298.1,337.1,300.5
960.9,485,21.6,17.7,78,13.35,62,8.0,298.1,337.1,300.5
960.5,489,21.5,17.8,79,13.46,62,8.0,298.1,337.4,300.5
960.1,493,21.5,18.0,80,13.63,62,8.1,298.1,337.9,300.5
959.7,496,21.4,18.1,81,13.75,62,8.1,298.1,338.2,300.5
959.4,499,21.4,18.1,82,13.79,62,8.2,298.0,338.3,300.5
959.0,503,21.3,18.1,82,13.76,62,8.3,298.0,338.2,300.5
958.6,506,21.3,18.0,82,13.71,62,8.3,298.0,338.0,300.5
958.2,510,21.3,18.0,82,13.68,61,8.4,298.0,338.0,300.5
957.9,513,21.2,18.0,82,13.68,61,8.4,298.0,337.9,300.5
957.5,516,21.2,18.0,82,13.69,61,8.4,298.0,338.0,300.5
957.1,520,21.2,18.0,82,13.73,61,8.4,298.0,338.1,300.5
956.7,523,21.1,18.1,83,13.78,60,8.4,298.0,338.2,300.5
956.4,527,21.1,18.1,83,13.79,60,8.4,298.0,338.2,300.5
956.0,530,21.1,18.1,83,13.77,60,8.3,298.0,338.2,300.5
955.6,534,21.0,18.0,83,13.76,59,8.3,298.0,338.1,300.5
955.2,537,21.0,18.0,83,13.73,59,8.2,298.0,338.1,300.5
954.8,541,21.0,18.0,83,13.69,59,8.2,298.0,338.0,300.5
954.5,544,20.9,17.9,83,13.67,58,8.1,298.0,337.9,300.5
954.1,548,20.9,17.9,83,13.67,58,8.0,298.0,337.9,300.5
953.7,551,20.9,17.9,83,13.70,58,7.8,298.0,338.0,300.5
953.3,555,20.8,18.0,84,13.76,58,7.7,298.0,338.2,300.5
952.9,558,20.8,18.1,85,13.87,58,7.6,298.0,338.5,300.5
952.5,562,20.8,18.2,85,13.95,59,7.4,298.0,338.7,300.5
952.1,565,20.7,18.2,86,13.99,59,7.3,298.0,338.8,300.5
951.7,569,20.7,18.2,86,13.99,59,7.1,298.0,338.8,300.5
951.3,573,20.6,18.3,86,14.01,60,7.0,298.0,338.8,300.5
950.9,576,20.6,18.3,87,14.02,61,6.8,298.0,338.9,300.5
950.5,580,20.6,18.3,87,14.03,61,6.7,298.0,338.9,300.5
950.1,583,20.5,18.3,87,14.03,62,6.6,298.0,338.9,300.5
949.8,587,20.5,18.2,87,14.01,63,6.5,298.0,338.8,300.5
949.4,590,20.5,18.2,87,14.00,65,6.4,298.0,338.8,300.5
949.0,593,20.4,18.2,87,14.01,66,6.3,298.0,338.9,300.5
948.7,597,20.4,18.3,88,14.05,67,6.3,298.0,338.9,300.5
948.3,600,20.4,18.3,88,14.06,68,6.3,298.0,339.0,300.5
948.0,603,20.3,18.2,88,14.05,69,6.3,298.0,339.0,300.5
947.7,606,20.3,18.2,88,14.01,70,6.3,298.0,338.8,300.5
947.3,609,20.3,18.2,88,13.99,71,6.3,298.0,338.8,300.5
946.9,613,20.3,18.1,88,13.96,72,6.3,298.0,338.7,300.5
946.6,616,20.2,18.1,87,13.92,73,6.4,298.0,338.6,300.5
946.2,620,20.2,18.0,87,13.84,74,6.5,298.0,338.4,300.5
945.7,624,20.2,17.9,87,13.77,74,6.6,298.0,338.2,300.5
945.3,628,20.1,17.8,86,13.70,74,6.7,298.0,338.0,300.5
944.8,632,20.1,17.7,86,13.63,75,6.8,298.0,337.8,300.5
944.4,636,20.1,17.7,86,13.62,75,6.9,298.0,337.8,300.5
943.9,640,20.0,17.8,87,13.68,75,7.0,298.0,337.9,300.5
943.5,644,20.0,17.8,87,13.74,75,7.1,298.0,338.1,300.5
943.1,648,19.9,17.8,88,13.75,74,7.2,298.0,338.1,300.5
942.7,652,19.9,17.8,88,13.73,74,7.3,298.0,338.1,300.5
942.3,655,19.9,17.8,88,13.71,74,7.4,298.0,338.0,300.5
942.0,658,19.8,17.7,88,13.67,74,7.5,298.0,337.9,300.5
941.6,661,19.8,17.6,87,13.60,73,7.6,298.1,337.7,300.5
941.3,664,19.8,17.5,87,13.51,73,7.7,298.1,337.5,300.5
941.0,667,19.8,17.3,86,13.36,73,7.7,298.1,337.1,300.5
940.6,670,19.8,17.1,85,13.19,72,7.8,298.1,336.6,300.5
940.3,673,19.8,16.9,83,13.00,72,7.8,298.2,336.1,300.5
940.0,676,19.8,16.7,82,12.85,72,7.9,298.2,335.8,300.5
939.7,679,19.8,16.7,82,12.84,72,7.9,298.2,335.7,300.5
939.4,682,19.8,16.8,83,12.95,72,7.9,298.2,336.1,300.5
939.0,685,19.7,16.9,84,13.02,72,8.0,298.2,336.2,300.5
938.7,688,19.7,16.9,84,13.01,72,8.0,298.2,336.2,300.5
938.4,691,19.7,16.9,84,12.98,72,8.0,298.2,336.1,300.5
938.1,693,19.7,16.8,83,12.91,72,8.0,298.2,335.9,300.5
937.8,696,19.7,16.7,83,12.85,72,8.0,298.2,335.8,300.5
937.5,699,19.6,16.7,83,12.83,72,8.0,298.2,335.7,300.5
937.2,702,19.6,16.7,83,12.88,73,8.0,298.2,335.9,300.5
936.9,705,19.6,16.9,84,13.00,73,8.0,298.2,336.2,300.5
936.5,708,19.5,17.0,85,13.14,73,7.9,298.2,336.6,300.6
936.1,712,19.5,17.0,85,13.10,74,7.9,298.2,336.5,300.5
935.8,715,19.5,16.7,84,12.89,74,7.9,298.2,335.9,300.5
935.4,719,19.5,16.5,83,12.69,75,7.9,298.2,335.3,300.5
935.0,722,19.4,16.3,82,12.59,75,7.9,298.3,335.1,300.5
934.7,725,19.4,16.3,82,12.56,76,7.9,298.3,335.0,300.5
934.3,729,19.4,16.3,82,12.56,76,7.9,298.3,335.0,300.5
934.0,732,19.4,16.3,83,12.61,77,7.9,298.3,335.1,300.5
933.6,735,19.3,16.4,83,12.65,77,7.9,298.3,335.3,300.6
933.3,738,19.3,16.4,83,12.67,78,7.9,298.3,335.3,300.5
932.9,742,19.3,16.3,83,12.62,78,7.9,298.3,335.2,300.5
932.5,745,19.3,16.1,82,12.47,79,7.8,298.3,334.8,300.5
932.1,749,19.3,15.9,81,12.27,79,7.8,298.3,334.2,300.5
931.7,753,19.3,15.7,80,12.09,80,7.8,298.4,333.8,300.5
931.2,757,19.3,15.5,79,11.98,80,7.8,298.4,333.5,300.6
930.8,762,19.3,15.4,78,11.92,80,7.8,298.5,333.4,300.6
930.3,766,19.2,15.3,78,11.86,80,7.7,298.5,333.2,300.6
929.8,771,19.2,15.2,78,11.76,81,7.7,298.5,332.9,300.6
929.3,775,19.2,15.0,77,11.63,81,7.7,298.5,332.6,300.6
928.8,780,19.1,14.8,76,11.47,81,7.7,298.5,332.1,300.6
928.3,785,19.1,14.5,74,11.25,81,7.6,298.6,331.6,300.6
927.8,789,19.2,14.3,73,11.11,82,7.6,298.6,331.2,300.6
927.3,793,19.1,14.4,74,11.18,82,7.6,298.7,331.5,300.7
926.9,798,19.1,14.6,75,11.35,82,7.5,298.6,331.9,300.7
926.4,802,19.0,14.7,76,11.46,82,7.5,298.6,332.2,300.7
925.9,806,19.0,14.7,76,11.46,83,7.5,298.6,332.2,300.7
925.4,811,19.0,14.6,76,11.34,83,7.5,298.6,331.9,300.7
925.0,815,18.9,14.4,75,11.20,83,7.5,298.7,331.5,300.7
924.9,815,18.9,14.4,75,11.19,83,7.4,298.7,331.5,300.7
924.4,820,18.9,14.2,74,11.11,83,7.4,298.7,331.3,300.7
923.9,825,18.9,14.2,74,11.06,83,7.4,298.7,331.2,300.7
923.4,830,18.8,14.0,74,10.97,83,7.4,298.7,330.9,300.7
923.0,834,18.8,13.9,73,10.86,83,7.4,298.7,330.6,300.7
922.5,838,18.8,13.8,73,10.81,83,7.3,298.7,330.5,300.7
922.1,842,18.8,13.8,73,10.80,83,7.3,298.8,330.5,300.7
921.6,846,18.7,13.8,73,10.81,83,7.3,298.8,330.6,300.7
921.2,850,18.7,13.8,73,10.84,83,7.3,298.8,330.6,300.7
920.8,854,18.7,13.9,74,10.87,83,7.3,298.8,330.7,300.7
920.4,858,18.6,13.9,74,10.88,82,7.3,298.8,330.7,300.7
919.9,862,18.6,13.8,74,10.85,82,7.2,298.8,330.7,300.7
919.5,867,18.6,13.8,74,10.83,82,7.2,298.8,330.6,300.7
919.0,871,18.5,13.7,74,10.81,81,7.2,298.8,330.6,300.7
918.4,876,18.5,13.7,74,10.81,80,7.2,298.8,330.6,300.8
917.9,881,18.4,13.7,74,10.81,80,7.1,298.8,330.6,300.7
917.4,886,18.4,13.7,74,10.80,79,7.1,298.8,330.5,300.7
916.9,891,18.3,13.7,74,10.80,78,7.1,298.8,330.5,300.7
916.4,896,18.3,13.7,74,10.79,78,7.0,298.8,330.5,300.7
915.9,900,18.3,13.6,74,10.78,77,7.0,298.8,330.5,300.7
915.4,905,18.2,13.6,74,10.76,76,6.9,298.8,330.5,300.8
914.9,909,18.2,13.6,75,10.77,75,6.9,298.8,330.5,300.8
914.5,914,18.1,13.6,75,10.80,74,6.9,298.8,330.6,300.8
913.9,918,18.1,13.7,75,10.82,73,6.8,298.8,330.6,300.8
913.4,923,18.1,13.7,76,10.84,72,6.8,298.8,330.7,300.8
912.8,929,18.0,13.7,76,10.85,71,6.7,298.8,330.7,300.8
912.3,934,18.0,13.7,76,10.84,70,6.7,298.8,330.7,300.8
911.6,940,17.9,13.6,76,10.82,70,6.7,298.8,330.7,300.8
911.0,946,17.8,13.6,76,10.82,69,6.7,298.8,330.6,300.8
910.4,952,17.8,13.6,76,10.80,68,6.6,298.8,330.6,300.8
909.8,958,17.7,13.6,77,10.79,68,6.6,298.8,330.5,300.8
909.1,963,17.7,13.5,77,10.78,67,6.6,298.8,330.5,300.8
908.6,969,17.6,13.5,77,10.76,67,6.6,298.8,330.5,300.8
908.0,974,17.6,13.5,77,10.74,66,6.6,298.8,330.4,300.8
907.4,980,17.5,13.4,77,10.70,66,6.6,298.9,330.3,300.8
906.9,985,17.5,13.3,77,10.67,66,6.6,298.9,330.3,300.8
906.4,990,17.5,13.3,77,10.67,66,6.6,298.9,330.3,300.8
905.8,995,17.4,13.3,77,10.68,66,6.6,298.9,330.3,300.8
905.2,1000,17.4,13.3,77,10.67,66,6.6,298.9,330.3,300.8
904.7,1006,17.3,13.3,77,10.64,66,6.6,298.9,330.2,300.8
904.1,1012,17.3,13.2,77,10.62,66,6.6,298.9,330.2,300.9
903.4,1018,17.3,13.3,77,10.65,66,6.6,299.0,330.3,300.9
902.8,1024,17.2,13.3,78,10.71,66,6.7,299.0,330.5,300.9
902.1,1030,17.2,13.4,78,10.75,66,6.7,299.0,330.6,300.9
901.4,1036,17.1,13.4,79,10.78,66,6.7,299.0,330.7,300.9
900.8,1043,17.0,13.4,79,10.78,67,6.8,298.9,330.6,300.9
900.1,1049,16.9,13.3,79,10.76,67,6.8,298.9,330.6,300.9
899.5,1054,16.9,13.3,80,10.76,67,6.8,298.9,330.6,300.9
899.0,1060,16.8,13.3,80,10.77,67,6.9,298.9,330.6,300.8
898.4,1065,16.8,13.3,80,10.76,67,6.9,298.9,330.5,300.8
898.0,1069,16.7,13.3,80,10.75,67,6.9,298.9,330.5,300.8
897.5,1074,16.7,13.3,81,10.78,68,7.0,298.9,330.6,300.9
897.0,1078,16.6,13.4,81,10.82,68,7.0,298.9,330.7,300.9
896.6,1082,16.6,13.4,81,10.83,68,7.1,298.9,330.7,300.9
896.2,1086,16.6,13.3,81,10.76,68,7.1,298.9,330.6,300.9
895.8,1090,16.5,13.1,80,10.65,68,7.1,298.9,330.3,300.9
895.3,1094,16.5,13.0,79,10.55,68,7.1,299.0,330.0,300.9
894.9,1099,16.5,12.9,79,10.49,68,7.2,299.0,329.9,300.9
894.4,1103,16.5,12.8,79,10.47,68,7.2,299.0,329.8,300.9
894.0,1107,16.5,12.8,79,10.42,68,7.2,299.0,329.7,300.9
893.5,1111,16.5,12.7,78,10.36,68,7.2,299.1,329.6,300.9
893.1,1116,16.4,12.6,78,10.30,69,7.2,299.1,329.4,301.0
892.6,1120,16.4,12.6,78,10.29,69,7.2,299.1,329.4,301.0
892.2,1125,16.4,12.6,78,10.35,69,7.2,299.1,329.6,301.0
891.7,1129,16.3,12.8,80,10.50,69,7.2,299.1,330.0,301.0
891.2,1134,16.3,13.1,81,10.67,69,7.2,299.1,330.5,301.0
890.7,1139,16.2,13.2,82,10.79,69,7.1,299.1,330.9,301.1
890.2,1143,16.2,13.3,83,10.82,70,7.1,299.1,330.9,301.1
889.7,1148,16.1,13.2,83,10.80,70,7.1,299.1,330.9,301.1
889.3,1152,16.1,13.1,83,10.75,70,7.0,299.1,330.7,301.0
888.8,1157,16.1,13.1,82,10.71,70,7.0,299.1,330.6,301.1
888.4,1161,16.0,13.0,82,10.67,71,6.9,299.1,330.5,301.1
887.9,1165,16.0,12.9,82,10.61,71,6.9,299.2,330.4,301.1
887.5,1170,16.0,12.8,82,10.56,71,6.8,299.2,330.2,301.1
887.0,1174,16.0,12.8,81,10.50,72,6.8,299.2,330.1,301.1
886.6,1178,15.9,12.7,81,10.44,72,6.7,299.2,329.9,301.1
886.2,1182,15.9,12.6,81,10.40,72,6.7,299.2,329.8,301.1
885.8,1186,15.9,12.6,81,10.39,72,6.6,299.2,329.8,301.1
885.3,1190,15.9,12.6,81,10.41,72,6.6,299.2,329.9,301.1
884.9,1194,15.8,12.6,81,10.42,73,6.5,299.3,330.0,301.1
884.4,1199,15.8,12.6,81,10.40,73,6.5,299.3,329.9,301.2
884.0,1203,15.8,12.5,81,10.37,73,6.5,299.3,329.9,301.2
883.5,1207,15.8,12.5,81,10.35,73,6.4,299.3,329.8,301.2
883.1,1212,15.8,12.4,81,10.33,72,6.4,299.3,329.8,301.2
882.6,1216,15.7,12.4,81,10.31,72,6.4,299.4,329.8,301.2
882.2,1221,15.7,12.4,81,10.30,72,6.4,299.4,329.8,301.2
881.7,1225,15.7,12.4,81,10.31,72,6.4,299.4,329.8,301.3
881.2,1230,15.6,12.4,81,10.34,71,6.5,299.4,329.9,301.3
880.7,1235,15.6,12.5,82,10.37,71,6.5,299.4,330.0,301.3
880.2,1240,15.5,12.4,82,10.36,70,6.5,299.4,329.9,301.3
879.7,1245,15.5,12.4,82,10.34,70,6.6,299.4,329.9,301.2
879.2,1250,15.4,12.3,82,10.30,69,6.6,299.4,329.8,301.2
878.6,1255,15.4,12.3,82,10.29,69,6.7,299.4,329.8,301.3
878.1,1259,15.4,12.3,82,10.32,69,6.7,299.5,329.9,301.3
877.7,1264,15.4,12.4,82,10.34,68,6.8,299.5,330.0,301.3
877.2,1269,15.4,12.4,82,10.34,68,6.9,299.5,330.0,301.4
876.8,1273,15.3,12.3,82,10.33,67,7.0,299.5,330.0,301.4
876.3,1277,15.3,12.3,83,10.33,67,7.0,299.5,330.0,301.4
875.9,1282,15.3,12.4,83,10.36,66,7.1,299.5,330.1,301.4
875.4,1286,15.2,12.4,83,10.39,66,7.2,299.5,330.2,301.4
875.0,1290,15.2,12.4,83,10.39,66,7.3,299.6,330.2,301.4
874.5,1294,15.2,12.4,83,10.38,65,7.3,299.6,330.2,301.5
874.1,1299,15.2,12.3,83,10.34,65,7.4,299.7,330.2,301.5
873.6,1303,15.2,12.2,82,10.29,65,7.5,299.7,330.1,301.6
873.2,1308,15.2,12.2,82,10.27,65,7.6,299.7,330.1,301.6
872.7,1312,15.2,12.2,82,10.26,65,7.6,299.8,330.1,301.6
872.2,1317,15.1,12.1,82,10.24,65,7.7,299.8,330.0,301.6
871.7,1322,15.1,12.1,82,10.20,65,7.8,299.8,329.9,301.7
871.1,1328,15.1,12.0,81,10.15,65,7.8,299.9,329.9,301.7
870.6,1333,15.1,11.9,81,10.09,65,7.9,299.9,329.7,301.7
870.1,1338,15.1,11.8,81,10.03,65,7.9,299.9,329.6,301.7
869.6,1342,15.1,11.7,80,9.99,65,8.0,299.9,329.5,301.8
869.2,1347,15.0,11.7,80,9.96,65,8.0,300.0,329.4,301.8
868.7,1351,15.0,11.6,80,9.94,65,8.1,300.0,329.4,301.8
868.3,1356,15.0,11.6,80,9.90,66,8.1,300.0,329.3,301.8
867.8,1360,15.0,11.4,79,9.83,66,8.1,300.1,329.2,301.8
867.4,1364,15.0,11.3,78,9.71,66,8.2,300.1,328.9,301.9
866.9,1369,15.1,11.0,77,9.54,66,8.2,300.2,328.5,301.9
866.5,1373,15.1,10.8,76,9.44,67,8.2,300.3,328.3,302.0
866.0,1378,15.1,10.8,76,9.45,67,8.3,300.3,328.4,302.0
865.6,1382,15.1,10.9,76,9.50,67,8.3,300.3,328.5,302.1
865.1,1386,15.0,10.9,76,9.53,68,8.3,300.4,328.6,302.1
864.7,1390,15.0,10.9,77,9.54,68,8.3,300.4,328.7,302.1
864.3,1394,15.0,10.9,77,9.53,69,8.3,300.4,328.6,302.1
863.9,1398,14.9,10.9,77,9.53,69,8.4,300.4,328.6,302.1
863.5,1403,14.9,10.9,77,9.54,70,8.4,300.4,328.6,302.1
863.0,1407,14.8,10.9,77,9.54,71,8.4,300.4,328.7,302.1
862.5,1412,14.8,10.9,77,9.53,71,8.4,300.4,328.7,302.1
862.0,1417,14.8,10.9,77,9.52,72,8.4,300.4,328.7,302.1
861.5,1422,14.8,10.9,77,9.53,73,8.4,300.4,328.7,302.2
861.0,1427,14.7,10.9,78,9.54,73,8.4,300.5,328.8,302.2
860.5,1432,14.7,10.9,78,9.56,74,8.5,300.5,328.9,302.2
860.0,1437,14.7,10.9,78,9.57,75,8.5,300.5,328.9,302.2
859.5,1441,14.6,10.9,78,9.54,75,8.5,300.5,328.8,302.2
859.1,1446,14.6,10.8,78,9.49,76,8.5,300.5,328.7,302.2
858.6,1450,14.6,10.7,77,9.43,77,8.5,300.6,328.6,302.3
858.2,1454,14.6,10.6,77,9.40,77,8.6,300.6,328.5,302.3
857.9,1458,14.6,10.6,77,9.41,78,8.6,300.6,328.6,302.3
857.5,1461,14.6,10.6,77,9.42,79,8.6,300.7,328.7,302.4
857.1,1465,14.6,10.6,77,9.43,79,8.7,300.7,328.7,302.4
856.8,1468,14.6,10.6,77,9.42,80,8.7,300.7,328.7,302.4
856.5,1471,14.6,10.6,77,9.40,80,8.8,300.8,328.7,302.5
856.2,1475,14.6,10.5,77,9.37,81,8.9,300.8,328.7,302.5
855.8,1478,14.6,10.5,76,9.34,81,8.9,300.8,328.6,302.5
855.5,1481,14.6,10.4,76,9.32,81,9.0,300.9,328.6,302.6
855.2,1484,14.6,10.4,76,9.32,81,9.1,300.9,328.7,302.6
854.8,1488,14.6,10.4,76,9.33,82,9.2,301.0,328.7,302.7
854.5,1491,14.6,10.4,76,9.33,82,9.3,301.0,328.8,302.7
854.1,1495,14.6,10.4,76,9.33,82,9.3,301.0,328.8,302.7
853.7,1499,14.6,10.4,76,9.35,82,9.4,301.0,328.9,302.7
853.2,1503,14.6,10.4,76,9.34,82,9.5,301.1,328.9,302.8
852.8,1508,14.5,10.4,76,9.32,82,9.6,301.1,328.8,302.8
852.3,1512,14.5,10.3,76,9.30,82,9.7,301.1,328.8,302.8
851.9,1517,14.5,10.3,76,9.27,82,9.8,301.1,328.7,302.8
851.5,1521,14.5,10.3,76,9.26,82,9.9,301.1,328.7,302.8
851.1,1525,14.4,10.3,76,9.28,82,10.0,301.1,328.8,302.8
850.7,1528,14.4,10.4,77,9.32,82,10.1,301.2,328.9,302.8
850.4,1532,14.4,10.4,77,9.36,82,10.2,301.2,329.1,302.9
850.1,1535,14.4,10.5,77,9.40,82,10.3,301.2,329.2,302.9
850.0,1536,14.4,10.5,77,9.41,82,10.3,301.2,329.2,302.9
849.8,1538,14.4,10.5,78,9.44,82,10.3,301.2,329.3,302.9
849.4,1541,14.3,10.6,78,9.46,82,10.4,301.2,329.4,302.9
849.1,1545,14.3,10.6,78,9.48,82,10.5,301.2,329.4,302.9
848.7,1549,14.3,10.6,78,9.49,82,10.5,301.2,329.5,302.9
848.2,1553,14.3,10.6,78,9.48,82,10.5,301.2,329.5,303.0
847.8,1558,14.2,10.5,78,9.45,82,10.5,301.3,329.4,303.0
847.3,1563,14.2,10.5,78,9.43,82,10.5,301.3,329.4,303.0
846.8,1567,14.2,10.4,78,9.42,82,10.5,301.3,329.3,303.0
846.4,1572,14.1,10.4,78,9.39,82,10.5,301.3,329.3,303.0
845.9,1576,14.1,10.3,78,9.33,82,10.5,301.3,329.1,303.0
845.5,1580,14.1,10.2,77,9.25,82,10.4,301.3,328.9,303.0
