PRES,HGHT,TEMP,DWPT,RELH,MIXR,DRCT,SPED,THTA,THTE,THTV
1014.7,31,28.7,20.7,62,15.36,47,5.3,300.6,345.9,303.4
1014.3,34,28.0,21.3,67,15.95,51,3.7,299.9,346.8,302.8
1014.0,36,27.4,21.1,68,15.70,54,3.4,299.4,345.5,302.2
1013.5,41,26.9,21.0,70,15.59,54,3.4,298.9,344.5,301.7
1012.7,48,26.6,20.9,71,15.58,54,3.7,298.6,344.2,301.4
1012.0,54,26.5,20.9,71,15.52,54,4.0,298.6,344.0,301.4
1011.1,62,26.4,20.7,71,15.40,54,4.3,298.6,343.6,301.3
1010.2,70,26.2,20.6,71,15.25,54,4.6,298.5,343.1,301.2
1009.5,76,26.1,20.4,71,15.13,54,4.8,298.5,342.7,301.2
1008.8,82,26.0,20.3,71,15.03,54,5.1,298.4,342.4,301.1
1008.1,88,26.0,20.3,71,15.02,54,5.3,298.4,342.3,301.1
1007.5,94,25.9,20.3,71,15.07,54,5.5,298.4,342.4,301.1
1006.9,99,25.8,20.3,72,15.06,54,5.8,298.4,342.4,301.1
1006.3,104,25.7,20.2,72,14.99,54,6.0,298.4,342.1,301.0
1005.8,109,25.6,20.1,72,14.91,54,6.1,298.2,341.7,300.9
1005.3,113,25.3,20.0,73,14.83,54,6.3,298.0,341.2,300.6
1004.8,117,25.1,20.0,73,14.81,54,6.5,297.9,341.0,300.5
1004.3,122,25.0,20.0,73,14.79,54,6.6,297.8,340.9,300.5
1003.8,126,25.0,19.9,74,14.77,54,6.8,297.8,340.8,300.4
1003.4,130,24.9,19.9,74,14.77,55,6.9,297.8,340.8,300.4
1002.9,134,24.9,19.9,74,14.78,55,7.0,297.8,340.9,300.4
1002.5,138,24.9,20.0,74,14.82,55,7.1,297.8,340.9,300.4
1002.0,142,24.8,20.0,75,14.85,55,7.2,297.8,341.0,300.4
1001.5,146,24.8,20.1,75,14.91,55,7.3,297.8,341.2,300.4
1001.0,150,24.7,20.1,76,14.98,55,7.3,297.8,341.4,300.4
1000.5,155,24.7,20.1,76,15.01,55,7.4,297.8,341.5,300.4
1000.0,159,24.6,20.1,76,15.01,55,7.5,297.8,341.5,300.4
999.5,164,24.6,20.1,76,14.99,55,7.5,297.8,341.4,300.4
999.0,168,24.5,20.1,76,14.97,55,7.5,297.8,341.4,300.4
998.5,173,24.5,20.0,76,14.94,55,7.5,297.8,341.3,300.4
998.0,177,24.5,20.0,76,14.92,55,7.6,297.8,341.2,300.4
997.5,182,24.4,20.0,76,14.93,55,7.6,297.8,341.3,300.4
996.9,186,24.4,20.0,77,14.93,55,7.6,297.8,341.3,300.4
996.4,191,24.3,20.0,77,14.93,55,7.6,297.8,341.3,300.4
995.8,196,24.3,20.0,77,14.94,55,7.6,297.8,341.3,300.4
995.3,201,24.2,20.0,77,14.95,55,7.6,297.8,341.3,300.4
994.8,205,24.2,20.0,77,14.94,55,7.6,297.8,341.3,300.4
994.3,210,24.1,20.0,78,14.94,55,7.6,297.8,341.3,300.4
993.7,215,24.1,20.0,78,14.93,55,7.6,297.8,341.3,300.4
993.2,219,24.1,19.9,78,14.89,55,7.7,297.8,341.2,300.4
992.8,223,24.0,19.9,78,14.86,55,7.7,297.8,341.1,300.4
992.3,227,24.0,19.9,78,14.86,55,7.7,297.8,341.1,300.4
991.8,232,23.9,19.9,78,14.89,55,7.7,297.8,341.2,300.4
991.4,236,23.9,19.9,78,14.91,55,7.7,297.8,341.2,300.4
990.9,240,23.9,19.9,79,14.92,55,7.7,297.8,341.2,300.4
990.4,244,23.8,19.9,79,14.93,55,7.7,297.8,341.3,300.4
990.0,248,23.8,19.9,79,14.93,55,7.6,297.8,341.3,300.4
989.5,252,23.7,19.9,79,14.91,55,7.6,297.8,341.2,300.4
989.0,256,23.7,19.8,79,14.87,55,7.6,297.8,341.1,300.4
988.6,260,23.7,19.8,79,14.83,55,7.6,297.8,341.0,300.4
988.1,265,23.6,19.8,79,14.84,55,7.6,297.8,341.0,300.4
987.6,269,23.6,19.8,79,14.86,55,7.6,297.8,341.1,300.4
987.1,274,23.5,19.8,80,14.89,55,7.6,297.8,341.2,300.4
986.5,279,23.5,19.8,80,14.91,54,7.6,297.8,341.2,300.5
986.0,283,23.4,19.8,80,14.91,54,7.6,297.8,341.2,300.4
985.4,288,23.4,19.8,80,14.88,54,7.6,297.8,341.1,300.4
984.9,293,23.3,19.7,80,14.84,54,7.5,297.8,341.0,300.4
984.4,298,23.3,19.7,80,14.80,53,7.5,297.8,340.9,300.4
983.9,302,23.3,19.6,80,14.78,53,7.5,297.8,340.8,300.4
983.4,306,23.2,19.6,80,14.79,53,7.5,297.8,340.9,300.4
982.9,311,23.2,19.6,80,14.80,52,7.4,297.8,340.9,300.4
982.4,315,23.1,19.6,81,14.80,52,7.4,297.8,340.9,300.4
982.0,319,23.1,19.6,81,14.82,52,7.4,297.8,341.0,300.4
981.5,323,23.1,19.7,81,14.85,51,7.3,297.8,341.0,300.4
981.0,328,23.0,19.7,82,14.86,51,7.3,297.8,341.1,300.4
980.5,332,23.0,19.7,82,14.86,50,7.3,297.8,341.0,300.4
979.9,337,22.9,19.7,82,14.86,50,7.3,297.8,341.1,300.4
979.4,342,22.9,19.6,82,14.85,49,7.3,297.8,341.0,300.4
978.9,346,22.8,19.6,82,14.85,49,7.2,297.8,341.0,300.4
978.4,351,22.8,19.6,82,14.84,49,7.2,297.8,341.0,300.4
977.9,355,22.7,19.6,82,14.81,48,7.2,297.8,340.9,300.4
977.4,359,22.7,19.5,82,14.80,48,7.2,297.8,340.9,300.4
977.0,363,22.6,19.6,83,14.81,47,7.2,297.8,340.9,300.4
976.6,367,22.6,19.6,83,14.85,47,7.2,297.8,341.0,300.4
976.2,370,22.6,19.6,83,14.87,47,7.2,297.8,341.1,300.4
975.8,374,22.6,19.6,83,14.86,46,7.2,297.8,341.0,300.4
975.4,378,22.5,19.6,83,14.86,46,7.2,297.8,341.0,300.4
975.0,381,22.5,19.6,84,14.87,46,7.2,297.8,341.1,300.4
974.6,385,22.5,19.6,84,14.91,46,7.3,297.8,341.2,300.4
974.1,389,22.4,19.6,84,14.92,46,7.3,297.8,341.2,300.4
973.7,393,22.4,19.6,84,14.93,45,7.3,297.8,341.3,300.4
973.2,398,22.3,19.6,85,14.93,45,7.3,297.8,341.3,300.4
972.7,402,22.3,19.6,85,14.94,45,7.4,297.8,341.3,300.4
972.2,406,22.3,19.6,85,14.94,45,7.4,297.8,341.3,300.5
971.7,411,22.2,19.6,85,14.94,45,7.5,297.8,341.3,300.4
971.2,416,22.2,19.6,85,14.91,45,7.5,297.8,341.2,300.4
970.6,420,22.1,19.5,85,14.87,46,7.5,297.8,341.1,300.4
970.1,425,22.1,19.5,85,14.86,46,7.6,297.8,341.1,300.4
969.6,430,22.0,19.5,86,14.88,46,7.6,297.8,341.1,300.4
969.1,434,22.0,19.5,86,14.92,46,7.7,297.8,341.2,300.4
968.6,439,21.9,19.5,86,14.91,46,7.7,297.8,341.2,300.4
968.1,443,21.9,19.5,86,14.87,46,7.7,297.8,341.1,300.4
967.6,447,21.9,19.4,86,14.84,46,7.8,297.8,341.0,300.4
967.2,452,21.8,19.4,86,14.85,47,7.8,297.8,341.0,300.4
966.7,456,21.8,19.5,87,14.88,47,7.8,297.8,341.1,300.5
966.2,460,21.7,19.5,87,14.91,47,7.9,297.8,341.2,300.5
965.8,464,21.7,19.5,87,14.92,47,7.9,297.8,341.2,300.5
965.3,468,21.7,19.5,87,14.94,48,7.9,297.8,341.3,300.5
964.8,473,21.6,19.5,88,14.95,48,7.9,297.8,341.3,300.5
964.3,477,21.6,19.5,88,14.97,48,7.9,297.8,341.4,300.5
963.9,481,21.5,19.5,88,14.99,48,7.9,297.8,341.4,300.5
963.4,486,21.5,19.5,89,15.00,49,7.9,297.8,341.5,300.5
962.9,490,21.5,19.5,89,14.98,49,7.9,297.8,341.4,300.5
962.4,494,21.4,19.5,89,14.97,49,7.9,297.8,341.4,300.5
961.9,499,21.4,19.5,89,14.96,49,7.9,297.8,341.4,300.5
961.5,503,21.3,19.4,89,14.94,50,7.9,297.8,341.3,300.5
961.0,507,21.3,19.4,89,14.91,50,7.9,297.8,341.2,300.4
960.5,512,21.2,19.4,89,14.91,50,7.9,297.8,341.2,300.5
960.1,516,21.2,19.4,89,14.92,51,7.9,297.8,341.2,300.5
959.6,520,21.2,19.4,90,14.95,51,7.9,297.8,341.4,300.5
959.1,524,21.1,19.4,90,14.98,51,7.9,297.8,341.4,300.5
958.6,529,21.1,19.4,90,15.00,52,7.9,297.8,341.5,300.5
958.1,533,21.0,19.4,91,15.00,52,7.9,297.8,341.5,300.5
957.6,538,21.0,19.4,91,14.96,52,7.9,297.8,341.4,300.5
957.1,543,21.0,19.3,90,14.90,52,7.9,297.8,341.2,300.5
956.5,548,20.9,19.3,90,14.88,53,7.9,297.8,341.1,300.5
956.0,553,20.9,19.2,90,14.85,53,7.9,297.8,341.1,300.5
955.4,558,20.8,19.2,90,14.80,53,7.9,297.8,340.9,300.5
954.9,563,20.8,19.1,90,14.74,53,7.9,297.8,340.8,300.5
954.3,568,20.7,19.1,90,14.72,53,7.9,297.8,340.7,300.5
953.7,573,20.7,19.0,90,14.68,53,7.9,297.9,340.6,300.5
953.2,578,20.7,19.0,90,14.65,53,7.9,297.9,340.5,300.5
952.6,583,20.6,19.0,90,14.63,53,7.9,297.9,340.5,300.5
952.1,588,20.6,18.9,90,14.55,53,7.9,297.9,340.3,300.5
951.6,593,20.5,18.7,89,14.44,53,7.9,297.9,339.9,300.4
951.1,597,20.5,18.7,89,14.40,53,8.0,297.9,339.8,300.4
950.6,602,20.4,18.8,90,14.47,53,8.0,297.9,340.0,300.5
950.1,606,20.4,18.9,91,14.58,53,8.0,297.9,340.3,300.5
949.6,611,20.4,18.9,91,14.60,52,8.0,297.9,340.4,300.5
949.1,615,20.3,18.9,91,14.60,52,8.1,297.9,340.4,300.5
948.7,620,20.3,18.9,92,14.62,52,8.1,297.8,340.4,300.5
948.2,624,20.2,18.9,92,14.61,52,8.2,297.8,340.4,300.4
947.7,628,20.2,18.8,92,14.53,52,8.2,297.8,340.2,300.4
947.3,632,20.1,18.7,91,14.45,52,8.2,297.8,339.9,300.4
946.8,636,20.1,18.6,91,14.39,51,8.3,297.9,339.8,300.4
946.4,640,20.1,18.6,91,14.39,51,8.3,297.9,339.8,300.4
946.0,644,20.0,18.7,92,14.46,51,8.3,297.9,340.0,300.5
945.6,647,20.0,18.8,93,14.58,51,8.4,297.9,340.3,300.5
945.2,651,19.9,18.9,94,14.74,51,8.4,297.8,340.8,300.5
944.8,655,19.9,19.1,95,14.88,51,8.4,297.8,341.1,300.5
944.4,658,19.8,19.1,95,14.88,51,8.5,297.8,341.1,300.5
944.0,662,19.8,19.0,95,14.80,51,8.5,297.8,340.9,300.4
943.6,666,19.8,18.8,94,14.67,52,8.5,297.8,340.5,300.4
943.2,670,19.7,18.8,94,14.60,52,8.5,297.8,340.3,300.4
942.7,674,19.7,18.9,95,14.69,52,8.6,297.8,340.6,300.5
942.3,678,19.7,19.0,96,14.86,52,8.6,297.8,341.1,300.5
941.8,682,19.6,19.1,97,14.96,52,8.6,297.8,341.4,300.5
941.3,687,19.5,19.2,98,15.00,53,8.6,297.8,341.4,300.5
940.8,691,19.5,19.1,98,14.96,53,8.6,297.8,341.3,300.4
940.3,696,19.4,19.0,98,14.91,53,8.7,297.8,341.2,300.4
939.8,701,19.4,19.0,98,14.88,54,8.7,297.8,341.1,300.4
939.3,705,19.4,19.0,98,14.91,54,8.7,297.8,341.2,300.4
938.8,710,19.3,19.1,98,14.95,55,8.8,297.8,341.3,300.5
938.3,715,19.3,19.1,99,14.96,55,8.8,297.8,341.3,300.5
937.8,719,19.2,19.0,99,14.94,55,8.8,297.8,341.3,300.5
937.3,724,19.2,19.0,99,14.90,56,8.9,297.8,341.2,300.5
936.8,729,19.2,19.0,99,14.88,56,8.9,297.8,341.1,300.5
936.3,733,19.1,18.9,99,14.86,57,9.0,297.8,341.1,300.5
935.8,738,19.1,18.9,99,14.86,57,9.0,297.8,341.1,300.5
935.3,742,19.1,18.9,99,14.85,58,9.1,297.9,341.1,300.5
934.8,747,19.1,18.9,99,14.82,58,9.2,297.9,341.0,300.5
934.3,751,19.0,18.8,99,14.82,58,9.3,297.9,341.1,300.6
933.8,756,19.0,18.8,99,14.83,59,9.3,297.9,341.1,300.6
933.3,761,19.0,18.8,99,14.81,59,9.4,297.9,341.1,300.6
932.7,766,18.9,18.7,99,14.70,59,9.5,297.9,340.8,300.6
932.2,771,18.8,18.4,98,14.47,60,9.6,297.9,340.0,300.5
931.6,776,18.8,18.2,96,14.22,60,9.7,297.9,339.3,300.4
931.1,781,18.7,18.1,96,14.14,61,9.8,297.9,339.1,300.4
930.6,786,18.7,18.1,96,14.18,61,9.9,297.9,339.2,300.4
930.0,791,18.7,18.1,97,14.23,61,10.0,297.9,339.4,300.5
929.5,796,18.6,18.1,97,14.19,62,10.1,297.9,339.3,300.5
929.0,800,18.6,18.0,96,14.11,62,10.2,298.0,339.1,300.5
928.5,805,18.6,17.9,96,14.01,62,10.3,298.0,338.9,300.5
927.9,810,18.6,17.7,95,13.90,62,10.4,298.0,338.6,300.5
927.4,815,18.6,17.7,94,13.83,63,10.5,298.1,338.4,300.6
926.9,820,18.5,17.6,94,13.82,63,10.5,298.1,338.4,300.6
926.3,825,18.5,17.6,94,13.80,63,10.6,298.1,338.4,300.6
925.7,831,18.5,17.5,94,13.70,63,10.7,298.1,338.1,300.6
925.1,836,18.4,17.3,93,13.54,64,10.7,298.1,337.6,300.5
925.0,837,18.4,17.3,93,13.51,64,10.8,298.1,337.6,300.5
924.5,842,18.4,17.1,92,13.43,64,10.8,298.1,337.3,300.5
923.9,848,18.3,17.1,92,13.37,64,10.8,298.2,337.2,300.5
923.3,854,18.3,16.8,91,13.12,64,10.8,298.2,336.5,300.5
922.6,860,18.4,16.2,87,12.63,65,10.9,298.3,335.3,300.6
922.0,866,18.5,15.8,84,12.32,65,10.9,298.4,334.5,300.7
921.3,872,18.5,15.7,84,12.28,65,10.9,298.5,334.5,300.7
920.7,877,18.5,15.8,84,12.33,65,10.9,298.6,334.7,300.8
920.1,883,18.4,15.7,84,12.31,65,10.9,298.6,334.6,300.8
919.5,889,18.4,15.5,84,12.17,65,10.9,298.6,334.2,300.8
918.9,894,18.4,15.2,82,11.94,65,10.8,298.7,333.7,300.8
918.4,899,18.4,15.0,81,11.78,65,10.8,298.7,333.3,300.8
917.8,904,18.4,14.9,80,11.70,66,10.8,298.8,333.1,300.9
917.3,910,18.4,14.8,80,11.63,66,10.8,298.8,333.0,300.9
916.8,914,18.4,14.7,79,11.58,66,10.7,298.8,332.8,300.9
916.2,919,18.3,14.6,79,11.50,66,10.7,298.9,332.6,300.9
915.7,924,18.3,14.3,77,11.29,66,10.7,298.9,332.1,300.9
915.2,929,18.4,13.9,75,10.96,66,10.6,299.0,331.2,301.0
914.6,934,18.4,13.5,73,10.72,66,10.6,299.1,330.7,301.0
914.1,939,18.4,13.4,73,10.65,66,10.5,299.2,330.5,301.1
913.6,944,18.4,13.4,73,10.67,65,10.5,299.2,330.6,301.1
913.1,949,18.4,13.5,73,10.69,65,10.5,299.2,330.7,301.1
912.5,954,18.4,13.5,73,10.74,65,10.4,299.2,330.9,301.2
912.0,959,18.3,13.6,74,10.79,65,10.4,299.3,331.0,301.2
911.5,964,18.3,13.6,74,10.83,65,10.3,299.3,331.2,301.2
910.9,969,18.3,13.6,74,10.82,65,10.2,299.3,331.2,301.3
910.4,974,18.3,13.5,74,10.77,65,10.2,299.3,331.1,301.3
909.9,979,18.2,13.5,74,10.75,64,10.1,299.3,331.0,301.3
909.4,984,18.2,13.5,74,10.76,64,10.0,299.3,331.0,301.3
908.9,989,18.1,13.5,75,10.79,64,10.0,299.3,331.1,301.3
908.4,993,18.1,13.6,75,10.83,64,9.9,299.3,331.2,301.3
907.9,998,18.0,13.6,75,10.87,63,9.8,299.3,331.3,301.3
907.4,1002,18.0,13.7,76,10.90,63,9.7,299.3,331.4,301.3
906.9,1007,17.9,13.7,76,10.93,63,9.6,299.3,331.5,301.3
906.4,1012,17.9,13.8,77,10.97,63,9.6,299.3,331.6,301.3
905.9,1017,17.8,13.8,77,11.02,63,9.5,299.3,331.8,301.3
905.4,1021,17.8,13.9,78,11.07,62,9.4,299.3,331.9,301.3
904.9,1026,17.8,13.9,78,11.13,62,9.3,299.4,332.1,301.4
904.4,1031,17.8,14.0,79,11.18,62,9.2,299.4,332.3,301.4
904.0,1035,17.8,14.0,79,11.17,62,9.1,299.4,332.3,301.4
903.5,1040,17.7,14.0,79,11.16,62,9.0,299.4,332.3,301.4
903.0,1044,17.7,14.0,79,11.16,62,8.9,299.5,332.3,301.5
902.5,1049,17.7,13.9,79,11.14,62,8.9,299.5,332.3,301.5
902.0,1053,17.6,13.9,79,11.11,62,8.8,299.5,332.2,301.5
901.5,1058,17.6,13.8,78,11.07,62,8.7,299.5,332.1,301.5
901.1,1063,17.6,13.8,78,11.05,62,8.7,299.5,332.0,301.5
900.6,1067,17.5,13.8,79,11.05,62,8.6,299.5,332.1,301.5
900.1,1072,17.5,13.8,79,11.08,63,8.6,299.5,332.1,301.5
899.7,1076,17.4,13.8,79,11.09,63,8.5,299.5,332.2,301.5
899.2,1080,17.4,13.8,79,11.07,63,8.5,299.5,332.1,301.5
898.8,1084,17.4,13.7,79,11.05,63,8.5,299.5,332.1,301.5
898.4,1088,17.4,13.7,79,11.04,63,8.4,299.5,332.1,301.5
897.9,1092,17.3,13.7,79,11.04,64,8.4,299.6,332.1,301.5
897.5,1096,17.3,13.7,79,11.05,64,8.4,299.6,332.1,301.5
897.1,1101,17.3,13.7,80,11.05,64,8.4,299.6,332.1,301.5
896.6,1105,17.2,13.7,80,11.05,64,8.4,299.6,332.1,301.5
896.1,1110,17.2,13.7,80,11.04,64,8.4,299.6,332.1,301.6
895.7,1114,17.1,13.6,80,11.01,64,8.4,299.6,332.0,301.6
895.2,1118,17.1,13.6,80,10.97,65,8.4,299.6,331.9,301.6
894.8,1123,17.1,13.5,79,10.94,65,8.4,299.6,331.9,301.6
894.3,1127,17.1,13.5,79,10.95,65,8.4,299.7,331.9,301.6
893.9,1131,17.1,13.5,79,10.95,65,8.3,299.7,332.0,301.7
893.4,1135,17.1,13.5,79,10.95,65,8.3,299.7,332.0,301.7
893.0,1140,17.1,13.5,80,10.95,65,8.3,299.7,332.1,301.7
892.5,1144,17.0,13.5,80,10.95,65,8.3,299.8,332.1,301.7
892.1,1148,17.0,13.5,80,10.95,65,8.2,299.8,332.1,301.7
891.6,1153,17.0,13.5,80,10.94,65,8.2,299.8,332.1,301.7
891.2,1157,16.9,13.4,80,10.92,65,8.2,299.8,332.0,301.8
890.7,1162,16.9,13.3,79,10.86,65,8.1,299.8,331.9,301.8
890.2,1166,16.9,13.3,79,10.83,65,8.1,299.9,331.8,301.8
889.7,1171,16.9,13.3,79,10.82,65,8.0,299.9,331.8,301.8
889.3,1175,16.8,13.2,79,10.82,65,8.0,299.9,331.8,301.8
888.8,1180,16.8,13.2,79,10.79,65,7.9,299.9,331.7,301.8
888.3,1185,16.8,13.1,79,10.73,65,7.8,299.9,331.6,301.8
887.8,1190,16.8,13.0,78,10.66,65,7.8,299.9,331.4,301.8
887.3,1194,16.7,12.9,78,10.57,65,7.7,299.9,331.2,301.8
886.8,1199,16.7,12.7,77,10.47,66,7.7,300.0,330.9,301.8
886.3,1204,16.7,12.6,77,10.38,66,7.6,300.0,330.7,301.9
885.8,1209,16.7,12.5,77,10.35,66,7.6,300.0,330.6,301.9
885.3,1213,16.6,12.5,76,10.32,66,7.6,300.0,330.6,301.9
884.8,1218,16.6,12.4,76,10.29,66,7.5,300.1,330.5,302.0
884.4,1222,16.7,12.4,76,10.25,67,7.5,300.2,330.5,302.0
883.9,1227,16.7,12.4,76,10.28,67,7.5,300.2,330.6,302.1
883.4,1232,16.6,12.4,76,10.32,67,7.5,300.2,330.8,302.1
882.9,1236,16.6,12.5,77,10.34,68,7.5,300.2,330.8,302.1
882.4,1241,16.5,12.5,77,10.34,68,7.5,300.2,330.8,302.1
882.0,1246,16.5,12.5,77,10.37,68,7.6,300.2,330.9,302.1
881.5,1250,16.4,12.6,78,10.42,68,7.6,300.2,331.1,302.1
881.0,1255,16.4,12.6,78,10.46,69,7.7,300.2,331.2,302.1
880.6,1259,16.4,12.6,78,10.47,69,7.7,300.3,331.2,302.1
880.2,1263,16.4,12.6,79,10.50,69,7.8,300.3,331.3,302.2
879.7,1267,16.3,12.7,79,10.54,69,7.9,300.3,331.5,302.2
879.4,1271,16.3,12.8,79,10.59,70,7.9,300.3,331.6,302.2
879.0,1275,16.3,12.8,80,10.62,70,8.0,300.3,331.7,302.2
878.6,1279,16.2,12.8,80,10.64,70,8.1,300.3,331.7,302.2
878.2,1283,16.2,12.9,81,10.68,70,8.2,300.3,331.8,302.2
877.7,1287,16.1,12.9,81,10.75,70,8.3,300.3,332.0,302.2
877.3,1291,16.1,13.1,82,10.84,70,8.4,300.2,332.3,302.2
876.9,1295,16.0,13.1,83,10.89,70,8.5,300.2,332.4,302.2
876.4,1299,16.0,13.1,83,10.89,70,8.6,300.2,332.4,302.2
876.0,1304,16.0,13.1,83,10.88,70,8.7,300.2,332.4,302.2
875.6,1308,15.9,13.1,83,10.87,70,8.8,300.3,332.4,302.2
875.1,1312,15.9,13.1,83,10.86,70,8.9,300.3,332.4,302.2
874.7,1316,15.9,13.0,83,10.85,70,9.0,300.3,332.4,302.3
874.3,1320,15.9,13.0,83,10.83,70,9.0,300.3,332.4,302.3
873.9,1324,15.9,13.0,83,10.83,70,9.1,300.4,332.4,302.3
873.5,1328,15.8,13.0,83,10.82,70,9.2,300.4,332.4,302.3
873.0,1333,15.8,13.0,83,10.81,70,9.2,300.4,332.4,302.3
872.6,1337,15.8,12.9,83,10.77,70,9.3,300.4,332.3,302.3
872.1,1341,15.7,12.8,83,10.71,70,9.3,300.4,332.1,302.3
871.7,1346,15.7,12.7,82,10.63,70,9.3,300.4,331.9,302.3
871.2,1350,15.7,12.6,82,10.59,70,9.3,300.4,331.8,302.3
870.8,1354,15.7,12.6,82,10.59,70,9.3,300.4,331.8,302.4
870.4,1358,15.6,12.6,82,10.60,70,9.3,300.5,331.8,302.4
870.0,1363,15.6,12.6,82,10.61,70,9.3,300.4,331.8,302.4
869.5,1367,15.6,12.6,83,10.60,71,9.3,300.5,331.8,302.4
869.1,1371,15.5,12.5,82,10.56,71,9.2,300.5,331.7,302.4
868.6,1376,15.5,12.4,82,10.50,71,9.2,300.5,331.6,302.4
868.2,1380,15.5,12.3,82,10.43,71,9.1,300.5,331.4,302.4
867.7,1385,15.4,12.2,81,10.38,71,9.1,300.5,331.3,302.4
867.2,1390,15.4,12.2,81,10.32,71,9.0,300.5,331.1,302.4
866.7,1395,15.4,12.0,80,10.24,71,9.0,300.6,330.9,302.4
866.2,1399,15.3,11.9,80,10.15,71,8.9,300.6,330.7,302.4
865.7,1404,15.3,11.7,79,10.06,72,8.8,300.6,330.4,302.4
865.3,1408,15.3,11.7,79,10.02,72,8.8,300.6,330.3,302.4
864.8,1413,15.3,11.7,79,10.01,72,8.7,300.7,330.4,302.5
864.4,1417,15.3,11.7,79,10.05,72,8.6,300.7,330.5,302.5
864.0,1420,15.2,11.8,80,10.10,73,8.6,300.7,330.7,302.5
863.7,1424,15.2,11.8,80,10.13,73,8.5,300.7,330.7,302.5
863.3,1428,15.2,11.8,80,10.15,73,8.5,300.7,330.8,302.5
862.9,1432,15.1,11.8,81,10.15,74,8.4,300.7,330.8,302.5
862.5,1435,15.1,11.8,81,10.16,74,8.4,300.7,330.8,302.5
862.1,1439,15.1,11.9,81,10.18,74,8.4,300.7,330.9,302.5
861.7,1443,15.0,11.9,82,10.24,75,8.4,300.7,331.1,302.5
861.3,1448,15.0,12.0,83,10.32,75,8.4,300.7,331.3,302.6
860.8,1452,14.9,12.1,83,10.38,75,8.4,300.7,331.5,302.6
860.4,1457,14.9,12.2,83,10.40,76,8.4,300.7,331.6,302.6
859.9,1461,14.9,12.1,84,10.40,76,8.4,300.7,331.6,302.6
859.4,1466,14.9,12.1,84,10.38,76,8.4,300.8,331.5,302.6
858.9,1471,14.8,12.1,84,10.37,77,8.4,300.8,331.5,302.6
858.4,1476,14.8,12.0,83,10.32,77,8.4,300.8,331.4,302.7
858.0,1480,14.8,11.9,83,10.24,77,8.4,300.8,331.2,302.7
857.5,1485,14.8,11.7,82,10.16,77,8.5,300.9,331.0,302.7
857.1,1489,14.8,11.7,82,10.11,77,8.5,300.9,330.9,302.7
856.6,1494,14.7,11.7,82,10.13,77,8.5,300.9,330.9,302.7
856.2,1498,14.7,11.7,82,10.15,78,8.5,300.9,331.0,302.7
855.8,1502,14.7,11.7,82,10.14,78,8.6,300.9,331.0,302.7
855.4,1506,14.6,11.6,82,10.11,78,8.6,300.9,330.9,302.7
855.0,1510,14.6,11.6,82,10.08,78,8.6,300.9,330.8,302.7
854.6,1514,14.5,11.6,82,10.08,78,8.6,300.9,330.8,302.7
854.2,1518,14.5,11.6,83,10.08,78,8.6,300.9,330.8,302.7
853.8,1522,14.5,11.6,83,10.08,78,8.6,300.9,330.9,302.8
853.4,1526,14.5,11.5,83,10.07,78,8.6,300.9,330.8,302.8
852.9,1530,14.4,11.5,82,10.02,78,8.5,301.0,330.7,302.8
852.5,1534,14.4,11.3,82,9.95,77,8.5,301.0,330.5,302.8
852.0,1539,14.4,11.3,82,9.90,77,8.5,301.0,330.4,302.8
851.6,1544,14.3,11.2,81,9.85,77,8.5,301.0,330.3,302.8
851.1,1549,14.3,11.0,81,9.76,77,8.4,301.0,330.0,302.8
850.6,1553,14.3,10.9,80,9.68,77,8.4,301.0,329.8,302.8
850.1,1558,14.3,10.9,80,9.65,76,8.4,301.1,329.8,302.8
850.0,1559,14.3,10.9,80,9.65,76,8.3,301.1,329.8,302.8
849.6,1563,14.2,10.9,80,9.66,76,8.3,301.1,329.8,302.8
849.2,1568,14.2,10.8,80,9.64,76,8.3,301.1,329.8,302.8
848.7,1572,14.2,10.7,80,9.59,76,8.2,301.1,329.6,302.8
848.2,1577,14.1,10.6,80,9.53,75,8.2,301.1,329.5,302.8
847.8,1582,14.1,10.5,79,9.45,75,8.2,301.1,329.2,302.8
847.3,1586,14.1,10.4,78,9.37,74,8.2,301.1,329.0,302.8
846.9,1590,14.0,10.2,78,9.28,74,8.1,301.2,328.8,302.8
846.5,1595,14.0,10.1,77,9.19,74,8.1,301.2,328.6,302.8
846.0,1599,14.0,10.0,77,9.14,73,8.1,301.2,328.5,302.9
845.6,1603,14.0,10.0,77,9.17,73,8.1,301.2,328.6,302.9
845.2,1608,14.0,10.1,78,9.24,72,8.1,301.3,328.8,302.9
844.7,1612,13.9,10.3,79,9.36,71,8.1,301.3,329.2,303.0
844.3,1616,13.9,10.5,80,9.47,71,8.2,301.3,329.5,303.0
843.8,1621,13.9,10.4,80,9.43,70,8.2,301.3,329.4,303.0
843.4,1625,13.8,10.2,79,9.33,70,8.2,301.3,329.1,303.0
842.9,1630,13.8,10.1,78,9.23,69,8.3,301.3,328.8,303.0
842.5,1634,13.8,9.8,77,9.09,68,8.3,301.3,328.5,303.0
842.1,1638,13.8,9.6,76,8.98,68,8.3,301.4,328.1,303.0
841.7,1643,13.8,9.5,75,8.89,67,8.4,301.4,327.9,303.0
841.3,1647,13.8,9.4,75,8.84,66,8.4,301.4,327.8,303.0
840.9,1651,13.7,9.4,75,8.83,66,8.5,301.4,327.8,303.0
840.5,1655,13.7,9.4,75,8.82,65,8.5,301.5,327.8,303.1
840.1,1659,13.7,9.3,75,8.80,65,8.6,301.5,327.8,303.1
839.7,1662,13.6,9.3,75,8.79,64,8.6,301.5,327.7,303.1
839.3,1666,13.6,9.3,75,8.79,64,8.6,301.5,327.7,303.1
839.0,1670,13.6,9.3,75,8.80,63,8.6,301.5,327.8,303.1
