PRES,HGHT,TEMP,DWPT,RELH,MIXR,DRCT,SPED,THTA,THTE,THTV
1007.5,31,19.7,15.4,76,10.96,198,2.8,292.2,323.5,294.2
1007.0,35,20.3,15.1,72,10.76,209,2.1,292.8,323.7,294.7
1006.5,39,20.6,15.0,71,10.73,217,2.0,293.2,324.0,295.1
1005.6,46,20.8,15.0,69,10.71,222,2.0,293.5,324.3,295.4
1005.0,52,20.9,14.8,68,10.59,223,2.2,293.7,324.1,295.5
1004.2,59,21.1,14.8,67,10.58,224,2.4,293.9,324.4,295.8
1003.6,64,21.1,14.7,67,10.52,225,2.7,294.0,324.3,295.8
1003.0,69,21.0,14.6,67,10.45,227,2.9,293.9,324.0,295.8
1002.4,75,21.0,14.5,66,10.40,228,3.1,293.9,323.9,295.8
1001.7,80,21.1,14.5,66,10.40,230,3.3,294.1,324.1,296.0
1001.1,86,21.2,14.5,65,10.40,231,3.5,294.2,324.2,296.1
1000.5,91,21.2,14.4,65,10.39,232,3.8,294.3,324.3,296.1
1000.0,95,21.1,14.4,66,10.37,232,3.8,294.3,324.2,296.1
999.8,97,21.1,14.4,66,10.37,234,4.0,294.3,324.2,296.1
999.2,103,21.1,14.4,66,10.36,235,4.2,294.3,324.2,296.1
998.5,108,21.1,14.4,65,10.35,236,4.4,294.3,324.2,296.2
997.8,114,21.1,14.4,65,10.35,237,4.6,294.4,324.3,296.2
997.2,120,21.0,14.3,65,10.33,238,4.9,294.4,324.2,296.2
996.5,125,21.1,14.2,65,10.29,239,5.1,294.5,324.3,296.3
995.9,131,21.2,14.2,64,10.28,240,5.3,294.7,324.4,296.5
995.2,137,21.2,14.1,64,10.20,241,5.5,294.8,324.3,296.6
994.6,143,21.3,14.1,63,10.21,241,5.7,294.9,324.5,296.7
993.9,148,21.3,14.1,64,10.23,242,5.9,294.9,324.6,296.7
993.2,154,21.1,14.2,64,10.28,243,6.1,294.8,324.6,296.7
992.5,160,21.0,14.1,65,10.25,243,6.2,294.7,324.4,296.6
991.9,166,21.0,14.1,65,10.26,244,6.4,294.8,324.5,296.6
991.2,172,21.0,14.0,64,10.21,245,6.6,294.9,324.5,296.7
990.6,177,21.1,13.9,64,10.14,245,6.7,295.0,324.4,296.8
990.0,183,21.1,13.9,63,10.11,246,6.8,295.1,324.4,296.9
989.4,188,21.1,13.9,63,10.11,246,7.0,295.1,324.4,296.9
988.8,193,21.0,13.9,64,10.12,247,7.1,295.1,324.4,296.9
988.2,198,20.9,13.9,64,10.13,248,7.2,295.1,324.4,296.9
987.6,203,20.9,13.9,64,10.16,248,7.3,295.1,324.5,296.9
987.1,208,20.8,13.9,64,10.16,249,7.4,295.1,324.5,296.9
986.5,213,20.8,13.9,64,10.14,249,7.5,295.1,324.5,296.9
985.9,218,20.7,13.8,65,10.12,250,7.6,295.1,324.4,296.9
985.4,223,20.7,13.8,65,10.12,250,7.7,295.1,324.4,296.9
984.8,228,20.7,13.8,65,10.12,251,7.8,295.1,324.4,296.9
984.3,232,20.6,13.8,65,10.11,251,7.8,295.1,324.4,296.9
983.7,237,20.5,13.7,65,10.08,252,7.9,295.1,324.3,296.9
983.2,242,20.5,13.6,65,10.01,252,8.0,295.1,324.1,296.8
982.7,246,20.5,13.4,64,9.88,253,8.1,295.1,323.8,296.9
982.2,251,20.6,13.2,62,9.75,253,8.2,295.3,323.6,297.0
981.7,255,20.6,13.1,62,9.71,254,8.2,295.3,323.6,297.1
981.2,260,20.6,13.2,63,9.78,254,8.3,295.3,323.8,297.1
980.7,264,20.5,13.3,63,9.83,255,8.4,295.3,323.8,297.0
980.2,269,20.4,13.3,64,9.82,255,8.5,295.3,323.8,297.0
979.6,274,20.5,13.2,63,9.80,256,8.6,295.3,323.8,297.1
979.1,279,20.4,13.2,63,9.80,256,8.7,295.4,323.8,297.1
978.5,284,20.4,13.3,64,9.82,257,8.8,295.3,323.9,297.1
977.9,289,20.3,13.3,64,9.83,257,8.9,295.3,323.8,297.1
977.2,295,20.2,13.2,64,9.78,258,9.0,295.3,323.7,297.1
976.6,300,20.2,13.1,63,9.72,258,9.1,295.4,323.6,297.1
975.9,306,20.2,13.0,63,9.71,258,9.2,295.4,323.6,297.1
975.3,312,20.1,13.1,64,9.73,259,9.3,295.4,323.6,297.1
974.7,317,20.0,13.1,64,9.74,259,9.4,295.3,323.6,297.1
974.0,323,20.0,13.1,64,9.74,259,9.5,295.4,323.6,297.1
973.4,328,19.9,13.0,64,9.73,260,9.6,295.4,323.6,297.1
972.8,334,19.9,13.0,65,9.73,260,9.7,295.3,323.6,297.1
972.2,339,19.8,13.0,65,9.71,260,9.8,295.3,323.5,297.1
971.6,344,19.8,12.9,64,9.68,260,9.9,295.4,323.5,297.1
971.0,349,19.8,12.8,64,9.63,260,10.0,295.4,323.4,297.1
970.5,355,19.8,12.8,64,9.62,261,10.2,295.4,323.4,297.1
969.9,359,19.7,12.8,65,9.64,261,10.3,295.4,323.4,297.1
969.4,364,19.7,12.9,65,9.68,261,10.4,295.4,323.5,297.1
968.8,369,19.6,12.9,65,9.71,261,10.5,295.4,323.6,297.1
968.3,374,19.6,12.9,65,9.70,261,10.7,295.4,323.6,297.1
967.7,379,19.5,12.9,66,9.69,261,10.8,295.4,323.6,297.1
967.1,384,19.5,12.9,66,9.70,261,10.9,295.4,323.6,297.1
966.6,389,19.4,12.9,66,9.68,262,11.0,295.4,323.5,297.1
966.1,394,19.4,12.8,66,9.66,262,11.1,295.4,323.5,297.1
965.5,399,19.3,12.8,66,9.66,262,11.3,295.4,323.5,297.1
965.0,403,19.3,12.8,66,9.67,262,11.4,295.4,323.5,297.1
964.5,408,19.2,12.8,66,9.68,262,11.5,295.4,323.5,297.1
964.0,412,19.2,12.8,67,9.69,262,11.6,295.4,323.5,297.1
963.5,417,19.1,12.8,67,9.67,262,11.6,295.4,323.5,297.1
963.0,421,19.1,12.7,67,9.64,262,11.7,295.4,323.4,297.1
962.5,425,19.1,12.7,66,9.62,262,11.8,295.4,323.4,297.1
962.1,429,19.0,12.7,67,9.61,262,11.8,295.4,323.4,297.1
961.6,434,19.0,12.7,67,9.63,262,11.9,295.4,323.4,297.2
961.1,438,19.0,12.7,67,9.67,262,11.9,295.5,323.6,297.2
960.7,442,19.0,12.8,67,9.71,262,12.0,295.5,323.7,297.2
960.2,446,18.9,12.8,68,9.72,262,12.0,295.5,323.7,297.2
959.8,450,18.9,12.8,68,9.70,262,12.0,295.5,323.6,297.2
959.3,454,18.9,12.7,67,9.66,262,12.0,295.5,323.6,297.2
958.9,458,18.8,12.6,67,9.62,262,11.9,295.5,323.5,297.2
958.5,462,18.8,12.6,67,9.59,262,11.9,295.5,323.4,297.2
958.0,465,18.8,12.6,67,9.59,262,11.9,295.5,323.4,297.2
957.6,469,18.7,12.6,67,9.60,263,11.8,295.5,323.4,297.2
957.3,473,18.7,12.6,68,9.61,263,11.8,295.5,323.4,297.2
956.9,476,18.6,12.6,68,9.60,263,11.7,295.5,323.4,297.2
956.5,479,18.6,12.6,68,9.60,263,11.6,295.5,323.4,297.2
956.2,483,18.6,12.5,68,9.59,263,11.5,295.5,323.3,297.2
955.8,486,18.5,12.5,68,9.57,263,11.5,295.4,323.2,297.1
955.4,489,18.5,12.5,68,9.57,263,11.4,295.4,323.3,297.1
955.0,493,18.5,12.5,68,9.57,263,11.3,295.5,323.3,297.2
954.6,497,18.4,12.5,68,9.58,264,11.2,295.5,323.3,297.2
954.1,501,18.4,12.5,68,9.57,264,11.1,295.5,323.3,297.2
953.7,504,18.3,12.5,69,9.56,264,11.0,295.5,323.2,297.2
953.3,508,18.3,12.5,69,9.56,264,11.0,295.5,323.3,297.2
952.8,512,18.3,12.5,69,9.57,264,10.9,295.5,323.3,297.2
952.4,516,18.2,12.4,69,9.57,264,10.8,295.4,323.2,297.1
951.9,520,18.2,12.4,69,9.55,264,10.7,295.4,323.2,297.1
951.5,524,18.1,12.4,69,9.53,264,10.7,295.4,323.1,297.1
951.1,528,18.1,12.4,69,9.52,264,10.6,295.4,323.1,297.1
950.7,531,18.1,12.3,69,9.52,264,10.6,295.4,323.1,297.1
950.3,535,18.0,12.3,69,9.52,264,10.6,295.4,323.1,297.1
950.0,538,18.0,12.3,69,9.50,264,10.6,295.4,323.0,297.1
949.6,542,18.0,12.3,69,9.49,264,10.6,295.4,323.0,297.1
949.2,545,17.9,12.3,70,9.50,264,10.6,295.4,323.1,297.1
948.9,548,17.9,12.3,70,9.52,263,10.6,295.4,323.1,297.1
948.5,551,17.9,12.4,70,9.55,263,10.6,295.5,323.2,297.2
948.1,555,17.9,12.4,70,9.56,263,10.7,295.5,323.3,297.2
947.7,558,17.9,12.3,70,9.55,263,10.7,295.5,323.3,297.2
947.4,562,17.8,12.3,70,9.53,263,10.8,295.5,323.2,297.2
947.0,565,17.8,12.3,70,9.50,262,10.8,295.5,323.1,297.2
946.5,569,17.8,12.2,70,9.50,262,10.9,295.5,323.1,297.2
946.1,573,17.7,12.3,71,9.53,262,11.0,295.5,323.2,297.2
945.7,577,17.7,12.3,71,9.55,262,11.1,295.5,323.2,297.2
945.3,581,17.6,12.3,71,9.58,262,11.1,295.5,323.3,297.2
944.8,585,17.6,12.4,71,9.59,262,11.2,295.5,323.4,297.2
944.4,589,17.6,12.4,72,9.62,261,11.3,295.5,323.4,297.2
943.9,593,17.5,12.4,72,9.64,261,11.4,295.5,323.5,297.2
943.3,598,17.5,12.4,72,9.64,261,11.4,295.5,323.5,297.2
942.8,603,17.4,12.4,72,9.63,261,11.5,295.5,323.5,297.2
942.3,608,17.4,12.3,72,9.60,261,11.6,295.5,323.4,297.2
941.7,613,17.3,12.3,72,9.57,262,11.6,295.5,323.3,297.2
941.2,618,17.3,12.3,72,9.57,262,11.7,295.5,323.3,297.2
940.6,623,17.3,12.3,73,9.61,262,11.7,295.5,323.5,297.2
940.1,628,17.2,12.3,73,9.61,262,11.7,295.5,323.5,297.2
939.5,633,17.2,12.2,73,9.57,262,11.7,295.5,323.3,297.2
939.0,637,17.1,12.2,73,9.54,262,11.7,295.5,323.3,297.2
938.5,642,17.1,12.2,73,9.54,262,11.7,295.5,323.3,297.2
938.0,647,17.1,12.1,73,9.52,263,11.7,295.6,323.2,297.2
937.5,652,17.0,12.1,73,9.51,263,11.7,295.6,323.2,297.3
937.0,656,17.0,12.1,73,9.48,263,11.7,295.6,323.1,297.3
936.5,661,16.9,12.0,73,9.45,263,11.7,295.6,323.0,297.3
936.0,665,16.9,12.0,73,9.45,264,11.7,295.6,323.1,297.3
935.5,669,16.9,12.1,74,9.52,264,11.7,295.6,323.2,297.3
935.0,674,16.8,12.2,74,9.58,264,11.7,295.5,323.4,297.2
934.6,678,16.7,12.2,75,9.61,264,11.6,295.5,323.4,297.2
934.1,682,16.7,12.2,75,9.61,264,11.6,295.5,323.5,297.2
933.7,686,16.7,12.1,75,9.55,264,11.6,295.6,323.3,297.3
933.2,690,16.7,12.0,74,9.48,265,11.6,295.6,323.1,297.3
932.8,694,16.6,11.9,74,9.43,265,11.6,295.6,323.0,297.3
932.3,698,16.6,11.9,74,9.43,265,11.7,295.6,323.0,297.3
931.9,703,16.6,12.0,74,9.47,265,11.7,295.6,323.2,297.3
931.4,707,16.5,12.1,75,9.55,265,11.7,295.6,323.3,297.3
930.9,712,16.4,12.2,76,9.60,265,11.7,295.6,323.5,297.3
930.3,717,16.4,12.2,76,9.64,265,11.8,295.5,323.5,297.3
929.8,722,16.3,12.2,77,9.65,265,11.8,295.5,323.6,297.3
929.2,727,16.2,12.2,77,9.62,265,11.9,295.5,323.5,297.2
928.5,733,16.2,12.1,77,9.57,265,11.9,295.5,323.4,297.2
927.9,739,16.2,12.0,76,9.53,265,12.0,295.6,323.3,297.3
927.2,745,16.1,11.9,76,9.51,265,12.0,295.6,323.2,297.3
926.5,752,16.1,11.9,76,9.51,265,12.1,295.6,323.2,297.3
925.8,758,16.0,11.9,77,9.50,265,12.2,295.6,323.2,297.2
925.2,764,15.9,11.8,77,9.43,265,12.2,295.6,323.0,297.2
925.0,766,15.9,11.8,76,9.42,265,12.3,295.6,323.0,297.2
924.5,770,15.9,11.7,76,9.37,265,12.3,295.6,322.9,297.3
923.8,776,15.8,11.7,76,9.37,265,12.3,295.6,322.9,297.3
923.2,782,15.8,11.6,76,9.35,265,12.4,295.6,322.8,297.3
922.5,788,15.7,11.5,76,9.29,265,12.5,295.6,322.7,297.3
921.9,794,15.7,11.4,75,9.23,265,12.5,295.7,322.5,297.3
921.3,800,15.7,11.4,75,9.21,265,12.5,295.7,322.5,297.4
920.6,806,15.7,11.4,76,9.21,266,12.6,295.7,322.5,297.4
920.0,812,15.6,11.3,76,9.20,266,12.6,295.7,322.5,297.4
919.3,818,15.6,11.3,76,9.19,266,12.6,295.7,322.5,297.4
918.7,824,15.5,11.3,76,9.18,266,12.6,295.7,322.5,297.4
918.0,830,15.4,11.2,76,9.16,266,12.6,295.7,322.4,297.4
917.4,836,15.4,11.2,76,9.15,266,12.6,295.7,322.4,297.4
916.8,842,15.3,11.2,76,9.14,266,12.6,295.7,322.4,297.3
916.1,848,15.3,11.2,77,9.15,266,12.6,295.7,322.4,297.4
915.5,853,15.2,11.2,77,9.15,266,12.6,295.7,322.4,297.4
914.9,859,15.2,11.2,77,9.14,266,12.6,295.7,322.3,297.3
914.3,865,15.1,11.1,77,9.13,266,12.5,295.7,322.3,297.3
913.7,870,15.1,11.1,77,9.12,266,12.5,295.7,322.3,297.4
913.1,876,15.0,11.1,78,9.14,266,12.5,295.7,322.3,297.4
912.5,881,14.9,11.2,78,9.18,266,12.4,295.7,322.4,297.4
911.9,887,14.9,11.2,79,9.21,266,12.4,295.7,322.5,297.4
911.3,892,14.8,11.2,79,9.23,266,12.4,295.7,322.6,297.4
910.8,897,14.8,11.2,79,9.22,266,12.3,295.7,322.6,297.3
910.2,902,14.7,11.2,79,9.21,265,12.3,295.7,322.5,297.3
909.7,907,14.7,11.1,79,9.17,265,12.3,295.7,322.4,297.3
909.2,912,14.6,11.0,79,9.12,265,12.3,295.7,322.3,297.3
908.6,917,14.6,11.0,79,9.08,265,12.2,295.7,322.2,297.3
908.1,922,14.6,10.9,78,9.04,265,12.2,295.8,322.1,297.4
907.6,927,14.6,10.9,79,9.04,264,12.2,295.8,322.1,297.4
907.1,932,14.5,10.8,79,9.03,264,12.2,295.8,322.1,297.4
906.5,937,14.5,10.8,78,8.99,264,12.2,295.8,322.0,297.4
906.0,942,14.5,10.7,78,8.95,264,12.2,295.8,321.9,297.4
905.4,947,14.4,10.7,78,8.93,263,12.3,295.8,321.9,297.4
904.8,953,14.4,10.6,78,8.92,263,12.3,295.8,321.8,297.4
904.2,958,14.3,10.6,78,8.89,263,12.3,295.8,321.8,297.4
903.6,964,14.3,10.5,78,8.88,263,12.4,295.8,321.7,297.4
903.0,969,14.2,10.5,78,8.86,262,12.4,295.9,321.7,297.4
902.5,975,14.2,10.4,78,8.83,262,12.5,295.8,321.6,297.4
901.9,980,14.1,10.4,78,8.81,262,12.5,295.9,321.5,297.4
901.3,986,14.1,10.4,78,8.81,262,12.6,295.9,321.6,297.4
900.7,992,14.0,10.4,79,8.82,261,12.6,295.9,321.6,297.5
900.1,997,14.0,10.4,79,8.85,261,12.7,295.9,321.7,297.5
899.5,1003,13.9,10.5,80,8.87,261,12.8,295.9,321.8,297.5
898.9,1008,13.9,10.4,80,8.86,261,12.8,295.9,321.7,297.5
898.3,1014,13.8,10.4,80,8.83,261,12.9,295.9,321.7,297.5
897.7,1020,13.8,10.3,80,8.80,261,13.0,295.9,321.6,297.5
897.1,1025,13.7,10.3,80,8.78,261,13.0,295.9,321.5,297.5
896.5,1031,13.7,10.3,80,8.78,261,13.1,295.9,321.5,297.5
895.9,1037,13.6,10.3,80,8.81,261,13.2,295.9,321.6,297.5
895.2,1043,13.6,10.4,81,8.87,261,13.2,295.9,321.8,297.5
894.6,1049,13.5,10.5,82,8.92,261,13.3,295.9,321.9,297.5
894.0,1054,13.4,10.5,82,8.93,261,13.3,295.9,321.9,297.5
893.4,1060,13.4,10.4,82,8.91,261,13.4,295.9,321.8,297.5
892.8,1066,13.3,10.4,82,8.88,261,13.4,295.9,321.8,297.5
892.2,1072,13.3,10.3,82,8.85,261,13.5,295.9,321.7,297.5
891.6,1077,13.2,10.3,82,8.83,262,13.5,295.9,321.7,297.5
891.0,1083,13.2,10.2,83,8.83,262,13.6,295.9,321.7,297.5
890.3,1089,13.1,10.2,83,8.82,262,13.6,295.9,321.7,297.5
889.7,1095,13.1,10.1,82,8.77,262,13.7,295.9,321.5,297.5
889.1,1101,13.0,9.9,82,8.67,262,13.7,295.9,321.2,297.5
888.4,1107,13.0,9.7,80,8.54,262,13.8,296.0,321.0,297.5
887.7,1114,13.0,9.6,80,8.49,262,13.9,296.0,320.8,297.5
887.1,1120,12.9,9.6,81,8.51,263,13.9,296.0,320.9,297.5
886.4,1127,12.9,9.6,81,8.51,263,14.0,296.0,320.9,297.5
885.7,1133,12.8,9.5,80,8.42,263,14.0,296.1,320.7,297.6
885.0,1139,12.8,9.3,79,8.33,263,14.1,296.1,320.4,297.6
884.4,1146,12.7,9.2,79,8.29,263,14.1,296.1,320.4,297.6
883.7,1152,12.7,9.2,79,8.30,263,14.2,296.1,320.4,297.6
883.1,1158,12.6,9.2,80,8.32,263,14.3,296.1,320.4,297.6
882.4,1164,12.6,9.2,80,8.31,263,14.3,296.1,320.4,297.6
881.7,1171,12.5,9.2,80,8.28,263,14.4,296.1,320.4,297.6
881.1,1177,12.5,9.1,80,8.27,263,14.5,296.1,320.3,297.6
880.5,1183,12.4,9.1,80,8.28,263,14.5,296.1,320.3,297.6
879.8,1189,12.4,9.1,81,8.29,263,14.6,296.1,320.4,297.6
879.2,1195,12.3,9.1,81,8.28,263,14.7,296.1,320.4,297.6
878.6,1201,12.2,9.1,81,8.26,263,14.8,296.1,320.3,297.6
878.0,1207,12.2,9.0,81,8.22,262,14.8,296.1,320.2,297.6
877.4,1212,12.1,8.9,80,8.17,262,14.9,296.2,320.1,297.6
876.8,1218,12.1,8.8,80,8.13,262,15.0,296.2,320.0,297.6
876.1,1224,12.1,8.8,80,8.12,262,15.0,296.2,320.0,297.6
875.5,1230,12.0,8.8,81,8.13,262,15.1,296.2,320.0,297.7
874.9,1236,12.0,8.7,81,8.12,262,15.2,296.2,320.0,297.6
874.3,1242,11.9,8.7,81,8.09,262,15.2,296.2,319.9,297.6
873.7,1247,11.9,8.6,80,8.05,261,15.3,296.2,319.8,297.7
873.2,1253,11.8,8.6,80,8.03,261,15.3,296.2,319.8,297.7
872.6,1258,11.8,8.5,80,8.02,261,15.4,296.2,319.7,297.7
872.0,1264,11.7,8.5,80,8.00,261,15.4,296.2,319.7,297.7
871.5,1269,11.7,8.4,80,7.96,261,15.4,296.2,319.6,297.7
871.0,1273,11.6,8.3,80,7.94,261,15.5,296.3,319.5,297.7
870.5,1278,11.6,8.3,80,7.92,260,15.5,296.3,319.5,297.7
870.0,1283,11.6,8.3,80,7.92,260,15.5,296.3,319.5,297.7
869.6,1287,11.5,8.2,80,7.89,260,15.6,296.3,319.4,297.7
869.1,1292,11.5,8.2,80,7.85,260,15.6,296.3,319.3,297.7
868.6,1296,11.5,8.0,79,7.78,260,15.6,296.4,319.2,297.7
868.2,1301,11.5,7.9,79,7.75,260,15.6,296.4,319.1,297.8
867.7,1305,11.5,7.9,79,7.73,260,15.6,296.4,319.1,297.8
867.2,1310,11.5,7.9,79,7.72,259,15.6,296.4,319.1,297.8
866.7,1315,11.4,7.9,79,7.71,259,15.6,296.5,319.1,297.8
866.2,1319,11.4,7.8,79,7.70,259,15.6,296.4,319.1,297.8
865.7,1324,11.3,7.8,79,7.70,259,15.6,296.5,319.1,297.8
865.2,1330,11.3,7.8,79,7.71,259,15.6,296.5,319.1,297.8
864.6,1335,11.2,7.9,80,7.74,259,15.6,296.5,319.2,297.8
864.0,1341,11.2,7.9,80,7.74,259,15.5,296.5,319.2,297.9
863.4,1347,11.1,7.8,80,7.73,258,15.5,296.5,319.2,297.8
862.8,1352,11.1,7.8,80,7.72,258,15.5,296.5,319.2,297.9
862.2,1359,11.1,7.8,80,7.70,258,15.5,296.5,319.1,297.9
861.6,1365,11.0,7.7,80,7.68,258,15.5,296.5,319.1,297.9
860.9,1371,11.0,7.7,80,7.68,258,15.4,296.5,319.1,297.9
860.3,1377,10.9,7.7,81,7.67,258,15.4,296.5,319.1,297.9
859.7,1383,10.8,7.7,81,7.67,258,15.4,296.5,319.0,297.9
859.1,1389,10.8,7.7,81,7.68,257,15.4,296.5,319.1,297.9
858.5,1395,10.7,7.7,81,7.70,257,15.4,296.5,319.2,297.9
857.9,1400,10.7,7.7,82,7.72,257,15.4,296.5,319.2,297.9
857.3,1406,10.6,7.7,82,7.74,257,15.4,296.6,319.3,297.9
856.7,1412,10.6,7.8,83,7.75,257,15.4,296.6,319.3,298.0
856.2,1417,10.5,7.7,83,7.74,256,15.4,296.6,319.3,297.9
855.6,1423,10.5,7.7,83,7.74,256,15.4,296.6,319.3,297.9
855.1,1428,10.5,7.7,83,7.75,256,15.4,296.6,319.4,298.0
854.5,1433,10.4,7.7,83,7.76,256,15.4,296.6,319.4,298.0
854.0,1439,10.4,7.7,84,7.77,255,15.5,296.6,319.4,298.0
853.4,1444,10.4,7.7,84,7.77,255,15.5,296.6,319.5,298.0
852.9,1449,10.3,7.7,84,7.77,255,15.5,296.6,319.5,298.0
852.3,1455,10.3,7.7,84,7.77,255,15.6,296.7,319.5,298.0
851.8,1460,10.2,7.7,84,7.77,255,15.6,296.6,319.5,298.0
851.2,1465,10.2,7.7,85,7.77,254,15.7,296.7,319.5,298.0
850.7,1471,10.1,7.7,85,7.77,254,15.7,296.7,319.5,298.0
850.1,1476,10.1,7.7,85,7.76,254,15.8,296.7,319.5,298.0
850.0,1477,10.1,7.7,85,7.76,254,15.8,296.7,319.5,298.0
849.6,1482,10.0,7.6,85,7.74,254,15.8,296.7,319.4,298.0
849.0,1487,10.0,7.6,85,7.73,253,15.9,296.7,319.4,298.0
848.4,1493,9.9,7.6,85,7.72,253,16.0,296.7,319.4,298.1
847.9,1498,9.9,7.5,85,7.71,253,16.0,296.7,319.3,298.0
847.3,1504,9.8,7.5,85,7.68,253,16.1,296.7,319.3,298.1
846.8,1509,9.8,7.4,85,7.65,252,16.2,296.7,319.2,298.0
846.2,1515,9.7,7.3,85,7.59,252,16.2,296.7,319.0,298.1
845.6,1520,9.7,7.1,84,7.50,252,16.3,296.8,318.8,298.1
845.1,1526,9.8,6.9,82,7.41,252,16.4,296.8,318.7,298.2
844.5,1531,9.8,6.8,82,7.36,251,16.4,296.9,318.6,298.2
843.9,1537,9.7,6.7,82,7.34,251,16.5,296.9,318.6,298.3
843.4,1543,9.7,6.7,82,7.33,251,16.6,297.0,318.6,298.3
842.8,1548,9.7,6.7,82,7.34,250,16.6,297.0,318.6,298.3
842.2,1554,9.6,6.7,82,7.33,250,16.7,297.0,318.6,298.3
841.7,1559,9.6,6.7,82,7.31,250,16.7,297.0,318.6,298.3
841.2,1564,9.5,6.6,82,7.30,250,16.8,297.0,318.5,298.3
840.7,1569,9.5,6.6,82,7.30,249,16.9,297.0,318.5,298.3
840.2,1574,9.5,6.6,82,7.30,249,16.9,297.0,318.5,298.3
839.7,1578,9.4,6.6,82,7.29,249,17.0,297.0,318.5,298.3
839.3,1583,9.4,6.6,83,7.28,248,17.0,297.0,318.5,298.3
838.8,1588,9.3,6.5,83,7.27,248,17.0,297.0,318.5,298.3
838.3,1592,9.3,6.5,83,7.26,248,17.1,297.1,318.5,298.4
837.8,1597,9.3,6.5,83,7.25,248,17.1,297.1,318.5,298.4
837.4,1602,9.2,6.4,82,7.22,247,17.1,297.1,318.4,298.4
836.9,1607,9.2,6.3,82,7.18,247,17.2,297.1,318.3,298.4
836.3,1612,9.2,6.3,82,7.16,247,17.2,297.2,318.3,298.5
835.8,1617,9.2,6.2,82,7.14,247,17.2,297.2,318.3,298.4
835.3,1622,9.1,6.1,81,7.09,247,17.2,297.2,318.1,298.4
834.8,1627,9.1,6.0,81,7.02,247,17.2,297.2,317.9,298.4
834.4,1632,9.1,5.8,80,6.97,246,17.2,297.2,317.8,298.5
833.9,1636,9.1,5.8,80,6.97,246,17.2,297.2,317.8,298.5
833.4,1641,9.0,5.9,81,7.00,246,17.2,297.3,317.9,298.5
832.9,1646,9.0,5.9,81,7.03,246,17.2,297.3,318.0,298.5
832.4,1651,8.9,5.9,81,7.03,246,17.1,297.3,318.1,298.5
831.9,1656,8.9,5.9,81,7.00,246,17.1,297.3,318.0,298.5
831.4,1662,8.9,5.8,81,6.95,246,17.1,297.3,317.8,298.5
830.8,1667,8.8,5.6,80,6.89,246,17.1,297.3,317.7,298.5
830.2,1673,8.8,5.5,80,6.84,246,17.0,297.3,317.6,298.6
829.6,1679,8.8,5.5,80,6.82,246,17.0,297.4,317.6,298.6
829.0,1685,8.7,5.4,80,6.81,247,17.0,297.4,317.5,298.6
828.4,1691,8.7,5.4,80,6.80,247,16.9,297.4,317.5,298.6
827.9,1697,8.6,5.4,80,6.79,247,16.9,297.4,317.5,298.6
827.3,1702,8.6,5.3,80,6.78,247,16.9,297.4,317.5,298.6
826.7,1708,8.5,5.3,80,6.76,247,16.9,297.4,317.4,298.6
826.2,1713,8.5,5.2,80,6.74,247,16.8,297.4,317.4,298.6
825.7,1719,8.4,5.2,80,6.74,247,16.8,297.4,317.4,298.6
825.1,1724,8.4,5.2,80,6.73,247,16.8,297.4,317.4,298.6
824.6,1729,8.3,5.2,80,6.72,247,16.8,297.4,317.4,298.6
824.1,1734,8.3,5.1,81,6.72,247,16.8,297.4,317.3,298.6
823.7,1739,8.2,5.1,81,6.71,247,16.8,297.4,317.3,298.6
823.2,1743,8.2,5.1,81,6.70,247,16.8,297.4,317.3,298.6
822.8,1747,8.2,5.0,81,6.67,247,16.8,297.4,317.2,298.6
822.4,1751,8.2,4.9,80,6.63,247,16.8,297.5,317.1,298.7
822.0,1756,8.1,4.8,80,6.59,247,16.8,297.5,317.1,298.7
821.6,1760,8.1,4.8,79,6.58,247,16.8,297.5,317.0,298.7
821.2,1764,8.1,4.8,80,6.58,247,16.9,297.5,317.0,298.7
820.7,1768,8.1,4.8,80,6.59,247,16.9,297.5,317.1,298.7
820.3,1773,8.0,4.8,80,6.60,247,16.9,297.5,317.1,298.7
819.8,1777,8.0,4.8,81,6.61,247,16.9,297.5,317.1,298.7
819.4,1782,7.9,4.8,81,6.62,247,16.9,297.5,317.2,298.7
818.9,1786,7.9,4.8,81,6.60,247,17.0,297.5,317.1,298.7
818.4,1791,7.8,4.8,81,6.59,247,17.0,297.5,317.1,298.7
817.9,1796,7.8,4.7,81,6.58,247,17.0,297.5,317.1,298.7
817.4,1801,7.8,4.7,81,6.57,247,17.0,297.6,317.0,298.7
816.9,1806,7.7,4.7,81,6.56,247,17.0,297.6,317.0,298.7
816.4,1812,7.7,4.6,81,6.55,246,17.1,297.6,317.0,298.8
815.9,1817,7.6,4.5,81,6.51,246,17.1,297.6,316.9,298.7
815.4,1822,7.6,4.3,80,6.41,246,17.1,297.6,316.6,298.8
814.9,1827,7.6,4.0,78,6.29,246,17.1,297.7,316.4,298.8
814.3,1833,7.7,3.8,76,6.18,246,17.1,297.8,316.2,298.9
813.8,1838,7.7,3.6,75,6.11,246,17.1,297.9,316.1,299.0
813.2,1844,7.7,3.6,75,6.10,245,17.1,297.9,316.1,299.0
812.7,1850,7.7,3.7,76,6.14,245,17.1,298.0,316.2,299.1
812.1,1855,7.6,3.8,77,6.20,245,17.1,298.0,316.4,299.1
811.6,1861,7.6,3.9,78,6.25,245,17.1,298.0,316.6,299.1
811.0,1866,7.5,3.9,78,6.26,245,17.1,298.0,316.7,299.1
810.5,1872,7.5,3.8,78,6.23,245,17.1,298.0,316.6,299.1
