PRES,HGHT,TEMP,DWPT,RELH,MIXR,DRCT,SPED,THTA,THTE,THTV
1012.5,31,22.4,20.1,87,14.83,33,10.2,294.5,337.1,297.1
1012.2,33,22.5,20.2,87,14.91,27,6.5,294.6,337.4,297.2
1011.9,36,22.5,20.1,87,14.83,26,6.2,294.6,337.2,297.2
1011.6,38,22.5,20.1,87,14.83,25,6.4,294.7,337.3,297.3
1010.7,46,22.5,20.1,86,14.84,25,6.9,294.8,337.4,297.4
1009.7,55,22.5,20.0,86,14.74,25,7.4,294.8,337.2,297.4
1009.1,60,22.4,19.9,86,14.62,25,8.0,294.8,336.8,297.4
1008.5,65,22.4,19.9,86,14.62,25,8.4,294.8,336.8,297.4
1007.8,71,22.3,19.8,86,14.62,25,8.8,294.8,336.9,297.4
1007.2,76,22.3,19.8,86,14.56,25,9.2,294.9,336.7,297.4
1006.6,82,22.2,19.6,85,14.39,25,9.6,294.8,336.2,297.3
1006.0,87,22.1,19.4,85,14.25,25,10.0,294.8,335.7,297.3
1005.4,92,22.1,19.4,85,14.22,26,10.3,294.7,335.6,297.3
1004.8,97,22.0,19.4,85,14.23,26,10.6,294.7,335.6,297.3
1004.2,103,22.0,19.3,85,14.21,26,10.9,294.7,335.6,297.3
1003.6,108,21.9,19.3,85,14.22,26,11.2,294.7,335.6,297.2
1003.0,113,21.8,19.3,86,14.22,26,11.4,294.7,335.6,297.2
1002.4,118,21.8,19.3,86,14.19,26,11.6,294.7,335.5,297.2
1001.8,123,21.7,19.3,86,14.19,27,11.8,294.7,335.5,297.2
1001.3,128,21.7,19.3,86,14.19,27,12.0,294.7,335.5,297.2
1000.7,132,21.6,19.2,86,14.16,27,12.1,294.7,335.4,297.2
1000.2,137,21.6,19.3,87,14.19,28,12.3,294.7,335.5,297.2
1000.0,139,21.6,19.3,87,14.21,28,12.4,294.7,335.5,297.2
999.7,142,21.5,19.3,87,14.24,28,12.4,294.7,335.6,297.2
999.1,146,21.5,19.3,88,14.27,28,12.5,294.7,335.7,297.2
998.6,151,21.4,19.4,88,14.30,29,12.5,294.7,335.8,297.2
998.1,156,21.4,19.4,89,14.36,29,12.6,294.7,335.9,297.2
997.6,160,21.3,19.5,89,14.43,29,12.6,294.6,336.1,297.2
997.1,164,21.2,19.5,90,14.45,30,12.7,294.6,336.1,297.2
996.5,169,21.2,19.5,90,14.47,30,12.7,294.6,336.2,297.2
996.0,173,21.2,19.5,90,14.47,31,12.7,294.7,336.2,297.2
995.5,178,21.1,19.5,90,14.45,31,12.7,294.6,336.1,297.2
995.0,182,21.1,19.4,90,14.42,31,12.7,294.6,336.0,297.2
994.5,186,21.0,19.4,91,14.42,32,12.7,294.6,336.0,297.2
994.1,191,21.0,19.4,91,14.41,32,12.7,294.6,336.0,297.2
993.6,195,20.9,19.4,91,14.43,32,12.7,294.6,336.1,297.2
993.1,199,20.9,19.4,91,14.44,33,12.7,294.6,336.1,297.2
992.6,203,20.9,19.4,91,14.43,33,12.7,294.6,336.1,297.2
992.2,207,20.8,19.4,91,14.40,33,12.7,294.6,336.0,297.2
991.7,211,20.8,19.3,92,14.39,33,12.7,294.6,336.0,297.2
991.2,216,20.7,19.3,92,14.38,34,12.7,294.6,335.9,297.1
990.7,220,20.7,19.3,92,14.40,34,12.7,294.6,335.9,297.1
990.2,224,20.6,19.3,92,14.41,34,12.7,294.6,336.0,297.1
989.7,229,20.6,19.3,92,14.42,34,12.6,294.6,336.1,297.2
989.2,233,20.6,19.4,93,14.46,34,12.6,294.7,336.2,297.2
988.7,237,20.6,19.4,93,14.50,34,12.6,294.7,336.3,297.2
988.2,242,20.5,19.4,93,14.49,34,12.6,294.6,336.3,297.2
987.7,246,20.5,19.3,93,14.41,34,12.6,294.6,336.0,297.2
987.2,250,20.4,19.2,93,14.36,34,12.6,294.7,335.9,297.2
986.8,255,20.4,19.2,93,14.35,34,12.6,294.7,335.9,297.2
986.3,259,20.4,19.2,93,14.37,34,12.5,294.7,336.0,297.2
985.8,263,20.3,19.3,94,14.45,34,12.5,294.7,336.2,297.2
985.4,267,20.3,19.4,95,14.55,34,12.5,294.7,336.5,297.3
984.9,271,20.3,19.4,95,14.56,34,12.6,294.7,336.5,297.3
984.4,275,20.2,19.3,95,14.50,34,12.6,294.7,336.4,297.3
984.0,279,20.2,19.3,94,14.44,34,12.6,294.7,336.2,297.3
983.5,284,20.2,19.3,95,14.47,34,12.6,294.7,336.3,297.3
983.0,288,20.1,19.4,95,14.55,34,12.7,294.7,336.5,297.3
982.4,293,20.1,19.4,96,14.59,34,12.7,294.7,336.6,297.3
981.9,297,20.0,19.4,96,14.57,34,12.8,294.7,336.5,297.3
981.4,302,20.0,19.3,96,14.54,34,12.9,294.7,336.5,297.3
980.9,306,19.9,19.3,96,14.56,34,12.9,294.7,336.5,297.3
980.4,311,19.9,19.4,97,14.57,35,13.0,294.7,336.6,297.3
979.9,315,19.8,19.3,97,14.54,35,13.1,294.7,336.5,297.3
979.4,319,19.8,19.2,96,14.45,35,13.2,294.7,336.2,297.2
978.9,323,19.7,19.1,96,14.35,35,13.3,294.7,335.9,297.2
978.5,327,19.7,19.0,96,14.28,35,13.4,294.7,335.7,297.2
978.1,331,19.7,19.0,95,14.24,35,13.5,294.7,335.6,297.2
977.7,334,19.7,18.9,95,14.24,35,13.6,294.8,335.7,297.3
977.3,338,19.7,19.0,96,14.29,36,13.7,294.8,335.8,297.3
976.9,341,19.6,19.0,96,14.32,36,13.8,294.8,335.9,297.3
976.5,345,19.6,19.0,96,14.30,36,13.9,294.8,335.9,297.3
976.1,349,19.6,19.0,96,14.31,36,14.0,294.8,335.9,297.3
975.6,353,19.6,19.0,97,14.33,36,14.0,294.8,336.0,297.3
975.1,357,19.6,19.0,96,14.30,36,14.1,294.8,335.9,297.3
974.6,362,19.5,18.8,96,14.19,37,14.1,294.8,335.6,297.3
974.1,366,19.5,18.7,95,14.11,37,14.2,294.8,335.4,297.3
973.6,371,19.5,18.7,95,14.09,37,14.2,294.8,335.4,297.3
973.0,376,19.4,18.7,96,14.10,37,14.2,294.9,335.4,297.3
972.5,381,19.4,18.7,96,14.07,37,14.2,294.9,335.3,297.3
971.9,385,19.3,18.6,96,14.02,37,14.2,294.9,335.2,297.4
971.4,390,19.3,18.5,95,13.97,38,14.2,294.9,335.1,297.4
970.9,395,19.3,18.5,96,13.96,38,14.1,294.9,335.0,297.3
970.3,400,19.2,18.6,96,14.00,38,14.0,294.9,335.2,297.4
969.7,405,19.1,18.6,97,14.07,38,14.0,294.9,335.3,297.3
969.2,410,19.1,18.7,97,14.11,38,13.9,294.9,335.4,297.3
968.6,415,19.1,18.7,98,14.12,38,13.8,294.9,335.5,297.4
968.0,420,19.0,18.6,98,14.08,38,13.6,294.9,335.4,297.4
967.5,425,19.0,18.6,97,14.03,38,13.5,294.9,335.2,297.4
966.9,430,18.9,18.5,97,14.02,38,13.4,294.9,335.2,297.4
966.4,435,18.9,18.5,97,14.00,38,13.2,294.9,335.2,297.4
965.8,440,18.9,18.5,97,13.98,38,13.1,294.9,335.2,297.4
965.3,445,18.9,18.4,97,13.96,38,12.9,295.0,335.1,297.4
964.8,449,18.8,18.4,98,13.98,38,12.8,295.0,335.2,297.4
964.2,455,18.8,18.4,98,13.99,38,12.6,295.0,335.2,297.4
963.6,460,18.7,18.4,98,13.99,38,12.5,295.0,335.2,297.5
963.0,465,18.7,18.4,98,13.99,38,12.3,295.0,335.3,297.5
962.4,471,18.6,18.4,98,13.97,37,12.2,295.0,335.2,297.5
961.7,477,18.6,18.3,98,13.93,37,12.0,295.0,335.1,297.5
961.1,482,18.6,18.3,98,13.87,37,11.9,295.1,335.0,297.5
960.4,488,18.6,18.2,98,13.84,37,11.8,295.1,334.9,297.5
959.8,494,18.5,18.2,98,13.85,37,11.7,295.1,335.0,297.6
959.2,499,18.5,18.2,98,13.87,36,11.5,295.1,335.1,297.6
958.6,505,18.4,18.3,99,13.90,36,11.4,295.1,335.1,297.6
958.0,510,18.4,18.3,99,13.91,36,11.4,295.1,335.2,297.6
957.4,515,18.4,18.2,99,13.89,36,11.3,295.2,335.2,297.6
956.8,521,18.4,18.1,98,13.83,36,11.2,295.2,335.1,297.7
956.2,526,18.4,18.0,98,13.72,36,11.2,295.3,334.8,297.7
955.6,531,18.4,18.0,98,13.71,35,11.1,295.3,334.9,297.8
955.0,537,18.4,18.1,98,13.82,35,11.1,295.4,335.2,297.8
954.4,543,18.3,18.2,99,13.91,35,11.1,295.4,335.5,297.8
953.7,548,18.3,18.2,99,13.94,35,11.0,295.4,335.6,297.9
953.1,554,18.3,18.2,99,13.95,35,11.0,295.5,335.7,297.9
952.5,560,18.3,18.2,99,13.93,35,11.0,295.5,335.7,298.0
951.8,566,18.3,18.1,99,13.87,36,11.0,295.5,335.5,298.0
951.2,571,18.2,18.0,99,13.78,36,11.1,295.6,335.3,298.0
950.6,577,18.2,17.8,98,13.65,36,11.1,295.5,334.9,298.0
950.0,582,18.1,17.8,98,13.61,36,11.1,295.5,334.8,297.9
949.4,588,18.0,17.7,98,13.57,36,11.2,295.5,334.7,297.9
948.7,594,18.0,17.7,98,13.52,37,11.2,295.5,334.5,297.9
948.0,600,17.9,17.6,98,13.51,37,11.3,295.5,334.5,297.9
947.3,606,17.9,17.7,98,13.54,37,11.3,295.6,334.7,298.0
946.6,613,17.9,17.6,99,13.54,38,11.4,295.6,334.7,298.0
945.9,620,17.8,17.6,99,13.52,38,11.4,295.6,334.6,298.0
945.1,627,17.8,17.6,99,13.48,38,11.5,295.6,334.6,298.0
944.3,633,17.7,17.5,99,13.46,39,11.5,295.7,334.5,298.0
943.6,640,17.7,17.5,99,13.45,39,11.6,295.7,334.5,298.1
942.8,647,17.7,17.5,99,13.46,39,11.6,295.7,334.6,298.1
942.1,654,17.7,17.5,99,13.50,40,11.7,295.8,334.8,298.2
941.4,660,17.6,17.5,99,13.49,40,11.7,295.9,334.8,298.2
940.7,667,17.6,17.5,99,13.47,41,11.7,295.9,334.8,298.3
939.9,674,17.6,17.4,99,13.44,41,11.7,295.9,334.8,298.3
939.2,680,17.6,17.4,99,13.42,41,11.7,296.0,334.7,298.3
938.5,686,17.5,17.4,99,13.42,42,11.7,296.0,334.8,298.4
937.9,693,17.5,17.3,99,13.40,42,11.7,296.0,334.8,298.4
937.2,699,17.5,17.3,99,13.40,43,11.6,296.0,334.8,298.4
936.6,704,17.5,17.4,100,13.46,43,11.6,296.1,335.0,298.5
936.0,710,17.4,17.4,99,13.45,43,11.5,296.1,335.0,298.5
935.4,715,17.4,17.3,99,13.39,44,11.4,296.2,334.9,298.5
934.8,720,17.4,17.2,99,13.34,44,11.3,296.2,334.8,298.5
934.3,725,17.4,17.2,99,13.34,45,11.2,296.2,334.8,298.6
933.7,730,17.3,17.2,99,13.36,46,11.1,296.2,334.9,298.6
933.2,735,17.4,17.3,100,13.42,46,10.9,296.3,335.1,298.7
932.6,741,17.3,17.3,100,13.43,47,10.8,296.3,335.2,298.7
932.1,746,17.3,17.2,100,13.39,48,10.6,296.3,335.1,298.7
931.5,751,17.3,17.2,99,13.36,48,10.5,296.4,335.0,298.7
930.9,756,17.3,17.2,99,13.34,49,10.3,296.4,335.1,298.8
930.4,761,17.3,17.2,99,13.35,50,10.2,296.5,335.2,298.9
929.8,766,17.3,17.1,99,13.31,50,10.0,296.5,335.1,298.9
929.2,772,17.2,16.9,98,13.17,51,9.8,296.5,334.6,298.8
928.7,777,17.1,16.8,98,13.07,52,9.7,296.4,334.3,298.8
928.1,782,17.0,16.7,98,13.03,53,9.5,296.4,334.2,298.7
927.6,787,17.0,16.8,99,13.05,53,9.4,296.4,334.2,298.7
927.0,792,17.0,16.9,99,13.15,54,9.2,296.5,334.7,298.9
926.5,797,17.1,16.9,99,13.16,54,9.1,296.6,334.8,299.0
925.9,802,17.0,16.8,99,13.12,55,8.9,296.6,334.7,299.0
925.4,807,17.0,16.8,99,13.09,55,8.8,296.6,334.6,299.0
925.0,811,17.0,16.8,99,13.09,55,8.8,296.7,334.6,299.0
924.8,812,17.0,16.8,99,13.10,56,8.7,296.7,334.7,299.0
924.3,817,16.9,16.7,99,13.06,56,8.6,296.7,334.6,299.0
923.7,823,16.8,16.6,98,12.93,56,8.5,296.6,334.1,298.9
923.2,828,16.7,16.4,98,12.82,57,8.4,296.5,333.7,298.8
922.6,833,16.6,16.3,98,12.77,57,8.3,296.5,333.5,298.8
922.0,839,16.6,16.4,99,12.80,57,8.2,296.5,333.6,298.8
921.4,844,16.5,16.4,99,12.86,57,8.2,296.5,333.8,298.8
920.8,850,16.5,16.5,100,12.91,56,8.1,296.6,334.0,298.9
920.2,856,16.5,16.5,100,12.93,56,8.0,296.6,334.1,298.9
919.5,861,16.5,16.5,100,12.91,56,8.0,296.7,334.1,299.0
918.9,867,16.5,16.4,99,12.87,56,7.9,296.7,334.0,299.0
918.3,873,16.4,16.3,99,12.84,56,7.9,296.7,334.0,299.0
917.6,879,16.4,16.3,99,12.84,56,7.8,296.8,334.0,299.0
917.0,885,16.4,16.3,100,12.83,55,7.8,296.8,334.0,299.1
916.3,891,16.3,16.3,100,12.81,55,7.7,296.8,334.0,299.1
915.7,898,16.3,16.2,99,12.76,55,7.7,296.8,333.9,299.1
915.0,904,16.3,16.1,99,12.72,55,7.6,296.9,333.8,299.1
914.4,909,16.2,16.1,99,12.69,55,7.6,296.9,333.7,299.1
913.8,915,16.2,16.1,99,12.67,56,7.5,296.9,333.7,299.2
913.2,921,16.2,16.0,99,12.63,56,7.5,296.9,333.6,299.2
912.6,926,16.2,16.0,99,12.60,56,7.4,297.0,333.6,299.2
912.1,931,16.1,15.9,99,12.58,56,7.4,297.0,333.5,299.2
911.5,936,16.1,15.9,99,12.58,57,7.3,297.0,333.6,299.3
911.0,941,16.1,15.9,99,12.57,58,7.2,297.0,333.6,299.3
910.4,947,16.1,15.9,99,12.56,58,7.2,297.1,333.6,299.3
909.8,952,16.0,15.9,99,12.55,59,7.1,297.1,333.6,299.3
909.2,958,16.0,15.8,99,12.51,60,7.1,297.1,333.5,299.3
908.6,964,16.0,15.8,99,12.50,61,7.0,297.1,333.5,299.4
907.9,970,16.0,15.8,99,12.54,62,6.9,297.2,333.7,299.4
907.3,976,16.0,15.8,99,12.56,63,6.9,297.3,333.8,299.5
906.7,982,15.9,15.8,99,12.55,64,6.8,297.3,333.8,299.5
906.0,988,15.9,15.7,99,12.51,65,6.8,297.3,333.7,299.5
905.4,994,15.9,15.7,99,12.47,66,6.7,297.3,333.6,299.6
904.8,999,15.8,15.6,99,12.45,67,6.7,297.4,333.6,299.6
904.2,1005,15.8,15.6,99,12.43,68,6.6,297.4,333.6,299.6
903.6,1011,15.8,15.6,99,12.41,69,6.5,297.4,333.5,299.6
903.0,1016,15.7,15.6,99,12.40,70,6.5,297.4,333.6,299.7
902.4,1022,15.7,15.5,99,12.38,72,6.4,297.5,333.5,299.7
901.8,1027,15.7,15.5,99,12.38,73,6.4,297.5,333.6,299.7
901.2,1033,15.7,15.6,99,12.43,74,6.3,297.5,333.8,299.8
900.6,1039,15.6,15.6,100,12.45,75,6.3,297.6,333.8,299.8
899.9,1045,15.6,15.5,99,12.41,76,6.2,297.6,333.7,299.8
899.3,1051,15.6,15.4,99,12.35,77,6.2,297.6,333.6,299.8
898.6,1058,15.5,15.4,99,12.30,79,6.1,297.6,333.5,299.8
897.9,1064,15.5,15.3,99,12.30,80,6.0,297.7,333.6,299.9
897.2,1071,15.5,15.4,99,12.33,81,6.0,297.7,333.7,299.9
896.6,1077,15.5,15.4,99,12.34,82,5.9,297.7,333.7,299.9
895.9,1084,15.4,15.3,99,12.29,83,5.9,297.8,333.6,300.0
895.2,1090,15.3,15.2,99,12.20,85,5.8,297.8,333.3,299.9
894.6,1096,15.3,15.1,99,12.17,86,5.8,297.8,333.3,300.0
893.9,1102,15.3,15.1,99,12.17,87,5.7,297.8,333.3,300.0
893.4,1107,15.3,15.1,99,12.19,88,5.7,297.9,333.4,300.0
892.8,1113,15.2,15.1,99,12.21,89,5.6,297.9,333.5,300.1
892.3,1118,15.2,15.2,100,12.23,90,5.6,297.9,333.6,300.1
891.8,1122,15.2,15.1,100,12.23,90,5.5,297.9,333.6,300.1
891.3,1127,15.1,15.1,99,12.16,91,5.5,297.9,333.4,300.1
890.9,1131,15.1,15.0,99,12.13,92,5.4,297.9,333.3,300.1
890.4,1136,15.1,15.0,99,12.10,92,5.4,297.9,333.3,300.1
889.9,1140,15.1,14.9,99,12.09,93,5.4,298.0,333.3,300.1
889.5,1145,15.1,14.9,99,12.07,93,5.3,298.0,333.3,300.2
889.0,1149,15.1,14.9,99,12.08,93,5.3,298.1,333.3,300.2
888.5,1154,15.0,14.8,99,12.03,93,5.3,298.1,333.2,300.2
888.0,1158,14.9,14.8,99,11.99,93,5.3,298.0,333.0,300.2
887.5,1164,14.9,14.8,99,12.01,93,5.3,298.1,333.2,300.2
886.9,1169,15.0,14.8,99,12.05,92,5.2,298.2,333.4,300.3
886.3,1175,14.9,14.8,99,12.02,92,5.2,298.2,333.3,300.3
885.7,1181,14.8,14.6,99,11.87,91,5.2,298.1,332.8,300.2
885.1,1187,14.7,14.4,98,11.74,91,5.2,298.0,332.3,300.1
884.4,1193,14.6,14.3,98,11.68,90,5.2,298.0,332.2,300.1
883.7,1200,14.6,14.3,98,11.66,90,5.2,298.1,332.2,300.2
883.1,1206,14.6,14.2,98,11.64,89,5.2,298.1,332.1,300.2
882.4,1213,14.5,14.2,98,11.60,88,5.2,298.1,332.1,300.2
881.7,1219,14.5,14.1,98,11.55,88,5.2,298.2,331.9,300.2
881.1,1225,14.4,14.0,97,11.49,87,5.2,298.2,331.8,300.2
880.5,1231,14.4,13.9,97,11.43,86,5.2,298.2,331.6,300.2
879.9,1237,14.4,13.9,97,11.39,86,5.2,298.2,331.5,300.2
879.3,1243,14.3,13.8,97,11.37,85,5.2,298.2,331.5,300.3
878.7,1248,14.3,13.8,97,11.37,85,5.2,298.2,331.5,300.3
878.1,1254,14.2,13.8,97,11.36,84,5.2,298.3,331.5,300.3
877.5,1259,14.2,13.8,97,11.35,84,5.2,298.3,331.5,300.3
876.9,1265,14.2,13.8,98,11.36,84,5.2,298.3,331.5,300.3
876.3,1271,14.1,13.8,98,11.37,84,5.3,298.3,331.6,300.3
875.7,1277,14.1,13.8,98,11.39,83,5.3,298.3,331.7,300.4
875.1,1283,14.0,13.8,98,11.40,83,5.3,298.3,331.7,300.4
874.5,1289,14.0,13.7,98,11.36,83,5.3,298.3,331.6,300.4
873.9,1295,13.9,13.6,98,11.30,83,5.3,298.3,331.4,300.4
873.3,1300,13.9,13.6,98,11.26,84,5.3,298.4,331.3,300.4
872.7,1306,13.8,13.6,98,11.26,84,5.3,298.4,331.3,300.4
872.1,1312,13.8,13.6,98,11.26,84,5.4,298.4,331.4,300.4
871.6,1317,13.8,13.6,99,11.28,84,5.4,298.4,331.4,300.4
871.1,1322,13.7,13.5,99,11.26,85,5.4,298.4,331.4,300.4
870.5,1327,13.7,13.5,99,11.24,85,5.4,298.4,331.4,300.4
870.0,1332,13.7,13.4,99,11.21,85,5.4,298.5,331.3,300.5
869.5,1337,13.6,13.4,99,11.19,86,5.5,298.5,331.3,300.5
869.0,1342,13.6,13.4,99,11.19,86,5.5,298.5,331.3,300.5
868.4,1348,13.6,13.4,99,11.20,87,5.5,298.5,331.4,300.5
867.8,1353,13.5,13.4,99,11.20,87,5.5,298.5,331.4,300.5
867.3,1359,13.5,13.4,99,11.18,88,5.6,298.5,331.3,300.5
866.7,1364,13.4,13.3,99,11.16,89,5.6,298.5,331.3,300.6
866.1,1370,13.4,13.3,99,11.13,89,5.7,298.6,331.2,300.6
865.6,1376,13.4,13.2,99,11.09,90,5.7,298.6,331.1,300.6
865.0,1381,13.3,13.1,99,11.04,90,5.8,298.6,331.0,300.6
864.4,1387,13.3,13.1,98,11.00,91,5.8,298.6,330.9,300.6
863.8,1393,13.3,13.0,98,10.99,91,5.9,298.7,330.9,300.7
863.2,1399,13.3,13.0,98,10.95,92,5.9,298.7,330.9,300.7
862.6,1404,13.2,12.9,98,10.89,92,6.0,298.7,330.7,300.7
862.0,1410,13.2,12.8,98,10.87,93,6.1,298.8,330.7,300.7
861.5,1416,13.2,12.8,98,10.86,93,6.1,298.8,330.7,300.7
860.9,1421,13.1,12.9,98,10.89,94,6.2,298.8,330.8,300.7
860.4,1426,13.1,12.8,98,10.89,94,6.3,298.8,330.8,300.8
859.8,1432,13.0,12.7,98,10.83,95,6.3,298.8,330.6,300.8
859.3,1437,13.0,12.6,97,10.75,95,6.4,298.8,330.4,300.8
858.8,1442,13.0,12.5,97,10.69,95,6.4,298.9,330.3,300.8
858.2,1447,13.0,12.5,97,10.67,96,6.5,298.9,330.3,300.8
857.7,1453,12.9,12.5,97,10.67,96,6.6,298.9,330.3,300.8
857.1,1458,12.9,12.5,97,10.66,97,6.6,298.9,330.2,300.8
856.6,1464,12.9,12.4,97,10.61,97,6.6,298.9,330.1,300.8
856.0,1469,12.8,12.3,97,10.58,97,6.7,299.0,330.1,300.9
855.5,1474,12.8,12.3,97,10.56,98,6.7,299.0,330.0,300.9
855.0,1479,12.7,12.2,97,10.52,98,6.7,299.0,329.9,300.9
854.5,1484,12.7,12.1,96,10.46,98,6.7,299.0,329.8,300.9
854.0,1488,12.7,12.0,96,10.41,99,6.8,299.0,329.7,300.9
853.6,1493,12.7,12.0,95,10.35,99,6.8,299.1,329.5,300.9
853.1,1498,12.7,11.9,95,10.34,99,6.7,299.1,329.5,301.0
852.6,1503,12.7,11.9,95,10.35,100,6.7,299.1,329.6,301.0
852.1,1507,12.6,11.9,96,10.35,100,6.7,299.1,329.6,301.0
851.6,1512,12.6,11.9,95,10.32,100,6.7,299.1,329.6,301.0
851.1,1517,12.6,11.8,95,10.30,101,6.6,299.2,329.5,301.0
850.6,1522,12.5,11.8,95,10.25,101,6.6,299.2,329.4,301.0
850.2,1527,12.5,11.7,95,10.20,101,6.6,299.2,329.2,301.0
850.0,1528,12.5,11.7,95,10.19,102,6.5,299.2,329.2,301.0
849.7,1531,12.5,11.6,94,10.17,102,6.5,299.2,329.2,301.1
849.2,1536,12.5,11.6,95,10.17,102,6.5,299.3,329.3,301.1
848.8,1540,12.4,11.6,95,10.17,102,6.4,299.3,329.3,301.1
848.4,1544,12.4,11.6,95,10.16,102,6.4,299.3,329.3,301.1
848.0,1549,12.4,11.6,95,10.15,102,6.3,299.3,329.2,301.1
847.6,1553,12.4,11.5,95,10.14,102,6.2,299.3,329.2,301.1
847.2,1557,12.3,11.5,95,10.13,102,6.2,299.3,329.2,301.1
846.7,1561,12.3,11.5,95,10.14,102,6.1,299.3,329.3,301.2
846.3,1565,12.3,11.6,95,10.17,102,6.1,299.4,329.4,301.2
845.9,1569,12.3,11.6,96,10.19,102,6.0,299.4,329.4,301.2
845.5,1573,12.2,11.6,96,10.17,101,6.0,299.4,329.4,301.2
845.0,1578,12.2,11.5,95,10.14,101,5.9,299.4,329.3,301.3
844.6,1582,12.2,11.4,95,10.09,101,5.9,299.4,329.2,301.3
844.2,1586,12.2,11.4,95,10.08,100,5.8,299.5,329.2,301.3
843.8,1590,12.2,11.3,95,10.05,100,5.8,299.5,329.2,301.3
843.3,1594,12.1,11.3,94,9.99,99,5.7,299.5,329.0,301.3
842.9,1599,12.1,11.1,93,9.90,99,5.7,299.6,328.8,301.4
842.5,1603,12.2,10.9,92,9.75,98,5.7,299.6,328.4,301.4
842.0,1608,12.2,10.6,90,9.60,98,5.7,299.7,328.1,301.4
841.5,1613,12.2,10.5,90,9.52,97,5.7,299.7,327.9,301.5
841.1,1617,12.2,10.5,89,9.49,97,5.6,299.8,327.9,301.5
840.6,1622,12.1,10.4,89,9.45,96,5.6,299.8,327.8,301.5
840.1,1626,12.1,10.2,88,9.36,96,5.6,299.8,327.5,301.5
839.7,1631,12.1,10.0,87,9.22,96,5.7,299.9,327.2,301.5
839.3,1635,12.1,9.7,85,9.06,95,5.7,299.9,326.8,301.5
838.8,1640,12.2,9.5,84,8.93,95,5.7,300.0,326.5,301.6
838.4,1644,12.2,9.1,82,8.71,95,5.7,300.1,325.9,301.7
837.9,1649,12.2,8.7,79,8.48,95,5.8,300.1,325.4,301.7
837.4,1654,12.2,8.5,78,8.35,94,5.8,300.2,325.1,301.7
836.8,1659,12.2,8.4,78,8.31,94,5.9,300.3,325.0,301.8
836.3,1665,12.2,8.4,77,8.28,94,5.9,300.3,325.0,301.8
835.8,1670,12.2,8.2,77,8.20,94,6.0,300.3,324.8,301.8
835.2,1676,12.1,8.1,76,8.14,94,6.0,300.4,324.6,301.8
834.7,1681,12.1,8.1,76,8.13,94,6.1,300.4,324.6,301.8
834.2,1686,12.1,8.0,76,8.11,94,6.2,300.4,324.5,301.8
833.7,1691,12.0,7.9,76,8.04,95,6.2,300.4,324.4,301.8
833.2,1696,12.0,7.9,76,8.02,95,6.3,300.4,324.3,301.9
832.7,1701,12.0,8.0,77,8.13,95,6.4,300.4,324.7,301.9
832.2,1706,12.0,8.0,76,8.09,95,6.4,300.5,324.6,301.9
831.7,1711,12.0,7.5,74,7.83,96,6.5,300.6,324.0,302.0
831.2,1716,12.0,7.1,72,7.64,96,6.6,300.6,323.5,302.0
830.7,1721,12.0,7.1,72,7.64,96,6.6,300.7,323.5,302.1
830.2,1726,12.0,7.3,73,7.74,96,6.7,300.7,323.9,302.1
829.7,1732,12.0,7.4,74,7.83,97,6.7,300.7,324.2,302.2
829.1,1737,11.9,7.5,74,7.85,97,6.8,300.7,324.2,302.2
828.6,1743,11.9,7.4,74,7.83,98,6.8,300.8,324.2,302.2
828.0,1748,11.9,7.3,73,7.76,98,6.9,300.9,324.1,302.3
827.5,1754,11.9,7.1,72,7.67,98,6.9,300.9,323.9,302.3
827.0,1759,11.9,7.1,73,7.68,99,6.9,300.9,323.9,302.3
826.4,1765,11.9,7.2,73,7.76,99,6.9,301.0,324.2,302.4
825.9,1770,11.9,7.3,74,7.79,99,6.9,301.0,324.3,302.4
825.4,1775,11.8,7.3,74,7.78,100,6.9,301.0,324.3,302.4
824.9,1780,11.8,7.2,73,7.74,100,6.9,301.0,324.2,302.4
824.5,1784,11.7,7.1,73,7.67,100,6.9,301.0,324.0,302.4
824.0,1789,11.7,7.0,73,7.63,100,6.9,301.0,323.9,302.4
823.6,1794,11.7,6.8,72,7.57,101,6.9,301.1,323.8,302.4
823.1,1798,11.6,6.8,72,7.55,101,6.8,301.1,323.7,302.4
822.7,1803,11.6,6.9,73,7.60,101,6.8,301.1,323.8,302.4
822.2,1807,11.6,7.0,73,7.66,101,6.8,301.1,324.1,302.5
821.8,1812,11.6,7.0,74,7.69,101,6.7,301.1,324.2,302.5
821.3,1816,11.5,7.0,73,7.65,101,6.7,301.2,324.1,302.5
820.9,1821,11.5,6.7,72,7.52,101,6.6,301.2,323.7,302.5
820.4,1825,11.4,6.5,71,7.40,101,6.6,301.2,323.3,302.5
820.0,1830,11.4,6.4,71,7.38,100,6.6,301.2,323.3,302.5
819.5,1835,11.4,6.6,73,7.49,100,6.5,301.2,323.7,302.5
819.1,1839,11.4,6.8,73,7.57,100,6.5,301.2,323.9,302.6
818.6,1844,11.3,6.6,73,7.48,99,6.4,301.2,323.7,302.6
818.2,1848,11.3,6.3,71,7.34,99,6.4,301.2,323.3,302.6
817.7,1853,11.3,6.1,70,7.23,98,6.4,301.3,323.0,302.6
817.3,1858,11.3,6.1,71,7.24,98,6.3,301.3,323.0,302.6
816.8,1863,11.2,6.2,71,7.28,97,6.3,301.3,323.2,302.6
816.3,1867,11.2,6.2,71,7.28,96,6.3,301.3,323.2,302.7
815.8,1872,11.2,6.2,72,7.33,95,6.2,301.3,323.4,302.7
815.4,1877,11.1,6.4,72,7.40,95,6.2,301.3,323.6,302.7
814.9,1882,11.1,6.4,73,7.42,94,6.2,301.3,323.6,302.7
