PRES,HGHT,TEMP,DWPT,RELH,MIXR,DRCT,SPED,THTA,THTE,THTV
1013.5,31,26.8,20.2,67,14.86,59,3.4,298.8,342.3,301.5
1013.1,34,26.7,20.4,68,15.02,44,3.2,298.8,342.7,301.4
1012.5,39,26.6,20.4,69,15.03,41,3.4,298.7,342.7,301.4
1011.7,46,26.5,20.3,69,15.03,40,3.7,298.6,342.6,301.3
1011.1,51,26.4,20.2,69,14.94,40,4.0,298.6,342.2,301.2
1010.4,57,26.2,20.0,69,14.76,41,4.2,298.5,341.6,301.1
1009.8,63,26.1,19.8,69,14.59,41,4.5,298.4,341.0,301.0
1009.2,68,26.0,19.7,68,14.49,41,4.7,298.3,340.7,300.9
1008.6,74,25.9,19.7,69,14.47,41,5.0,298.3,340.6,300.9
1007.9,79,25.8,19.7,69,14.48,41,5.2,298.3,340.6,300.9
1007.3,85,25.7,19.7,69,14.48,41,5.4,298.2,340.5,300.8
1006.6,90,25.5,19.7,70,14.49,41,5.7,298.1,340.4,300.7
1006.0,96,25.4,19.7,71,14.48,41,5.8,298.0,340.2,300.6
1005.3,102,25.2,19.5,71,14.38,42,6.0,297.9,339.8,300.4
1004.7,108,25.0,19.4,71,14.27,42,6.2,297.8,339.4,300.3
1004.0,114,25.0,19.2,71,14.11,42,6.3,297.8,338.9,300.3
1003.4,119,24.9,19.0,70,13.87,42,6.5,297.7,338.2,300.2
1002.7,125,24.8,18.7,69,13.69,43,6.6,297.7,337.6,300.1
1002.1,130,24.7,18.6,69,13.57,43,6.7,297.7,337.2,300.1
1001.5,135,24.7,18.5,69,13.52,43,6.8,297.7,337.1,300.1
1001.0,140,24.6,18.5,69,13.53,44,6.9,297.7,337.1,300.1
1000.4,145,24.6,18.5,69,13.53,44,6.9,297.7,337.1,300.1
1000.0,149,24.6,18.5,69,13.52,44,6.9,297.7,337.1,300.1
999.9,150,24.5,18.5,69,13.52,44,7.0,297.7,337.1,300.1
999.4,154,24.5,18.5,69,13.53,45,7.0,297.7,337.1,300.1
998.8,159,24.5,18.5,69,13.53,45,7.1,297.7,337.1,300.1
998.3,164,24.4,18.5,70,13.53,45,7.1,297.7,337.1,300.1
997.7,169,24.4,18.5,70,13.54,46,7.1,297.7,337.2,300.1
997.2,174,24.3,18.5,70,13.57,46,7.1,297.7,337.3,300.1
996.6,179,24.3,18.6,70,13.62,46,7.1,297.7,337.4,300.1
996.0,184,24.2,18.6,71,13.67,47,7.1,297.7,337.5,300.2
995.4,189,24.2,18.6,71,13.69,47,7.1,297.7,337.6,300.2
994.8,195,24.1,18.6,71,13.68,47,7.1,297.7,337.6,300.1
994.2,200,24.1,18.6,71,13.67,48,7.1,297.7,337.5,300.1
993.6,205,24.0,18.6,72,13.67,48,7.1,297.7,337.5,300.1
993.1,210,23.9,18.6,72,13.67,48,7.1,297.7,337.5,300.1
992.5,215,23.9,18.6,72,13.68,48,7.1,297.7,337.5,300.1
992.0,219,23.9,18.6,72,13.69,48,7.1,297.7,337.6,300.1
991.5,224,23.8,18.5,72,13.68,48,7.1,297.7,337.5,300.1
991.0,228,23.8,18.5,72,13.67,48,7.1,297.7,337.5,300.1
990.5,233,23.7,18.5,73,13.68,48,7.1,297.7,337.5,300.1
989.9,237,23.7,18.5,73,13.68,48,7.1,297.7,337.6,300.1
989.4,242,23.6,18.5,73,13.70,48,7.1,297.7,337.6,300.1
988.9,247,23.6,18.5,73,13.71,48,7.1,297.7,337.6,300.1
988.4,251,23.5,18.5,73,13.71,48,7.1,297.7,337.6,300.1
987.8,256,23.5,18.5,74,13.70,48,7.1,297.7,337.6,300.1
987.3,261,23.4,18.5,74,13.69,48,7.1,297.7,337.6,300.1
986.8,266,23.4,18.5,74,13.68,48,7.1,297.7,337.5,300.1
986.2,270,23.4,18.5,74,13.68,48,7.1,297.7,337.5,300.1
985.7,275,23.3,18.5,74,13.69,48,7.1,297.7,337.6,300.1
985.2,280,23.3,18.5,75,13.72,48,7.1,297.7,337.7,300.1
984.6,285,23.2,18.5,75,13.72,48,7.1,297.7,337.7,300.1
984.1,289,23.2,18.5,75,13.71,48,7.1,297.7,337.6,300.1
983.6,294,23.1,18.4,75,13.70,48,7.1,297.7,337.6,300.1
983.0,299,23.1,18.4,75,13.69,48,7.1,297.7,337.6,300.1
982.5,304,23.0,18.5,75,13.73,48,7.2,297.7,337.7,300.1
982.0,308,23.0,18.5,76,13.77,48,7.2,297.7,337.8,300.1
981.4,313,22.9,18.5,76,13.81,48,7.2,297.7,337.9,300.1
980.9,318,22.9,18.5,76,13.82,48,7.2,297.7,337.9,300.1
980.3,323,22.8,18.6,77,13.86,48,7.2,297.7,338.0,300.1
979.7,328,22.8,18.6,77,13.92,48,7.2,297.7,338.2,300.2
979.1,333,22.7,18.6,78,13.95,48,7.2,297.7,338.3,300.1
978.6,339,22.7,18.6,78,13.93,48,7.3,297.7,338.2,300.1
978.0,344,22.6,18.6,78,13.93,48,7.3,297.6,338.2,300.1
977.4,349,22.6,18.6,78,13.95,48,7.3,297.6,338.3,300.1
976.8,354,22.5,18.7,79,14.01,49,7.3,297.6,338.5,300.2
976.2,359,22.5,18.7,79,14.05,49,7.3,297.7,338.6,300.2
975.7,364,22.4,18.7,80,14.05,49,7.4,297.6,338.6,300.2
975.1,369,22.4,18.7,80,14.05,49,7.4,297.6,338.6,300.2
974.6,374,22.3,18.7,80,14.05,49,7.4,297.6,338.5,300.1
974.0,379,22.3,18.7,80,14.04,49,7.4,297.6,338.5,300.1
973.5,384,22.2,18.6,80,14.01,50,7.4,297.6,338.4,300.1
973.0,389,22.2,18.6,80,13.99,50,7.4,297.6,338.4,300.1
972.4,393,22.1,18.6,80,14.00,50,7.4,297.7,338.4,300.2
971.9,398,22.1,18.6,81,14.01,50,7.5,297.7,338.5,300.2
971.3,403,22.0,18.6,81,14.03,50,7.5,297.7,338.5,300.2
970.8,408,22.0,18.6,81,14.07,50,7.4,297.7,338.6,300.2
970.2,413,22.0,18.7,82,14.10,51,7.4,297.7,338.7,300.2
969.6,419,21.9,18.7,82,14.11,51,7.4,297.7,338.8,300.2
969.0,424,21.9,18.6,82,14.09,51,7.4,297.7,338.7,300.2
968.5,429,21.8,18.6,82,14.09,51,7.4,297.7,338.7,300.2
967.9,434,21.8,18.6,82,14.09,51,7.4,297.7,338.7,300.2
967.3,439,21.7,18.6,83,14.09,51,7.3,297.7,338.7,300.2
966.8,444,21.7,18.6,83,14.08,52,7.3,297.7,338.7,300.2
966.2,449,21.6,18.6,83,14.08,52,7.3,297.7,338.7,300.2
965.7,454,21.6,18.6,83,14.06,52,7.3,297.7,338.6,300.2
965.2,459,21.5,18.6,83,14.07,52,7.2,297.7,338.6,300.2
964.6,464,21.5,18.6,84,14.11,52,7.2,297.7,338.7,300.2
964.1,468,21.4,18.6,84,14.09,53,7.1,297.7,338.7,300.2
963.6,473,21.4,18.5,84,14.07,53,7.1,297.7,338.7,300.2
963.1,478,21.3,18.6,84,14.10,53,7.1,297.7,338.7,300.2
962.6,482,21.3,18.6,84,14.11,53,7.0,297.7,338.7,300.2
962.1,487,21.2,18.5,84,14.07,53,7.0,297.7,338.6,300.2
961.6,491,21.2,18.5,85,14.07,53,7.0,297.7,338.6,300.2
961.1,496,21.2,18.5,85,14.10,53,6.9,297.7,338.7,300.2
960.6,500,21.1,18.5,85,14.07,53,6.9,297.7,338.6,300.2
960.1,504,21.1,18.4,85,14.04,54,6.9,297.7,338.5,300.2
959.6,509,21.0,18.4,85,14.05,54,6.8,297.7,338.6,300.2
959.1,514,21.0,18.5,86,14.10,54,6.8,297.7,338.7,300.2
958.6,518,20.9,18.5,86,14.10,54,6.8,297.6,338.7,300.2
958.1,523,20.9,18.4,86,14.05,54,6.8,297.6,338.6,300.2
957.6,527,20.8,18.3,86,13.98,54,6.8,297.6,338.4,300.1
957.0,532,20.8,18.3,86,13.95,54,6.8,297.7,338.3,300.1
956.5,537,20.7,18.3,86,13.95,54,6.8,297.6,338.3,300.1
956.0,542,20.7,18.3,86,13.95,54,6.8,297.7,338.3,300.2
955.4,547,20.7,18.3,86,13.96,54,6.8,297.7,338.3,300.2
954.9,552,20.6,18.3,86,13.98,54,6.8,297.7,338.4,300.2
954.3,557,20.6,18.3,87,14.01,54,6.8,297.7,338.5,300.2
953.7,563,20.5,18.3,87,14.02,54,6.8,297.7,338.5,300.2
953.1,568,20.4,18.3,87,14.00,54,6.8,297.6,338.4,300.1
952.5,573,20.4,18.2,87,13.92,54,6.8,297.6,338.2,300.1
951.9,579,20.3,18.1,87,13.82,54,6.8,297.7,337.9,300.1
951.4,583,20.3,18.0,87,13.76,54,6.9,297.7,337.7,300.1
950.9,588,20.3,18.0,87,13.76,54,6.9,297.7,337.8,300.1
950.5,592,20.2,18.0,87,13.77,54,6.9,297.7,337.8,300.1
950.0,596,20.2,18.0,87,13.80,54,6.9,297.7,337.9,300.1
949.6,600,20.2,18.0,88,13.84,54,6.9,297.7,338.0,300.2
949.1,604,20.1,18.0,87,13.81,54,6.9,297.7,337.9,300.2
948.7,608,20.1,17.9,87,13.77,54,7.0,297.7,337.8,300.2
948.3,612,20.1,18.0,88,13.83,54,7.0,297.7,338.0,300.2
947.8,616,20.0,18.2,89,13.97,54,7.0,297.7,338.4,300.2
947.3,620,20.0,18.3,90,14.07,54,7.0,297.7,338.6,300.2
946.9,625,19.9,18.2,90,14.06,54,7.0,297.7,338.6,300.2
946.4,629,19.9,18.2,90,14.01,54,7.0,297.6,338.4,300.1
945.9,634,19.8,18.1,90,13.91,54,7.0,297.7,338.2,300.1
945.4,638,19.8,17.9,89,13.77,54,7.1,297.7,337.8,300.1
944.9,643,19.8,17.8,88,13.68,54,7.1,297.7,337.5,300.1
944.4,647,19.7,17.7,88,13.65,54,7.1,297.7,337.5,300.2
943.9,652,19.7,17.7,88,13.62,54,7.1,297.7,337.4,300.2
943.4,656,19.7,17.6,88,13.57,54,7.1,297.7,337.3,300.1
942.9,661,19.6,17.6,88,13.52,53,7.1,297.7,337.1,300.2
942.4,665,19.6,17.5,88,13.48,53,7.1,297.8,337.0,300.2
941.9,670,19.6,17.5,88,13.50,53,7.2,297.8,337.1,300.2
941.4,675,19.5,17.5,88,13.49,53,7.2,297.8,337.1,300.2
940.9,680,19.5,17.4,88,13.39,53,7.2,297.8,336.8,300.2
940.3,685,19.5,17.2,87,13.27,53,7.2,297.8,336.5,300.2
939.8,690,19.4,17.2,87,13.24,52,7.2,297.8,336.4,300.2
939.2,695,19.4,17.2,87,13.25,52,7.2,297.8,336.4,300.2
938.6,700,19.3,17.2,87,13.25,52,7.2,297.8,336.5,300.2
938.1,705,19.3,17.2,88,13.24,52,7.2,297.8,336.4,300.2
937.6,710,19.2,17.1,88,13.22,52,7.2,297.8,336.4,300.2
937.1,714,19.2,17.1,87,13.17,51,7.3,297.8,336.2,300.2
936.6,719,19.2,16.9,87,13.07,51,7.3,297.8,335.9,300.2
936.1,723,19.1,16.9,87,13.06,51,7.3,297.8,335.9,300.2
935.6,728,19.1,17.0,88,13.18,51,7.3,297.9,336.3,300.2
935.2,732,19.0,17.2,89,13.36,51,7.3,297.8,336.8,300.2
934.7,737,19.0,17.5,91,13.60,50,7.3,297.8,337.4,300.2
934.2,741,18.9,17.7,93,13.74,50,7.3,297.8,337.8,300.2
933.7,746,18.8,17.6,93,13.67,50,7.3,297.7,337.6,300.2
933.2,751,18.8,17.4,92,13.55,50,7.3,297.8,337.2,300.2
932.6,755,18.8,17.3,91,13.48,50,7.3,297.8,337.1,300.2
932.1,760,18.7,17.2,91,13.39,49,7.3,297.8,336.8,300.2
931.6,765,18.7,17.0,90,13.20,49,7.3,297.8,336.3,300.2
931.1,770,18.7,16.6,88,12.85,49,7.2,297.8,335.3,300.1
930.5,775,18.7,16.3,86,12.61,49,7.2,297.9,334.7,300.2
930.0,780,18.7,16.2,86,12.56,49,7.2,297.9,334.6,300.2
929.5,785,18.7,16.1,85,12.49,48,7.2,298.0,334.4,300.2
928.9,790,18.7,16.0,85,12.43,48,7.2,298.0,334.3,300.2
928.3,796,18.6,16.0,85,12.39,48,7.2,298.0,334.2,300.3
927.7,802,18.6,15.9,84,12.30,48,7.2,298.1,334.0,300.3
927.0,807,18.6,15.7,83,12.16,48,7.1,298.1,333.7,300.3
926.4,813,18.5,15.5,82,12.02,48,7.1,298.1,333.3,300.3
925.8,819,18.5,15.4,82,11.95,48,7.1,298.2,333.1,300.3
925.2,825,18.5,15.4,82,11.95,48,7.1,298.2,333.1,300.3
925.0,826,18.5,15.4,82,11.95,48,7.1,298.2,333.1,300.3
924.6,830,18.5,15.4,82,11.97,48,7.1,298.2,333.2,300.3
924.1,835,18.4,15.4,83,12.01,48,7.1,298.2,333.3,300.4
923.6,839,18.4,15.4,83,12.03,48,7.1,298.2,333.4,300.4
923.1,844,18.3,15.4,83,12.04,48,7.1,298.2,333.4,300.4
922.6,848,18.3,15.4,83,12.03,49,7.1,298.2,333.4,300.4
922.1,853,18.3,15.4,83,12.02,49,7.1,298.3,333.4,300.4
921.6,857,18.3,15.4,83,12.03,49,7.1,298.3,333.5,300.4
921.1,862,18.2,15.4,84,12.06,49,7.1,298.3,333.6,300.5
920.6,867,18.2,15.5,84,12.08,50,7.1,298.3,333.6,300.5
920.1,872,18.1,15.4,84,12.05,50,7.1,298.3,333.6,300.5
919.5,877,18.1,15.3,84,11.98,51,7.1,298.3,333.4,300.5
919.0,882,18.1,15.2,83,11.94,51,7.1,298.4,333.3,300.5
918.4,888,18.1,15.2,84,11.94,51,7.1,298.4,333.3,300.5
917.8,893,18.0,15.3,84,11.96,52,7.1,298.4,333.4,300.5
917.2,899,18.0,15.3,84,11.98,52,7.2,298.4,333.5,300.5
916.6,904,17.9,15.2,84,11.97,53,7.2,298.4,333.4,300.5
916.0,910,17.9,15.2,84,11.92,53,7.2,298.4,333.3,300.5
915.5,915,17.8,15.1,84,11.87,53,7.2,298.4,333.1,300.5
915.0,920,17.8,15.1,84,11.85,54,7.2,298.4,333.1,300.5
914.5,925,17.8,15.1,84,11.89,54,7.2,298.4,333.3,300.6
914.0,929,17.7,15.2,85,11.94,54,7.2,298.5,333.4,300.6
913.5,933,17.7,15.2,85,11.97,54,7.2,298.5,333.5,300.6
913.1,937,17.7,15.2,85,11.98,54,7.2,298.5,333.5,300.6
912.7,941,17.6,15.2,85,11.96,54,7.1,298.5,333.5,300.6
912.2,945,17.6,15.2,86,11.97,54,7.1,298.5,333.5,300.6
911.8,950,17.6,15.2,86,12.03,54,7.1,298.5,333.7,300.6
911.4,954,17.5,15.3,87,12.09,54,7.1,298.5,333.9,300.6
910.9,958,17.5,15.3,87,12.12,54,7.1,298.5,334.0,300.7
910.5,962,17.5,15.4,87,12.14,53,7.1,298.5,334.0,300.7
910.1,966,17.5,15.3,87,12.11,53,7.1,298.5,334.0,300.7
909.6,970,17.5,15.3,87,12.08,52,7.1,298.6,333.9,300.7
909.2,974,17.4,15.2,87,12.03,52,7.1,298.6,333.8,300.7
908.8,978,17.4,15.1,86,11.98,51,7.1,298.6,333.7,300.8
908.3,982,17.4,15.1,86,11.95,51,7.1,298.6,333.7,300.8
907.9,986,17.4,15.1,86,11.96,50,7.2,298.7,333.7,300.8
907.5,990,17.3,15.1,87,11.98,50,7.2,298.7,333.8,300.8
907.1,994,17.3,15.1,87,12.02,49,7.2,298.7,333.9,300.8
906.6,998,17.3,15.2,88,12.05,48,7.2,298.7,334.0,300.8
906.2,1003,17.2,15.2,88,12.05,48,7.3,298.7,334.0,300.8
905.7,1007,17.2,15.1,88,12.02,47,7.3,298.7,333.9,300.8
905.3,1011,17.2,15.1,87,11.97,47,7.4,298.7,333.7,300.8
904.8,1015,17.1,15.0,87,11.95,46,7.4,298.7,333.7,300.8
904.4,1019,17.1,15.0,87,11.93,46,7.4,298.7,333.7,300.8
904.0,1023,17.1,15.0,87,11.91,45,7.5,298.7,333.6,300.8
903.5,1028,17.0,14.9,87,11.87,45,7.5,298.7,333.5,300.9
903.1,1032,17.0,14.9,87,11.84,45,7.6,298.7,333.5,300.9
902.7,1036,17.0,14.8,87,11.84,44,7.6,298.8,333.5,300.9
902.2,1040,17.0,14.9,87,11.86,44,7.6,298.8,333.5,300.9
901.8,1044,16.9,14.8,87,11.85,44,7.6,298.8,333.5,300.9
901.3,1048,16.9,14.8,87,11.82,44,7.7,298.8,333.5,300.9
900.9,1053,16.9,14.7,87,11.77,44,7.7,298.8,333.4,300.9
900.4,1057,16.9,14.7,87,11.73,43,7.7,298.9,333.3,301.0
900.0,1062,16.9,14.6,87,11.70,43,7.7,298.9,333.2,301.0
899.5,1066,16.8,14.6,87,11.69,43,7.6,298.9,333.2,301.0
899.0,1071,16.8,14.6,87,11.68,43,7.6,298.9,333.2,301.0
898.5,1075,16.8,14.6,87,11.67,43,7.6,298.9,333.2,301.0
898.0,1080,16.8,14.5,87,11.67,43,7.5,298.9,333.2,301.0
897.5,1084,16.7,14.5,87,11.68,43,7.5,299.0,333.2,301.1
897.1,1089,16.7,14.5,87,11.63,43,7.4,299.0,333.1,301.1
896.6,1094,16.7,14.3,86,11.53,43,7.4,299.0,332.9,301.1
896.1,1098,16.7,14.2,85,11.42,43,7.3,299.1,332.6,301.1
895.6,1103,16.7,14.1,85,11.37,43,7.3,299.1,332.5,301.2
895.1,1107,16.7,14.1,85,11.40,43,7.2,299.2,332.7,301.2
894.7,1112,16.7,14.2,85,11.44,44,7.2,299.2,332.8,301.2
894.2,1117,16.6,14.2,86,11.48,44,7.1,299.2,332.9,301.2
893.7,1121,16.6,14.3,86,11.51,44,7.1,299.2,333.0,301.3
893.2,1126,16.6,14.3,86,11.55,44,7.0,299.2,333.2,301.3
892.8,1130,16.5,14.3,87,11.59,44,7.0,299.2,333.3,301.3
892.3,1135,16.5,14.4,87,11.61,44,7.0,299.2,333.3,301.3
891.8,1139,16.5,14.3,87,11.59,44,6.9,299.2,333.3,301.3
891.3,1144,16.4,14.3,87,11.54,43,6.9,299.2,333.2,301.3
890.8,1149,16.4,14.2,87,11.51,43,6.9,299.3,333.1,301.3
890.3,1154,16.4,14.2,87,11.49,43,7.0,299.3,333.1,301.3
889.8,1158,16.3,14.1,87,11.46,43,7.0,299.3,333.0,301.4
889.3,1163,16.3,14.1,87,11.42,43,7.0,299.3,332.9,301.4
888.9,1167,16.3,14.0,86,11.38,43,7.1,299.3,332.8,301.4
888.4,1172,16.3,14.0,86,11.37,43,7.2,299.4,332.8,301.4
887.9,1176,16.2,14.0,86,11.36,42,7.2,299.4,332.8,301.4
887.5,1181,16.2,13.9,86,11.33,42,7.3,299.4,332.7,301.4
887.0,1185,16.2,13.8,86,11.29,42,7.4,299.4,332.6,301.4
886.5,1190,16.2,13.8,86,11.23,41,7.5,299.4,332.5,301.5
886.1,1194,16.1,13.7,85,11.17,41,7.6,299.4,332.3,301.5
885.7,1198,16.1,13.7,85,11.16,41,7.7,299.5,332.3,301.5
885.2,1202,16.1,13.7,86,11.17,40,7.8,299.5,332.4,301.5
884.8,1206,16.0,13.7,86,11.18,40,7.9,299.5,332.4,301.5
884.4,1210,16.0,13.7,86,11.19,40,8.0,299.5,332.4,301.5
884.0,1214,16.0,13.7,86,11.20,39,8.1,299.5,332.5,301.5
883.6,1218,15.9,13.7,86,11.21,39,8.2,299.5,332.5,301.5
883.2,1222,15.9,13.7,87,11.22,39,8.3,299.5,332.6,301.5
882.8,1226,15.9,13.7,87,11.23,38,8.4,299.5,332.6,301.6
882.4,1230,15.9,13.7,87,11.23,38,8.5,299.6,332.6,301.6
882.0,1233,15.9,13.7,87,11.23,38,8.5,299.6,332.7,301.6
881.6,1238,15.9,13.7,87,11.25,37,8.5,299.6,332.7,301.6
881.1,1242,15.8,13.7,87,11.27,37,8.6,299.6,332.8,301.6
880.7,1246,15.8,13.7,88,11.29,37,8.6,299.6,332.9,301.7
880.2,1251,15.8,13.7,88,11.30,36,8.6,299.6,332.9,301.7
879.7,1256,15.7,13.7,88,11.28,36,8.6,299.6,332.9,301.7
879.2,1260,15.7,13.7,88,11.25,36,8.6,299.7,332.8,301.7
878.7,1265,15.6,13.6,88,11.21,35,8.6,299.7,332.7,301.7
878.3,1270,15.6,13.5,87,11.17,35,8.5,299.7,332.6,301.7
877.8,1274,15.6,13.5,87,11.15,35,8.5,299.7,332.6,301.7
877.3,1279,15.6,13.5,88,11.17,35,8.4,299.7,332.6,301.7
876.9,1283,15.5,13.6,88,11.21,35,8.3,299.7,332.7,301.7
876.5,1287,15.5,13.6,89,11.27,35,8.3,299.7,332.9,301.7
876.1,1291,15.4,13.7,89,11.32,35,8.2,299.7,333.0,301.7
875.6,1295,15.4,13.7,90,11.35,35,8.1,299.7,333.2,301.8
875.2,1300,15.4,13.8,90,11.37,35,8.1,299.7,333.2,301.8
874.7,1304,15.3,13.8,90,11.38,35,8.0,299.7,333.3,301.8
874.2,1309,15.3,13.7,90,11.36,35,7.9,299.8,333.3,301.8
873.6,1314,15.3,13.6,90,11.29,35,7.9,299.8,333.1,301.8
873.1,1320,15.3,13.4,88,11.15,35,7.8,299.9,332.8,301.9
872.5,1326,15.4,13.2,87,11.00,35,7.7,300.0,332.5,302.0
871.9,1331,15.4,13.1,86,10.91,36,7.7,300.1,332.3,302.0
871.3,1337,15.4,13.1,86,10.91,36,7.6,300.1,332.3,302.1
870.8,1343,15.3,13.1,86,10.93,36,7.5,300.1,332.4,302.1
870.2,1348,15.3,13.0,86,10.91,37,7.5,300.1,332.4,302.1
869.6,1354,15.3,13.0,86,10.88,37,7.4,300.2,332.3,302.1
869.1,1359,15.2,13.0,86,10.86,37,7.4,300.2,332.3,302.1
868.6,1364,15.2,12.9,86,10.85,37,7.3,300.2,332.2,302.1
868.1,1368,15.2,12.9,87,10.87,38,7.3,300.2,332.3,302.2
867.7,1373,15.1,12.9,87,10.87,38,7.3,300.2,332.3,302.2
867.2,1377,15.1,12.9,87,10.86,38,7.2,300.2,332.3,302.2
866.8,1381,15.1,12.9,87,10.85,38,7.2,300.2,332.3,302.2
866.4,1385,15.0,12.9,87,10.84,38,7.1,300.2,332.3,302.2
866.0,1389,15.0,12.9,87,10.84,38,7.1,300.2,332.3,302.2
865.6,1393,15.0,12.9,87,10.85,37,7.0,300.2,332.3,302.2
865.2,1397,14.9,12.9,87,10.85,37,7.0,300.3,332.3,302.2
864.8,1401,14.9,12.8,87,10.81,37,6.9,300.3,332.2,302.2
864.3,1406,14.9,12.8,87,10.78,37,6.9,300.3,332.2,302.2
863.8,1410,14.9,12.7,87,10.78,36,6.8,300.3,332.2,302.3
863.4,1415,14.8,12.8,88,10.83,36,6.8,300.3,332.3,302.3
862.9,1420,14.8,12.9,88,10.87,35,6.7,300.4,332.5,302.3
862.4,1425,14.8,12.9,88,10.88,35,6.7,300.3,332.5,302.3
861.9,1430,14.7,12.8,88,10.84,34,6.6,300.4,332.4,302.3
861.4,1435,14.7,12.7,88,10.79,34,6.6,300.4,332.3,302.3
860.9,1440,14.6,12.7,88,10.77,33,6.5,300.4,332.2,302.3
860.4,1445,14.6,12.7,88,10.79,33,6.4,300.4,332.3,302.3
859.8,1450,14.5,12.7,89,10.80,32,6.4,300.4,332.3,302.3
859.3,1455,14.5,12.7,89,10.78,32,6.3,300.4,332.3,302.3
858.8,1460,14.5,12.6,89,10.76,32,6.3,300.4,332.2,302.3
858.3,1465,14.4,12.6,89,10.73,31,6.3,300.4,332.2,302.3
857.8,1470,14.4,12.6,89,10.75,31,6.2,300.4,332.2,302.4
857.3,1475,14.4,12.7,90,10.80,31,6.2,300.4,332.4,302.4
856.7,1480,14.3,12.8,90,10.90,30,6.1,300.5,332.7,302.4
856.2,1486,14.3,12.8,91,10.94,30,6.1,300.5,332.8,302.4
855.7,1491,14.2,12.8,91,10.93,30,6.1,300.5,332.8,302.5
855.1,1496,14.2,12.8,91,10.90,30,6.0,300.5,332.8,302.5
854.6,1501,14.2,12.7,91,10.87,30,6.0,300.5,332.7,302.5
854.1,1507,14.2,12.6,90,10.82,29,6.0,300.6,332.6,302.5
853.6,1512,14.2,12.6,90,10.79,29,6.0,300.6,332.6,302.6
853.1,1517,14.1,12.6,91,10.82,29,5.9,300.6,332.7,302.6
852.6,1522,14.1,12.7,91,10.88,29,5.9,300.6,332.8,302.6
852.0,1527,14.0,12.7,92,10.89,28,5.9,300.6,332.9,302.6
851.5,1532,14.0,12.6,91,10.85,28,5.9,300.7,332.8,302.6
851.0,1537,14.0,12.5,91,10.80,28,5.9,300.7,332.7,302.6
850.5,1542,14.0,12.5,91,10.74,27,5.9,300.7,332.5,302.6
850.0,1547,13.9,12.4,91,10.70,27,5.9,300.7,332.4,302.6
849.5,1552,13.9,12.4,91,10.70,26,5.9,300.7,332.4,302.6
849.0,1557,13.8,12.4,91,10.71,26,5.9,300.7,332.4,302.7
848.5,1562,13.8,12.4,91,10.72,25,5.9,300.7,332.5,302.7
848.1,1566,13.8,12.4,91,10.70,25,5.9,300.7,332.4,302.7
847.6,1571,13.7,12.3,91,10.69,24,5.9,300.7,332.4,302.7
847.2,1575,13.7,12.3,92,10.70,24,6.0,300.7,332.4,302.7
846.7,1580,13.6,12.4,92,10.72,23,6.0,300.7,332.5,302.7
846.3,1584,13.6,12.4,92,10.72,23,6.0,300.8,332.5,302.7
845.9,1588,13.6,12.3,92,10.71,22,6.0,300.8,332.5,302.7
845.4,1593,13.5,12.3,92,10.70,22,6.0,300.8,332.5,302.7
845.0,1597,13.5,12.3,92,10.69,22,6.0,300.8,332.5,302.7
844.6,1601,13.5,12.3,92,10.68,21,6.1,300.8,332.4,302.7
844.1,1606,13.4,12.2,92,10.66,21,6.1,300.8,332.4,302.7
843.7,1610,13.4,12.2,92,10.62,21,6.1,300.8,332.3,302.7
843.2,1615,13.4,12.1,92,10.55,22,6.1,300.8,332.1,302.7
842.7,1620,13.4,12.0,91,10.49,22,6.1,300.9,332.0,302.8
842.2,1625,13.4,11.9,91,10.48,22,6.1,300.9,332.0,302.8
841.6,1631,13.3,12.0,92,10.52,23,6.1,300.9,332.1,302.8
841.1,1636,13.3,12.0,92,10.54,24,6.1,300.9,332.2,302.8
840.5,1643,13.2,12.0,92,10.52,25,6.1,301.0,332.2,302.9
839.8,1649,13.2,11.8,91,10.44,26,6.2,301.0,332.0,302.9
839.2,1655,13.2,11.6,90,10.30,27,6.2,301.0,331.6,302.9
838.6,1661,13.2,11.3,88,10.09,28,6.2,301.1,331.1,302.9
838.0,1667,13.3,10.8,85,9.77,29,6.2,301.3,330.4,303.1
837.5,1672,13.5,10.4,81,9.48,30,6.2,301.5,329.8,303.2
837.0,1678,13.6,10.1,79,9.30,32,6.2,301.7,329.5,303.4
836.5,1683,13.7,10.0,78,9.24,33,6.3,301.8,329.4,303.5
836.0,1688,13.7,9.9,78,9.22,34,6.3,301.9,329.4,303.5
835.5,1692,13.7,9.9,78,9.19,36,6.3,301.9,329.4,303.6
835.1,1697,13.7,9.8,78,9.15,37,6.3,302.0,329.3,303.6
834.6,1702,13.6,9.7,77,9.09,39,6.4,302.0,329.2,303.6
834.1,1706,13.6,9.5,76,8.99,40,6.4,302.0,328.9,303.7
833.6,1711,13.6,9.3,75,8.84,41,6.4,302.1,328.5,303.7
833.2,1716,13.6,9.1,74,8.71,43,6.5,302.1,328.2,303.7
832.7,1721,13.6,9.0,73,8.66,44,6.5,302.2,328.1,303.7
832.2,1726,13.6,8.9,73,8.62,45,6.5,302.2,328.1,303.8
831.7,1731,13.6,8.7,72,8.54,47,6.5,302.2,327.9,303.8
831.2,1736,13.6,8.5,72,8.44,48,6.6,302.3,327.6,303.8
830.7,1741,13.6,8.3,71,8.33,49,6.6,302.3,327.3,303.8
830.2,1746,13.6,8.2,70,8.23,50,6.6,302.4,327.1,303.9
829.7,1751,13.6,8.1,69,8.17,52,6.6,302.4,327.0,303.9
829.2,1757,13.5,8.0,69,8.12,53,6.6,302.4,326.9,303.9
828.6,1762,13.5,7.8,68,8.05,54,6.6,302.5,326.7,303.9
828.1,1767,13.5,7.6,68,7.95,56,6.6,302.5,326.4,303.9
