PRES,HGHT,TEMP,DWPT,RELH,MIXR,DRCT,SPED,THTA,THTE,THTV
1016.7,31,22.7,16.7,69,11.87,100,4.1,294.5,328.6,296.6
1016.4,33,23.2,16.1,65,11.40,87,2.8,294.9,327.9,296.9
1015.6,40,23.4,16.1,64,11.37,84,2.7,295.2,328.1,297.2
1014.9,46,23.5,16.0,63,11.33,83,2.8,295.4,328.2,297.4
1014.2,52,23.5,15.9,62,11.24,83,3.0,295.4,328.0,297.4
1013.7,56,23.4,15.8,62,11.20,84,3.3,295.4,327.8,297.4
1012.9,63,23.4,15.8,62,11.21,84,3.5,295.4,327.9,297.4
1012.3,69,23.3,15.8,63,11.21,84,3.6,295.4,327.9,297.4
1011.6,74,23.3,15.8,63,11.19,84,3.8,295.4,327.8,297.4
1011.0,80,23.2,15.8,63,11.25,85,4.0,295.4,328.0,297.4
1010.4,85,23.1,15.9,64,11.32,85,4.1,295.4,328.2,297.4
1009.8,90,23.1,15.9,64,11.32,85,4.3,295.4,328.2,297.4
1009.2,96,23.1,15.8,64,11.28,85,4.4,295.4,328.1,297.4
1008.6,101,23.0,15.8,64,11.24,86,4.5,295.4,328.0,297.4
1008.0,106,23.0,15.7,64,11.21,86,4.6,295.4,327.9,297.4
1007.4,111,22.9,15.7,64,11.17,86,4.7,295.4,327.8,297.4
1006.8,116,22.9,15.6,64,11.12,86,4.8,295.4,327.6,297.4
1006.2,121,22.8,15.5,64,11.10,87,4.8,295.4,327.6,297.4
1005.6,127,22.8,15.5,64,11.08,87,4.9,295.4,327.5,297.4
1005.0,132,22.7,15.5,64,11.07,87,4.9,295.4,327.5,297.4
1004.3,137,22.7,15.5,64,11.06,88,5.0,295.4,327.5,297.4
1003.7,143,22.6,15.4,64,11.05,88,5.0,295.4,327.4,297.4
1003.1,148,22.5,15.4,64,11.03,88,5.0,295.4,327.4,297.4
1002.5,153,22.5,15.4,64,11.04,89,5.0,295.4,327.4,297.4
1001.9,158,22.5,15.4,64,11.08,89,5.0,295.4,327.5,297.4
1001.3,163,22.4,15.5,65,11.11,89,5.1,295.5,327.6,297.4
1000.7,169,22.4,15.5,65,11.13,89,5.1,295.5,327.7,297.4
1000.1,174,22.3,15.5,65,11.14,90,5.1,295.4,327.7,297.4
1000.0,175,22.3,15.5,65,11.13,90,5.1,295.4,327.7,297.4
999.5,179,22.3,15.4,65,11.10,90,5.1,295.4,327.6,297.4
999.0,184,22.2,15.4,65,11.06,90,5.1,295.4,327.5,297.4
998.5,188,22.2,15.4,65,11.06,91,5.1,295.4,327.5,297.4
998.0,193,22.1,15.4,66,11.08,91,5.1,295.4,327.5,297.4
997.5,197,22.1,15.4,66,11.07,91,5.1,295.5,327.5,297.4
997.0,201,22.0,15.4,66,11.08,91,5.1,295.4,327.5,297.4
996.5,205,22.0,15.4,66,11.07,91,5.1,295.5,327.5,297.4
996.1,209,22.0,15.3,66,11.06,91,5.1,295.5,327.5,297.4
995.6,213,22.0,15.4,66,11.08,91,5.2,295.5,327.6,297.4
995.1,218,21.9,15.4,67,11.13,91,5.2,295.5,327.7,297.5
994.6,222,21.9,15.4,67,11.16,91,5.2,295.5,327.8,297.4
994.1,227,21.8,15.5,67,11.17,91,5.3,295.5,327.8,297.4
993.5,231,21.8,15.4,67,11.16,91,5.3,295.4,327.8,297.4
993.0,236,21.7,15.4,67,11.13,91,5.3,295.4,327.7,297.4
992.5,240,21.7,15.3,67,11.09,91,5.4,295.5,327.6,297.4
992.0,245,21.6,15.3,67,11.08,91,5.4,295.5,327.5,297.4
991.5,249,21.6,15.3,67,11.06,91,5.5,295.4,327.5,297.4
991.0,254,21.5,15.2,67,11.05,91,5.5,295.5,327.4,297.4
990.5,258,21.5,15.2,67,11.05,91,5.5,295.5,327.5,297.4
990.0,262,21.5,15.3,68,11.07,91,5.6,295.5,327.5,297.4
989.5,267,21.4,15.3,68,11.11,91,5.6,295.5,327.6,297.4
989.0,271,21.4,15.3,68,11.13,92,5.7,295.4,327.7,297.4
988.5,276,21.3,15.3,69,11.13,92,5.7,295.4,327.7,297.4
988.0,280,21.3,15.3,69,11.13,92,5.7,295.4,327.7,297.4
987.4,285,21.2,15.3,69,11.15,92,5.7,295.5,327.7,297.4
986.9,290,21.2,15.3,69,11.15,92,5.8,295.5,327.7,297.4
986.3,295,21.1,15.3,69,11.15,92,5.8,295.4,327.7,297.4
985.8,299,21.1,15.3,69,11.13,92,5.8,295.4,327.6,297.4
985.2,304,21.0,15.2,69,11.11,92,5.8,295.4,327.6,297.4
984.6,309,21.0,15.2,70,11.11,92,5.8,295.4,327.6,297.4
984.1,314,20.9,15.2,70,11.13,92,5.8,295.4,327.7,297.4
983.5,319,20.9,15.3,70,11.16,92,5.9,295.4,327.8,297.4
983.0,324,20.8,15.3,70,11.16,92,5.9,295.4,327.7,297.4
982.5,329,20.8,15.2,70,11.14,92,5.9,295.4,327.7,297.4
981.9,333,20.7,15.2,71,11.14,92,5.9,295.4,327.7,297.4
981.4,338,20.7,15.2,71,11.15,92,5.9,295.4,327.7,297.4
980.9,342,20.7,15.3,71,11.18,92,5.9,295.4,327.8,297.4
980.4,347,20.6,15.3,71,11.19,92,5.9,295.4,327.8,297.4
979.9,351,20.6,15.2,71,11.18,92,5.9,295.4,327.8,297.4
979.4,356,20.5,15.2,72,11.17,92,5.9,295.4,327.8,297.4
978.9,360,20.5,15.2,72,11.17,92,5.9,295.4,327.8,297.4
978.4,365,20.5,15.2,72,11.15,92,5.9,295.4,327.7,297.4
977.9,369,20.4,15.1,72,11.12,91,5.9,295.5,327.7,297.4
977.3,374,20.4,15.1,72,11.13,91,5.9,295.5,327.7,297.4
976.8,378,20.3,15.1,72,11.14,91,5.9,295.5,327.7,297.4
976.3,383,20.3,15.2,72,11.17,90,5.9,295.5,327.8,297.4
975.8,388,20.2,15.2,73,11.19,90,5.9,295.5,327.9,297.4
975.3,392,20.2,15.2,73,11.18,90,5.9,295.4,327.8,297.4
974.8,397,20.2,15.2,73,11.18,89,5.9,295.4,327.8,297.4
974.3,401,20.1,15.2,73,11.18,89,5.9,295.4,327.8,297.4
973.8,406,20.1,15.2,73,11.20,89,5.9,295.4,327.9,297.4
973.3,410,20.0,15.2,74,11.22,89,5.9,295.4,327.9,297.4
972.8,414,20.0,15.2,74,11.25,88,5.9,295.4,328.0,297.4
972.3,418,19.9,15.2,74,11.27,88,5.9,295.4,328.1,297.4
971.9,423,19.9,15.2,74,11.25,88,5.9,295.4,328.0,297.4
971.4,427,19.9,15.2,75,11.24,88,5.9,295.4,328.0,297.4
970.9,431,19.8,15.2,75,11.25,87,5.9,295.4,328.0,297.4
970.4,435,19.8,15.2,75,11.26,87,5.9,295.4,328.0,297.4
969.9,440,19.7,15.2,75,11.25,87,5.9,295.4,328.0,297.4
969.4,445,19.7,15.1,75,11.21,87,6.0,295.5,327.9,297.5
968.9,449,19.7,15.1,75,11.18,87,6.0,295.5,327.8,297.4
968.3,454,19.6,15.0,75,11.11,87,6.0,295.5,327.6,297.4
967.8,459,19.6,14.8,74,11.00,87,6.0,295.5,327.4,297.5
967.3,463,19.6,14.7,73,10.95,87,5.9,295.5,327.3,297.5
966.8,468,19.6,14.7,74,10.95,87,5.9,295.5,327.3,297.5
966.2,473,19.5,14.7,74,10.94,87,5.9,295.5,327.3,297.5
965.7,477,19.5,14.7,74,10.93,88,5.9,295.5,327.2,297.5
965.2,482,19.4,14.6,74,10.91,88,5.9,295.6,327.2,297.5
964.7,486,19.4,14.6,74,10.92,88,5.9,295.6,327.2,297.5
964.2,491,19.3,14.7,74,10.96,88,5.9,295.6,327.3,297.5
963.7,496,19.3,14.7,75,10.99,88,5.8,295.6,327.4,297.5
963.1,500,19.3,14.7,75,11.01,89,5.8,295.6,327.5,297.5
962.6,505,19.2,14.7,75,11.00,89,5.8,295.6,327.4,297.5
962.1,510,19.2,14.7,75,10.99,89,5.7,295.6,327.4,297.5
961.6,514,19.1,14.7,75,10.98,89,5.7,295.5,327.4,297.5
961.0,519,19.1,14.6,75,10.97,90,5.6,295.6,327.3,297.5
960.5,524,19.0,14.6,75,10.94,90,5.6,295.6,327.3,297.5
960.0,529,19.0,14.6,76,10.93,90,5.5,295.6,327.3,297.5
959.4,533,19.0,14.6,76,10.93,90,5.5,295.6,327.3,297.5
958.9,538,18.9,14.5,76,10.90,90,5.4,295.6,327.2,297.5
958.3,543,18.9,14.5,76,10.88,90,5.3,295.6,327.1,297.5
957.8,549,18.8,14.5,76,10.87,90,5.2,295.6,327.1,297.5
957.2,554,18.8,14.4,76,10.87,90,5.2,295.6,327.1,297.5
956.6,559,18.7,14.4,76,10.86,90,5.1,295.6,327.1,297.5
956.0,564,18.7,14.4,76,10.86,90,5.0,295.6,327.1,297.5
955.4,570,18.6,14.4,76,10.85,90,4.9,295.6,327.1,297.5
954.8,575,18.6,14.4,77,10.85,90,4.8,295.6,327.1,297.5
954.2,580,18.5,14.4,77,10.84,90,4.7,295.6,327.0,297.5
953.6,586,18.5,14.4,77,10.84,90,4.6,295.6,327.0,297.5
953.0,591,18.5,14.4,77,10.88,90,4.5,295.6,327.2,297.6
952.4,596,18.4,14.4,78,10.91,90,4.4,295.7,327.3,297.6
951.9,602,18.4,14.4,78,10.90,89,4.3,295.7,327.3,297.6
951.3,607,18.3,14.3,77,10.86,89,4.2,295.7,327.1,297.6
950.7,612,18.3,14.3,78,10.86,88,4.1,295.7,327.1,297.6
950.1,617,18.2,14.3,78,10.88,88,4.1,295.7,327.2,297.6
949.5,623,18.2,14.4,78,10.90,87,4.0,295.7,327.3,297.6
948.9,628,18.2,14.4,79,10.92,86,3.9,295.7,327.4,297.6
948.2,634,18.1,14.4,79,10.95,86,3.8,295.7,327.4,297.6
947.6,640,18.0,14.4,79,10.97,85,3.7,295.7,327.5,297.7
946.9,646,18.0,14.4,80,10.96,83,3.7,295.7,327.5,297.6
946.3,652,17.9,14.4,80,10.95,82,3.6,295.7,327.4,297.6
945.6,658,17.9,14.4,80,10.96,81,3.5,295.7,327.5,297.6
945.0,664,17.8,14.4,81,11.00,80,3.5,295.7,327.6,297.6
944.4,669,17.8,14.4,81,11.02,78,3.4,295.7,327.6,297.7
943.8,674,17.7,14.4,81,10.99,76,3.3,295.7,327.5,297.6
943.2,680,17.6,14.4,81,10.97,75,3.3,295.7,327.5,297.6
942.7,685,17.6,14.4,82,11.00,73,3.3,295.7,327.6,297.6
942.2,690,17.5,14.4,82,11.03,71,3.2,295.7,327.6,297.6
941.6,694,17.5,14.4,82,11.04,69,3.2,295.7,327.7,297.6
941.1,699,17.4,14.4,83,11.05,67,3.2,295.7,327.7,297.6
940.5,704,17.4,14.4,83,11.05,65,3.2,295.7,327.7,297.6
940.0,709,17.3,14.4,83,11.06,63,3.1,295.7,327.7,297.6
939.5,714,17.3,14.4,83,11.07,61,3.1,295.7,327.7,297.6
938.9,719,17.2,14.4,84,11.07,59,3.1,295.7,327.8,297.6
938.3,724,17.2,14.4,84,11.09,58,3.1,295.7,327.8,297.6
937.8,730,17.1,14.5,84,11.10,56,3.1,295.6,327.8,297.6
937.2,735,17.1,14.4,84,11.10,54,3.1,295.7,327.8,297.6
936.6,740,17.0,14.4,85,11.11,53,3.1,295.7,327.8,297.6
936.0,745,17.0,14.5,85,11.15,52,3.1,295.6,327.9,297.6
935.5,750,16.9,14.5,86,11.16,51,3.1,295.6,327.9,297.6
934.9,755,16.9,14.5,86,11.14,50,3.1,295.6,327.9,297.6
934.4,760,16.8,14.4,86,11.14,49,3.1,295.6,327.9,297.6
933.8,765,16.8,14.5,86,11.15,48,3.1,295.6,327.9,297.6
933.3,770,16.7,14.5,87,11.17,48,3.1,295.6,328.0,297.6
932.8,775,16.7,14.5,87,11.17,48,3.1,295.6,328.0,297.6
932.3,780,16.6,14.4,87,11.15,48,3.1,295.6,327.9,297.6
931.7,785,16.6,14.4,87,11.15,48,3.1,295.7,328.0,297.7
931.2,789,16.7,14.4,87,11.16,48,3.1,295.8,328.1,297.8
930.7,794,16.6,14.4,87,11.14,48,3.0,295.8,328.1,297.8
930.1,799,16.6,14.4,87,11.12,48,3.0,295.8,328.0,297.8
929.6,804,16.6,14.3,87,11.12,49,3.0,295.8,328.1,297.8
929.1,809,16.5,14.3,87,11.11,49,3.0,295.8,328.0,297.8
928.5,814,16.5,14.3,87,11.09,50,2.9,295.8,328.0,297.8
928.0,819,16.4,14.3,87,11.07,51,2.9,295.8,327.9,297.8
927.4,824,16.4,14.2,87,11.05,51,2.9,295.9,327.9,297.8
926.9,829,16.4,14.2,87,11.04,52,2.9,295.9,327.9,297.8
926.3,834,16.3,14.2,87,11.07,53,2.8,295.9,328.0,297.9
925.8,839,16.3,14.3,88,11.12,53,2.8,295.9,328.1,297.9
925.2,844,16.3,14.3,88,11.14,54,2.8,295.9,328.2,297.9
925.0,847,16.2,14.3,88,11.14,54,2.8,295.9,328.2,297.9
924.7,849,16.2,14.3,88,11.14,54,2.8,295.9,328.2,297.9
924.2,854,16.2,14.3,89,11.14,54,2.7,295.9,328.2,297.9
923.6,859,16.1,14.3,89,11.15,54,2.7,295.9,328.2,297.9
923.1,864,16.1,14.3,89,11.14,54,2.7,295.9,328.2,297.9
922.6,869,16.0,14.2,89,11.12,54,2.7,295.9,328.1,297.9
922.1,874,16.0,14.2,89,11.12,54,2.6,295.9,328.2,297.9
921.5,879,15.9,14.3,90,11.16,54,2.6,295.9,328.3,297.9
921.0,883,15.9,14.3,91,11.22,53,2.6,295.9,328.4,297.9
920.5,888,15.8,14.4,91,11.24,53,2.6,295.9,328.5,297.9
919.9,893,15.8,14.3,91,11.22,53,2.6,295.9,328.4,297.9
919.4,898,15.7,14.3,91,11.22,52,2.6,295.9,328.4,297.9
918.8,903,15.7,14.4,92,11.26,51,2.6,295.9,328.5,297.9
918.3,909,15.6,14.4,92,11.29,51,2.6,295.9,328.6,297.9
917.8,914,15.6,14.4,92,11.29,50,2.6,295.9,328.6,297.9
917.2,918,15.5,14.4,93,11.28,50,2.6,295.9,328.6,297.9
916.7,923,15.5,14.3,93,11.27,49,2.6,295.9,328.6,297.9
916.2,928,15.5,14.3,93,11.26,49,2.6,295.9,328.5,297.9
915.6,933,15.4,14.3,93,11.26,49,2.6,295.9,328.6,297.9
915.1,938,15.4,14.3,93,11.25,49,2.6,295.9,328.5,297.9
914.6,943,15.3,14.3,93,11.25,49,2.6,295.9,328.5,297.9
914.0,948,15.3,14.3,94,11.26,49,2.6,295.9,328.6,297.9
913.5,953,15.2,14.3,94,11.28,50,2.6,295.9,328.6,297.9
912.9,958,15.2,14.3,94,11.28,50,2.6,295.9,328.6,297.9
912.4,963,15.1,14.3,95,11.28,51,2.7,295.9,328.6,297.9
911.9,968,15.1,14.3,95,11.27,52,2.7,295.9,328.6,297.9
911.4,973,15.0,14.2,95,11.27,53,2.7,295.9,328.6,297.9
910.9,978,15.0,14.2,95,11.27,55,2.7,295.9,328.6,297.9
910.4,982,14.9,14.2,95,11.27,56,2.7,295.9,328.6,297.9
909.8,987,14.9,14.2,96,11.26,58,2.7,295.9,328.6,297.9
909.3,992,14.9,14.2,96,11.25,59,2.7,295.9,328.5,297.9
908.8,997,14.8,14.2,96,11.24,61,2.8,295.9,328.5,297.9
908.3,1002,14.8,14.1,96,11.23,63,2.8,295.9,328.5,297.9
907.7,1007,14.7,14.1,96,11.18,64,2.8,295.9,328.4,297.9
907.2,1012,14.7,13.9,95,11.07,66,2.9,296.0,328.1,297.9
906.6,1017,14.7,13.8,94,10.97,68,2.9,296.0,327.8,298.0
906.1,1022,14.7,13.7,94,10.91,70,2.9,296.0,327.7,298.0
905.5,1028,14.6,13.6,94,10.87,71,3.0,296.0,327.6,298.0
905.0,1033,14.6,13.6,94,10.85,73,3.0,296.1,327.5,298.0
904.4,1038,14.6,13.5,93,10.80,74,3.1,296.1,327.4,298.0
903.9,1043,14.5,13.4,93,10.75,76,3.2,296.1,327.3,298.0
903.3,1048,14.5,13.3,93,10.72,77,3.2,296.1,327.3,298.0
902.8,1053,14.5,13.3,93,10.70,78,3.3,296.1,327.2,298.0
902.2,1059,14.4,13.2,93,10.66,79,3.4,296.1,327.1,298.0
901.6,1064,14.4,13.1,92,10.60,80,3.4,296.1,326.9,298.0
901.0,1070,14.3,13.0,92,10.48,81,3.5,296.1,326.6,298.0
900.4,1075,14.3,12.7,90,10.29,82,3.6,296.2,326.1,298.0
899.8,1081,14.3,12.4,89,10.11,82,3.7,296.2,325.6,298.0
899.2,1087,14.3,12.2,87,9.97,83,3.8,296.3,325.3,298.0
898.6,1092,14.3,12.1,87,9.90,83,3.8,296.3,325.2,298.1
898.0,1098,14.3,12.0,86,9.87,83,3.9,296.4,325.2,298.1
897.5,1103,14.2,12.0,87,9.87,84,4.0,296.4,325.1,298.1
896.9,1109,14.2,12.0,87,9.87,84,4.1,296.4,325.1,298.2
896.3,1114,14.1,12.0,87,9.85,84,4.2,296.4,325.1,298.2
895.7,1120,14.1,11.9,87,9.85,84,4.2,296.4,325.1,298.2
895.1,1126,14.1,12.0,87,9.87,84,4.3,296.4,325.2,298.2
894.5,1131,14.0,12.1,88,9.93,85,4.4,296.5,325.4,298.2
893.9,1137,13.9,12.1,89,9.99,85,4.5,296.4,325.5,298.2
893.3,1143,13.8,12.1,89,9.98,85,4.5,296.4,325.5,298.2
892.7,1148,13.8,12.0,89,9.89,85,4.6,296.4,325.2,298.2
892.1,1154,13.8,11.7,87,9.75,85,4.7,296.4,324.9,298.2
891.5,1159,13.8,11.5,86,9.61,85,4.7,296.5,324.6,298.2
890.9,1165,13.8,11.2,84,9.44,85,4.8,296.6,324.2,298.3
890.3,1171,13.9,10.9,82,9.21,86,4.9,296.8,323.7,298.4
889.7,1177,14.0,10.2,78,8.84,86,4.9,296.9,322.8,298.5
889.1,1182,14.2,9.0,71,8.11,86,4.9,297.1,321.0,298.6
888.5,1188,14.7,6.9,59,7.06,87,5.0,297.8,318.7,299.0
887.9,1194,15.4,4.4,48,5.90,87,5.0,298.5,316.2,299.6
887.3,1200,16.0,1.9,39,4.96,88,5.0,299.2,314.2,300.1
886.7,1205,16.7,-0.1,32,4.30,88,5.1,299.9,313.1,300.7
886.1,1211,17.0,-1.2,29,3.96,89,5.1,300.4,312.6,301.1
885.6,1216,17.2,-1.8,27,3.80,90,5.1,300.6,312.3,301.3
885.0,1221,17.5,-2.5,25,3.59,91,5.1,300.9,312.0,301.6
884.5,1226,17.8,-3.2,24,3.42,92,5.1,301.3,311.9,301.9
884.0,1231,18.0,-3.3,23,3.38,93,5.1,301.6,312.1,302.2
883.5,1236,18.0,-2.9,24,3.49,94,5.1,301.7,312.5,302.3
883.0,1241,18.0,-2.5,25,3.60,95,5.1,301.7,312.9,302.4
882.5,1246,18.0,-2.4,25,3.64,97,5.1,301.8,313.1,302.4
882.0,1251,18.0,-2.3,25,3.65,98,5.0,301.8,313.2,302.5
881.5,1256,18.0,-2.4,25,3.63,100,5.0,301.9,313.1,302.5
880.9,1261,18.1,-2.6,24,3.59,102,5.0,301.9,313.1,302.6
880.4,1266,18.1,-2.8,24,3.53,104,5.0,302.0,313.0,302.7
879.9,1271,18.1,-3.5,23,3.37,105,5.0,302.1,312.6,302.7
879.3,1277,18.2,-4.4,21,3.14,107,5.0,302.3,312.1,302.8
878.8,1282,18.3,-5.4,20,2.92,109,5.0,302.4,311.6,302.9
878.2,1287,18.3,-5.9,19,2.80,111,5.0,302.5,311.3,303.0
877.7,1292,18.4,-6.1,18,2.77,113,5.0,302.6,311.3,303.1
877.1,1298,18.4,-6.1,18,2.76,115,5.0,302.7,311.4,303.2
876.6,1303,18.5,-6.2,18,2.73,117,5.1,302.8,311.5,303.3
876.1,1308,18.5,-6.6,17,2.66,118,5.1,302.9,311.3,303.4
875.5,1314,18.6,-7.3,16,2.52,120,5.1,303.1,311.1,303.5
875.0,1319,18.8,-8.2,15,2.36,121,5.1,303.3,310.8,303.7
874.4,1324,19.0,-8.8,14,2.25,122,5.1,303.6,310.8,304.0
873.9,1329,19.1,-8.8,14,2.25,124,5.2,303.8,311.0,304.2
873.4,1334,19.2,-8.4,15,2.33,125,5.2,303.9,311.4,304.3
872.9,1339,19.4,-8.0,15,2.39,125,5.2,304.1,311.8,304.6
872.4,1344,19.5,-8.0,15,2.39,126,5.2,304.3,312.0,304.7
871.9,1349,19.6,-8.2,14,2.36,127,5.1,304.4,312.0,304.8
871.4,1354,19.6,-8.4,14,2.32,127,5.1,304.5,312.0,305.0
870.9,1359,19.7,-8.4,14,2.32,127,5.1,304.7,312.1,305.1
870.3,1364,19.8,-8.2,14,2.36,127,5.0,304.8,312.4,305.2
869.8,1370,19.8,-8.1,14,2.39,127,5.0,304.9,312.6,305.3
869.3,1375,19.9,-7.9,15,2.42,127,4.9,305.0,312.8,305.4
868.7,1380,19.9,-7.8,15,2.45,126,4.8,305.1,313.0,305.6
868.2,1386,20.0,-7.6,15,2.48,126,4.8,305.2,313.2,305.6
867.6,1391,20.0,-7.5,15,2.51,125,4.7,305.3,313.3,305.7
867.1,1397,20.0,-7.2,15,2.56,124,4.6,305.3,313.5,305.8
866.5,1403,20.0,-6.7,16,2.68,123,4.4,305.4,314.0,305.9
865.9,1408,20.0,-6.1,17,2.81,122,4.3,305.5,314.4,306.0
865.3,1414,20.0,-5.9,17,2.84,121,4.2,305.5,314.6,306.0
864.8,1420,20.0,-6.1,17,2.79,119,4.1,305.6,314.5,306.1
864.2,1425,20.0,-6.4,16,2.75,118,3.9,305.6,314.4,306.1
863.7,1430,20.0,-6.5,16,2.72,116,3.8,305.7,314.4,306.2
863.2,1435,20.0,-6.6,16,2.69,114,3.6,305.7,314.3,306.2
862.7,1441,20.0,-6.8,16,2.67,113,3.5,305.7,314.3,306.2
862.1,1446,20.0,-6.9,16,2.63,110,3.4,305.8,314.3,306.3
861.6,1451,20.0,-7.0,15,2.62,108,3.2,305.9,314.3,306.4
861.0,1457,20.0,-7.1,15,2.61,106,3.1,305.9,314.3,306.4
860.5,1462,19.9,-7.1,15,2.60,103,3.0,305.9,314.3,306.4
859.9,1468,19.9,-7.2,15,2.58,100,2.8,305.9,314.2,306.4
859.3,1474,19.9,-7.3,15,2.56,97,2.7,306.0,314.2,306.4
858.8,1479,19.8,-7.5,15,2.54,94,2.6,306.0,314.2,306.5
858.2,1485,19.8,-7.7,15,2.50,91,2.6,306.1,314.1,306.5
857.7,1490,19.8,-7.9,15,2.46,87,2.5,306.1,314.0,306.6
857.2,1495,19.8,-8.1,14,2.43,84,2.4,306.2,314.0,306.6
856.7,1501,19.9,-8.2,14,2.40,80,2.4,306.2,314.0,306.7
856.2,1506,19.8,-8.3,14,2.38,76,2.4,306.3,314.0,306.7
855.7,1511,19.8,-8.5,14,2.35,73,2.3,306.3,313.9,306.7
855.2,1516,19.8,-8.8,14,2.30,69,2.3,306.3,313.8,306.8
854.6,1521,19.8,-9.0,13,2.27,66,2.4,306.4,313.8,306.8
854.1,1526,19.8,-9.1,13,2.25,62,2.4,306.5,313.8,306.9
853.6,1532,19.8,-9.1,13,2.25,59,2.4,306.5,313.8,306.9
853.0,1538,19.7,-9.1,13,2.26,56,2.5,306.5,313.8,306.9
852.3,1544,19.7,-9.1,13,2.26,53,2.6,306.5,313.8,306.9
851.7,1550,19.6,-9.1,14,2.26,51,2.7,306.5,313.8,306.9
851.0,1557,19.6,-9.1,14,2.25,48,2.8,306.5,313.8,306.9
850.4,1564,19.5,-9.1,14,2.25,46,2.8,306.5,313.8,306.9
850.0,1568,19.5,-9.2,14,2.24,46,2.8,306.5,313.8,306.9
849.7,1570,19.4,-9.2,14,2.24,44,2.9,306.5,313.8,306.9
849.1,1577,19.4,-9.3,13,2.22,42,3.1,306.5,313.8,307.0
848.5,1583,19.4,-9.5,13,2.20,41,3.2,306.6,313.7,307.0
847.9,1589,19.3,-9.5,13,2.19,39,3.3,306.6,313.7,307.0
847.3,1595,19.3,-9.5,13,2.19,38,3.4,306.6,313.8,307.0
846.8,1600,19.3,-9.6,13,2.19,37,3.5,306.6,313.8,307.0
846.2,1606,19.2,-9.7,13,2.17,35,3.6,306.7,313.7,307.1
845.7,1611,19.2,-9.8,13,2.16,34,3.7,306.7,313.8,307.1
845.2,1617,19.2,-9.8,13,2.15,33,3.8,306.8,313.8,307.2
844.6,1622,19.2,-9.8,13,2.15,32,3.9,306.8,313.8,307.2
844.1,1627,19.1,-9.9,13,2.14,31,4.0,306.8,313.8,307.2
843.6,1633,19.1,-9.9,13,2.14,30,4.1,306.8,313.8,307.2
843.1,1638,19.1,-9.9,13,2.13,29,4.2,306.8,313.8,307.2
842.5,1643,19.1,-10.0,13,2.12,28,4.3,306.9,313.8,307.3
842.0,1648,19.0,-10.1,13,2.11,27,4.4,306.9,313.8,307.3
841.5,1653,19.0,-10.2,13,2.10,27,4.5,306.9,313.8,307.3
841.1,1658,19.0,-10.3,13,2.08,26,4.5,306.9,313.7,307.3
840.6,1663,19.0,-10.3,13,2.07,25,4.6,307.0,313.8,307.4
840.1,1668,18.9,-10.4,13,2.07,24,4.7,307.0,313.8,307.4
839.6,1674,18.9,-10.4,13,2.07,23,4.8,307.0,313.8,307.4
839.1,1679,18.9,-10.4,13,2.06,23,4.8,307.0,313.8,307.4
838.5,1684,18.8,-10.4,13,2.06,22,4.9,307.1,313.8,307.4
838.0,1689,18.8,-10.5,13,2.06,21,5.0,307.1,313.8,307.5
837.5,1694,18.8,-10.5,13,2.05,21,5.0,307.1,313.8,307.5
837.0,1699,18.7,-10.6,13,2.04,20,5.1,307.1,313.8,307.5
836.5,1705,18.7,-10.6,13,2.04,19,5.2,307.1,313.8,307.5
836.0,1710,18.7,-10.7,13,2.03,19,5.3,307.1,313.8,307.5
835.5,1715,18.6,-10.7,13,2.03,18,5.3,307.2,313.8,307.5
835.0,1720,18.6,-10.7,13,2.03,18,5.4,307.2,313.8,307.5
834.5,1725,18.6,-10.7,13,2.04,17,5.5,307.2,313.8,307.6
834.0,1730,18.5,-10.7,13,2.03,17,5.5,307.2,313.8,307.6
833.5,1735,18.5,-10.8,13,2.02,16,5.6,307.2,313.8,307.6
833.0,1741,18.4,-10.8,13,2.01,16,5.7,307.2,313.8,307.6
832.5,1746,18.4,-10.9,13,2.00,15,5.7,307.2,313.8,307.6
832.0,1751,18.4,-10.9,13,2.00,15,5.8,307.2,313.8,307.6
831.5,1756,18.3,-10.9,13,2.00,14,5.9,307.3,313.8,307.6
831.0,1761,18.3,-10.9,13,2.00,14,5.9,307.3,313.8,307.7
830.5,1766,18.3,-10.9,13,2.00,13,6.0,307.3,313.8,307.7
830.0,1772,18.2,-11.0,13,2.00,13,6.1,307.3,313.8,307.7
829.5,1777,18.2,-11.0,13,1.99,12,6.1,307.3,313.8,307.7
829.0,1782,18.1,-11.0,13,1.99,12,6.2,307.3,313.8,307.7
828.4,1787,18.1,-11.1,13,1.98,11,6.2,307.3,313.8,307.7
827.9,1793,18.1,-11.1,13,1.98,11,6.3,307.3,313.8,307.7
827.4,1798,18.0,-11.2,13,1.97,10,6.3,307.4,313.8,307.7
826.9,1803,18.0,-11.2,13,1.96,10,6.3,307.4,313.8,307.8
826.4,1808,17.9,-11.2,13,1.96,9,6.3,307.4,313.8,307.8
825.9,1813,17.9,-11.3,13,1.95,9,6.4,307.4,313.8,307.8
825.4,1819,17.9,-11.3,13,1.95,8,6.4,307.4,313.8,307.8
824.9,1824,17.8,-11.4,13,1.95,8,6.4,307.4,313.8,307.8
824.4,1829,17.8,-11.4,13,1.95,7,6.4,307.4,313.8,307.8
823.9,1834,17.7,-11.4,13,1.94,7,6.3,307.4,313.8,307.8
823.4,1839,17.7,-11.4,13,1.94,7,6.3,307.5,313.8,307.8
822.9,1845,17.7,-11.5,13,1.93,6,6.3,307.5,313.8,307.8
822.4,1850,17.6,-11.5,13,1.92,6,6.3,307.5,313.8,307.8
821.9,1855,17.6,-11.6,13,1.92,6,6.2,307.5,313.8,307.9
821.4,1861,17.6,-11.7,12,1.91,5,6.2,307.5,313.8,307.9
820.8,1866,17.6,-11.8,12,1.90,5,6.1,307.6,313.8,307.9
820.3,1871,17.5,-11.8,12,1.89,5,6.0,307.6,313.8,308.0
819.8,1877,17.5,-11.8,12,1.89,4,5.9,307.7,313.9,308.0
819.3,1882,17.5,-11.9,12,1.88,4,5.9,307.7,313.9,308.0
818.8,1887,17.5,-11.9,12,1.88,4,5.8,307.7,313.9,308.1
