PRES,HGHT,TEMP,DWPT,RELH,MIXR,DRCT,SPED,THTA,THTE,THTV
1015.9,31,23.8,19.8,78,14.41,58,2.9,295.6,337.2,298.2
1015.0,39,24.4,20.0,76,14.66,49,1.8,296.3,338.7,298.9
1014.5,43,24.5,20.0,76,14.70,47,1.7,296.4,339.0,299.0
1013.9,48,24.5,20.0,76,14.68,47,1.8,296.5,339.0,299.1
1013.2,54,24.5,20.0,76,14.65,49,1.9,296.5,338.9,299.1
1012.5,60,24.4,19.9,76,14.56,51,2.1,296.5,338.7,299.1
1011.9,65,24.4,19.8,75,14.48,52,2.4,296.5,338.5,299.1
1011.3,71,24.3,19.7,75,14.43,54,2.5,296.5,338.3,299.1
1010.6,76,24.3,19.7,75,14.41,55,2.7,296.6,338.3,299.1
1009.9,82,24.2,19.7,76,14.46,56,2.9,296.6,338.4,299.1
1009.2,88,24.2,19.8,76,14.53,57,3.1,296.6,338.7,299.1
1008.5,95,24.1,19.8,77,14.54,57,3.2,296.6,338.7,299.1
1007.8,101,24.1,19.7,77,14.48,58,3.4,296.6,338.5,299.1
1007.1,107,24.0,19.6,76,14.39,59,3.5,296.6,338.3,299.1
1006.3,113,24.0,19.5,76,14.29,60,3.7,296.6,338.0,299.1
1005.6,120,23.9,19.4,76,14.21,60,3.8,296.6,337.8,299.1
1004.9,126,23.9,19.3,76,14.18,61,3.9,296.6,337.7,299.1
1004.1,133,23.8,19.4,76,14.22,61,4.1,296.6,337.8,299.1
1003.4,139,23.8,19.4,76,14.24,62,4.1,296.6,337.9,299.2
1002.6,146,23.7,19.4,77,14.24,62,4.2,296.6,337.9,299.2
1001.9,153,23.6,19.3,77,14.23,63,4.3,296.6,337.9,299.1
1001.1,159,23.6,19.3,77,14.25,63,4.4,296.6,337.9,299.2
1000.3,166,23.5,19.4,78,14.30,63,4.4,296.6,338.1,299.2
1000.0,169,23.5,19.4,78,14.33,63,4.4,296.6,338.1,299.2
999.6,173,23.4,19.4,78,14.35,63,4.4,296.6,338.2,299.2
998.8,179,23.4,19.4,78,14.35,64,4.5,296.6,338.2,299.2
998.0,186,23.3,19.4,79,14.35,64,4.5,296.6,338.2,299.2
997.3,193,23.3,19.4,79,14.32,64,4.5,296.6,338.1,299.2
996.5,199,23.2,19.3,79,14.29,65,4.5,296.6,338.1,299.2
995.8,206,23.1,19.3,79,14.26,65,4.5,296.6,338.0,299.2
995.0,213,23.1,19.2,79,14.23,65,4.4,296.6,337.9,299.2
994.3,219,23.0,19.1,79,14.17,65,4.4,296.6,337.7,299.2
993.5,226,22.9,19.1,79,14.14,65,4.4,296.6,337.6,299.1
992.8,232,22.9,19.1,79,14.15,65,4.4,296.6,337.7,299.1
992.1,239,22.8,19.1,80,14.18,65,4.3,296.6,337.7,299.2
991.3,245,22.7,19.1,80,14.19,65,4.3,296.6,337.8,299.2
990.6,251,22.7,19.1,80,14.19,65,4.2,296.6,337.8,299.2
989.9,258,22.6,19.1,81,14.22,65,4.2,296.6,337.9,299.2
989.2,264,22.6,19.1,81,14.25,65,4.2,296.6,338.0,299.2
988.5,270,22.5,19.1,81,14.24,65,4.1,296.6,337.9,299.2
987.8,276,22.5,19.1,81,14.24,65,4.1,296.6,337.9,299.2
987.1,282,22.4,19.1,82,14.28,65,4.0,296.7,338.1,299.2
986.4,289,22.4,19.1,82,14.29,65,4.0,296.7,338.1,299.2
985.7,295,22.3,19.1,82,14.24,65,4.0,296.6,337.9,299.2
985.0,301,22.2,19.0,82,14.17,65,3.9,296.6,337.7,299.2
984.4,307,22.2,19.0,82,14.18,65,3.9,296.6,337.8,299.2
983.7,313,22.1,19.0,83,14.21,65,3.9,296.6,337.8,299.2
983.0,319,22.0,19.0,83,14.23,64,3.8,296.6,337.9,299.2
982.3,325,22.0,19.0,83,14.25,64,3.8,296.6,338.0,299.2
981.7,331,21.9,19.1,84,14.28,64,3.8,296.6,338.0,299.2
981.0,337,21.9,19.0,84,14.28,64,3.7,296.6,338.0,299.2
980.3,343,21.8,19.0,84,14.25,64,3.7,296.6,337.9,299.2
979.6,349,21.7,19.0,84,14.24,64,3.7,296.6,337.9,299.2
979.0,355,21.7,19.0,85,14.23,63,3.7,296.6,337.8,299.1
978.3,360,21.6,18.9,85,14.19,63,3.6,296.6,337.7,299.1
977.7,366,21.6,18.9,85,14.16,63,3.6,296.6,337.7,299.1
977.1,372,21.5,18.9,85,14.16,63,3.6,296.6,337.7,299.1
976.4,377,21.5,18.9,85,14.19,63,3.6,296.6,337.8,299.2
975.8,383,21.4,18.9,86,14.22,63,3.5,296.6,337.8,299.1
975.2,388,21.4,18.9,86,14.22,63,3.5,296.6,337.8,299.1
974.6,394,21.3,18.9,86,14.22,63,3.5,296.6,337.8,299.2
974.0,399,21.2,18.9,86,14.23,63,3.5,296.6,337.8,299.1
973.3,405,21.2,18.8,86,14.20,63,3.5,296.6,337.8,299.1
972.7,410,21.1,18.8,86,14.17,63,3.5,296.6,337.7,299.1
972.1,416,21.1,18.8,87,14.19,63,3.5,296.6,337.7,299.1
971.4,422,21.0,18.8,87,14.22,63,3.5,296.6,337.8,299.1
970.8,428,21.0,18.8,88,14.24,63,3.5,296.6,337.9,299.2
970.1,434,20.9,18.8,88,14.26,63,3.5,296.6,337.9,299.2
969.4,440,20.9,18.8,88,14.26,64,3.5,296.6,337.9,299.2
968.7,446,20.8,18.8,88,14.24,64,3.6,296.6,337.9,299.1
968.0,452,20.7,18.8,89,14.22,64,3.6,296.6,337.8,299.1
967.3,459,20.7,18.8,89,14.24,64,3.6,296.6,337.9,299.2
966.6,465,20.6,18.8,89,14.29,64,3.7,296.6,338.0,299.2
965.9,472,20.6,18.8,90,14.32,64,3.7,296.6,338.1,299.2
965.1,478,20.5,18.8,90,14.28,64,3.8,296.6,338.0,299.2
964.4,485,20.4,18.7,90,14.21,64,3.8,296.6,337.8,299.1
963.7,491,20.3,18.6,90,14.15,64,3.9,296.6,337.6,299.1
962.9,498,20.3,18.6,90,14.14,64,3.9,296.6,337.6,299.1
962.2,505,20.2,18.6,90,14.16,64,4.0,296.6,337.6,299.1
961.4,511,20.1,18.6,91,14.21,64,4.0,296.6,337.8,299.1
960.7,518,20.1,18.7,92,14.25,64,4.1,296.6,337.9,299.1
960.0,525,20.0,18.7,92,14.29,64,4.1,296.6,338.0,299.1
959.2,531,19.9,18.7,93,14.30,65,4.2,296.6,338.0,299.1
958.5,538,19.9,18.7,93,14.32,65,4.3,296.6,338.1,299.1
957.8,544,19.8,18.7,93,14.33,65,4.3,296.6,338.1,299.1
957.1,550,19.7,18.7,94,14.35,65,4.3,296.6,338.1,299.1
956.5,556,19.7,18.7,94,14.35,65,4.4,296.6,338.1,299.1
955.8,562,19.6,18.7,94,14.31,65,4.4,296.6,338.0,299.1
955.1,568,19.6,18.6,94,14.26,65,4.4,296.6,337.9,299.1
954.5,574,19.5,18.6,94,14.24,65,4.5,296.6,337.8,299.1
953.8,580,19.5,18.6,95,14.28,65,4.5,296.6,338.0,299.1
953.1,587,19.4,18.6,95,14.33,65,4.5,296.6,338.1,299.2
952.4,593,19.4,18.7,96,14.35,65,4.5,296.6,338.2,299.2
951.7,599,19.3,18.6,96,14.33,65,4.5,296.6,338.1,299.1
951.0,606,19.2,18.6,96,14.28,66,4.5,296.6,338.0,299.1
950.3,612,19.2,18.5,96,14.25,66,4.5,296.6,337.9,299.1
949.7,618,19.1,18.5,96,14.24,66,4.5,296.6,337.8,299.1
949.0,624,19.1,18.5,96,14.23,66,4.5,296.6,337.8,299.1
948.4,629,19.0,18.5,97,14.23,66,4.5,296.6,337.8,299.1
947.8,635,19.0,18.5,97,14.25,66,4.4,296.6,337.9,299.1
947.2,641,18.9,18.5,97,14.27,66,4.4,296.6,337.9,299.1
946.5,646,18.8,18.5,98,14.28,66,4.4,296.6,338.0,299.2
945.9,652,18.8,18.5,98,14.30,66,4.4,296.6,338.0,299.2
945.3,658,18.7,18.5,99,14.32,66,4.4,296.6,338.1,299.2
944.7,663,18.7,18.5,99,14.34,67,4.4,296.6,338.1,299.2
944.0,669,18.6,18.5,99,14.33,67,4.5,296.6,338.1,299.2
943.4,675,18.6,18.4,99,14.30,67,4.5,296.6,338.1,299.2
942.8,681,18.5,18.4,99,14.27,67,4.5,296.6,338.0,299.2
942.1,687,18.5,18.4,99,14.27,67,4.5,296.7,338.0,299.2
941.5,693,18.5,18.4,99,14.26,67,4.6,296.7,338.0,299.2
940.8,699,18.4,18.4,100,14.26,67,4.6,296.7,338.0,299.2
940.1,705,18.4,18.3,100,14.26,67,4.7,296.7,338.1,299.3
939.5,711,18.4,18.3,100,14.24,68,4.7,296.7,338.0,299.3
938.8,717,18.3,18.3,100,14.21,68,4.8,296.8,338.0,299.3
938.2,723,18.3,18.2,99,14.14,68,4.9,296.8,337.8,299.3
937.6,728,18.3,18.1,99,14.11,68,4.9,296.8,337.7,299.3
937.0,734,18.2,18.1,99,14.11,68,5.0,296.9,337.8,299.4
936.3,740,18.2,18.1,99,14.12,69,5.1,296.9,337.9,299.4
935.7,745,18.2,18.1,100,14.14,69,5.2,296.9,337.9,299.4
935.1,751,18.2,18.1,100,14.14,69,5.2,296.9,338.0,299.5
934.5,756,18.1,18.1,100,14.13,70,5.3,297.0,338.0,299.5
933.9,762,18.1,18.1,100,14.10,70,5.4,297.0,337.9,299.5
933.3,767,18.1,18.0,100,14.06,70,5.5,297.0,337.8,299.5
932.8,773,18.1,18.0,99,14.05,71,5.5,297.1,337.8,299.6
932.2,778,18.1,18.0,99,14.04,71,5.6,297.1,337.9,299.6
931.7,783,18.0,17.9,99,14.01,72,5.6,297.1,337.8,299.6
931.2,787,18.0,17.9,99,13.98,72,5.7,297.2,337.8,299.6
930.7,792,18.0,17.9,99,13.97,73,5.7,297.2,337.7,299.7
930.1,797,18.0,17.8,99,13.96,73,5.8,297.2,337.8,299.7
929.6,801,17.9,17.8,99,13.93,73,5.8,297.2,337.7,299.7
929.1,806,17.9,17.7,99,13.82,74,5.8,297.2,337.4,299.7
928.6,811,17.8,17.4,97,13.57,74,5.8,297.2,336.7,299.6
928.1,815,17.7,16.7,94,12.99,75,5.9,297.1,334.8,299.4
927.6,820,17.4,15.8,90,12.26,75,5.9,296.9,332.5,299.1
927.1,825,17.3,15.4,88,11.92,76,5.9,296.8,331.5,298.9
926.6,830,17.3,15.3,88,11.91,76,5.9,296.9,331.5,299.0
926.1,834,17.4,15.4,88,11.98,77,5.9,296.9,331.8,299.1
925.6,839,17.4,15.5,89,12.04,77,5.9,297.0,332.0,299.1
925.1,844,17.3,15.5,89,12.08,77,5.9,297.0,332.1,299.2
925.0,844,17.3,15.5,89,12.08,78,5.9,297.0,332.1,299.2
924.6,848,17.3,15.5,89,12.08,78,5.9,297.0,332.2,299.2
924.1,853,17.3,15.5,89,12.07,78,5.9,297.1,332.2,299.2
923.6,857,17.3,15.5,89,12.07,78,5.9,297.1,332.2,299.2
923.1,861,17.3,15.5,89,12.07,78,5.9,297.1,332.3,299.3
922.7,866,17.3,15.5,89,12.06,79,5.9,297.2,332.3,299.3
922.2,871,17.3,15.5,89,12.08,79,5.9,297.2,332.4,299.4
921.6,875,17.2,15.5,90,12.11,79,5.9,297.2,332.5,299.4
921.1,880,17.2,15.6,90,12.15,79,5.9,297.2,332.6,299.4
920.6,885,17.1,15.6,91,12.20,79,5.9,297.2,332.7,299.4
920.0,891,17.1,15.6,91,12.22,79,6.0,297.2,332.8,299.4
919.4,896,17.0,15.6,91,12.18,79,6.0,297.2,332.7,299.4
918.8,902,17.0,15.4,91,12.08,79,6.0,297.2,332.4,299.4
918.2,907,17.0,15.3,90,11.96,79,6.0,297.3,332.1,299.4
917.6,913,16.9,15.1,89,11.86,79,6.1,297.3,331.9,299.4
917.1,918,16.9,15.0,89,11.77,79,6.1,297.3,331.6,299.4
916.5,923,16.9,14.9,88,11.70,79,6.1,297.3,331.4,299.4
916.0,928,16.8,14.9,88,11.70,79,6.2,297.3,331.4,299.4
915.5,932,16.8,15.0,89,11.77,79,6.2,297.3,331.6,299.4
915.0,937,16.7,15.0,90,11.80,79,6.2,297.3,331.7,299.4
914.5,941,16.7,15.0,90,11.78,79,6.3,297.3,331.7,299.4
914.1,946,16.6,14.9,90,11.77,79,6.3,297.3,331.6,299.4
913.6,951,16.6,15.0,90,11.78,79,6.4,297.3,331.7,299.4
913.1,955,16.5,14.8,90,11.68,79,6.4,297.3,331.4,299.4
912.6,960,16.6,14.5,87,11.46,78,6.5,297.5,330.9,299.5
912.1,965,16.7,14.6,87,11.53,78,6.5,297.6,331.3,299.7
911.6,969,16.7,15.1,90,11.91,78,6.6,297.6,332.3,299.7
911.1,974,16.5,15.5,94,12.24,78,6.6,297.4,333.1,299.6
910.6,978,16.3,15.7,96,12.39,77,6.6,297.3,333.4,299.5
910.1,983,16.2,15.7,97,12.39,77,6.7,297.2,333.3,299.4
909.6,988,16.1,15.5,96,12.27,77,6.7,297.2,332.9,299.4
909.0,993,16.1,15.2,94,12.02,76,6.8,297.3,332.2,299.4
908.5,998,16.2,14.7,91,11.66,76,6.8,297.4,331.4,299.5
907.9,1004,16.3,14.2,87,11.30,75,6.9,297.6,330.6,299.6
907.3,1009,16.4,13.9,85,11.09,75,6.9,297.7,330.2,299.7
906.8,1014,16.4,13.7,84,10.96,74,7.0,297.8,329.8,299.7
906.2,1020,16.3,13.7,84,10.96,74,7.0,297.8,329.8,299.7
905.7,1025,16.3,14.1,87,11.24,73,7.1,297.7,330.6,299.7
905.1,1030,16.2,14.8,91,11.76,73,7.1,297.7,332.0,299.8
904.6,1035,15.9,15.3,96,12.17,73,7.1,297.5,332.9,299.7
904.0,1040,15.7,15.5,98,12.31,72,7.2,297.3,333.2,299.5
903.5,1045,15.6,15.4,99,12.29,72,7.2,297.3,333.0,299.5
902.9,1050,15.6,15.3,98,12.23,71,7.2,297.3,332.9,299.5
902.4,1056,15.6,15.3,98,12.21,71,7.3,297.3,332.8,299.5
901.8,1061,15.5,15.3,98,12.18,71,7.3,297.3,332.8,299.5
901.2,1067,15.5,15.1,97,12.08,71,7.3,297.4,332.6,299.5
900.6,1072,15.5,14.8,96,11.87,70,7.3,297.4,332.0,299.5
900.0,1078,15.5,14.3,93,11.47,70,7.3,297.5,330.9,299.5
899.4,1084,15.6,13.6,88,10.98,70,7.3,297.6,329.7,299.6
898.8,1090,15.8,13.2,85,10.68,70,7.3,297.9,329.1,299.8
898.2,1096,15.9,13.2,84,10.64,70,7.3,298.0,329.2,300.0
897.5,1102,15.9,13.2,84,10.71,70,7.3,298.1,329.5,300.0
896.9,1108,15.8,13.3,85,10.76,70,7.3,298.1,329.6,300.0
896.2,1114,15.8,13.3,85,10.78,70,7.2,298.1,329.7,300.0
895.5,1121,15.7,13.3,86,10.78,70,7.2,298.1,329.7,300.0
894.9,1127,15.6,13.3,86,10.80,71,7.2,298.1,329.7,300.0
894.2,1133,15.6,13.3,87,10.82,71,7.1,298.1,329.8,300.0
893.6,1139,15.5,13.4,87,10.84,71,7.1,298.1,329.8,300.0
892.9,1145,15.4,13.4,88,10.86,71,7.1,298.1,329.9,300.0
892.3,1152,15.4,13.4,88,10.86,71,7.0,298.1,329.9,300.0
891.6,1158,15.4,13.4,88,10.87,71,7.0,298.1,329.9,300.1
890.9,1164,15.3,13.4,88,10.89,71,7.0,298.1,330.0,300.1
890.2,1171,15.2,13.3,88,10.88,72,7.0,298.1,330.0,300.1
889.6,1177,15.2,13.3,88,10.85,72,6.9,298.1,329.9,300.1
888.9,1184,15.1,13.2,88,10.82,72,6.9,298.1,329.8,300.1
888.2,1190,15.1,13.2,89,10.80,72,6.9,298.2,329.8,300.1
887.6,1196,15.0,13.2,89,10.81,72,6.9,298.2,329.8,300.1
887.0,1202,15.0,13.2,89,10.83,72,6.9,298.2,329.9,300.1
886.4,1208,15.0,13.3,89,10.87,72,6.9,298.2,330.1,300.2
885.8,1214,15.0,13.3,90,10.89,72,6.9,298.3,330.2,300.2
885.2,1219,14.9,13.3,90,10.89,72,6.9,298.3,330.2,300.2
884.6,1225,14.9,13.3,90,10.89,72,7.0,298.3,330.2,300.3
884.0,1231,14.8,13.2,90,10.88,71,7.0,298.3,330.2,300.3
883.3,1237,14.8,13.2,90,10.87,71,7.0,298.3,330.2,300.3
882.7,1243,14.7,13.2,90,10.86,71,7.1,298.3,330.2,300.3
882.1,1249,14.7,13.2,91,10.85,71,7.1,298.3,330.1,300.3
881.5,1255,14.6,13.1,91,10.83,71,7.1,298.3,330.1,300.3
880.9,1260,14.6,13.1,91,10.79,70,7.2,298.3,330.0,300.3
880.3,1266,14.5,13.0,91,10.76,70,7.2,298.3,329.9,300.3
879.7,1272,14.5,13.0,91,10.75,70,7.2,298.4,329.9,300.3
879.1,1277,14.4,13.0,91,10.78,69,7.3,298.4,330.0,300.3
878.6,1283,14.4,13.1,92,10.83,69,7.3,298.4,330.1,300.3
878.0,1289,14.3,13.1,92,10.88,68,7.3,298.4,330.3,300.3
877.4,1294,14.3,13.1,93,10.89,68,7.4,298.4,330.3,300.3
876.8,1300,14.2,13.1,93,10.87,68,7.4,298.4,330.3,300.3
876.2,1305,14.2,13.0,93,10.82,67,7.4,298.4,330.1,300.3
875.7,1311,14.2,12.9,92,10.76,67,7.4,298.4,330.0,300.4
875.1,1316,14.2,12.9,92,10.74,66,7.4,298.5,330.0,300.4
874.6,1321,14.1,12.9,92,10.76,66,7.4,298.5,330.1,300.4
874.0,1327,14.1,13.0,93,10.81,66,7.4,298.5,330.2,300.5
873.5,1332,14.1,13.0,94,10.86,65,7.4,298.5,330.4,300.5
872.9,1338,14.0,13.1,94,10.92,65,7.3,298.5,330.6,300.5
872.3,1343,14.0,13.1,95,10.94,64,7.3,298.5,330.7,300.5
871.8,1349,13.9,13.1,95,10.93,64,7.3,298.5,330.6,300.5
871.2,1354,13.9,13.0,95,10.88,64,7.3,298.6,330.5,300.5
870.7,1359,13.8,12.9,94,10.79,64,7.2,298.6,330.2,300.5
870.1,1364,13.8,12.7,93,10.70,63,7.2,298.6,330.0,300.6
869.6,1370,13.8,12.6,92,10.61,63,7.2,298.7,329.8,300.6
869.1,1375,13.8,12.5,92,10.54,63,7.1,298.7,329.7,300.6
868.6,1380,13.8,12.4,91,10.49,63,7.1,298.8,329.6,300.7
868.1,1385,13.8,12.3,91,10.44,63,7.0,298.8,329.5,300.7
867.6,1390,13.8,12.3,90,10.41,63,7.0,298.9,329.5,300.7
867.0,1395,13.8,12.2,90,10.38,63,7.0,298.9,329.5,300.8
866.5,1400,13.8,12.2,90,10.39,63,7.0,298.9,329.5,300.8
866.0,1405,13.8,12.3,91,10.41,63,6.9,298.9,329.6,300.8
865.5,1410,13.7,12.2,91,10.40,63,6.9,298.9,329.5,300.8
864.9,1415,13.7,12.2,91,10.38,63,6.9,299.0,329.5,300.8
864.4,1421,13.6,12.1,91,10.34,63,6.9,299.0,329.4,300.8
863.8,1426,13.6,12.1,91,10.30,63,6.9,299.0,329.3,300.8
863.3,1431,13.6,12.0,90,10.28,63,6.9,299.0,329.2,300.8
862.7,1437,13.5,12.0,91,10.28,63,6.9,299.0,329.3,300.9
862.1,1443,13.5,12.0,91,10.29,63,6.9,299.0,329.3,300.9
861.5,1449,13.4,12.0,91,10.27,64,7.0,299.1,329.3,300.9
860.9,1455,13.4,11.9,91,10.24,64,7.0,299.1,329.2,300.9
860.3,1460,13.4,11.8,90,10.19,64,7.0,299.1,329.1,301.0
859.7,1466,13.4,11.7,90,10.10,64,7.1,299.2,328.9,301.0
859.1,1472,13.3,11.5,89,10.00,64,7.1,299.2,328.7,301.0
858.5,1478,13.3,11.4,88,9.93,64,7.1,299.2,328.5,301.0
857.9,1484,13.3,11.3,88,9.88,64,7.2,299.3,328.4,301.0
857.3,1490,13.3,11.3,88,9.88,64,7.2,299.3,328.4,301.1
856.8,1495,13.2,11.4,88,9.91,64,7.3,299.3,328.5,301.1
856.2,1501,13.2,11.4,89,9.94,64,7.3,299.3,328.6,301.1
855.7,1506,13.1,11.4,89,9.95,64,7.4,299.3,328.7,301.1
855.2,1511,13.1,11.4,89,9.95,64,7.5,299.3,328.7,301.1
854.7,1516,13.1,11.4,89,9.93,64,7.5,299.3,328.6,301.1
854.1,1521,13.0,11.3,89,9.91,64,7.6,299.4,328.6,301.2
853.6,1527,13.0,11.3,89,9.87,64,7.6,299.4,328.5,301.2
853.0,1532,13.0,11.2,89,9.83,63,7.6,299.4,328.5,301.2
852.5,1538,13.0,11.1,88,9.75,63,7.7,299.5,328.3,301.2
851.9,1543,12.9,10.9,87,9.66,63,7.7,299.5,328.0,301.2
851.3,1549,12.9,10.7,86,9.54,63,7.8,299.5,327.7,301.3
850.8,1554,12.9,10.6,86,9.45,63,7.8,299.6,327.5,301.3
850.2,1560,12.9,10.5,85,9.41,63,7.8,299.6,327.4,301.3
850.0,1562,12.9,10.5,85,9.41,63,7.8,299.6,327.5,301.3
849.7,1565,12.9,10.5,86,9.42,63,7.8,299.6,327.5,301.3
849.1,1571,12.8,10.5,86,9.44,63,7.8,299.6,327.6,301.3
848.6,1576,12.8,10.5,86,9.47,63,7.8,299.6,327.6,301.3
848.0,1582,12.7,10.6,87,9.48,63,7.8,299.6,327.7,301.3
847.5,1587,12.7,10.6,87,9.49,63,7.8,299.6,327.7,301.4
847.0,1592,12.6,10.6,88,9.54,63,7.8,299.7,327.9,301.4
846.4,1598,12.6,10.7,88,9.61,63,7.7,299.7,328.1,301.4
845.9,1603,12.5,10.8,89,9.65,63,7.7,299.7,328.2,301.4
845.3,1608,12.5,10.8,90,9.70,62,7.7,299.7,328.3,301.4
844.8,1614,12.4,10.9,90,9.74,62,7.6,299.7,328.5,301.4
844.2,1619,12.4,10.9,91,9.76,62,7.6,299.7,328.5,301.4
843.7,1625,12.3,10.9,91,9.74,62,7.5,299.7,328.5,301.4
843.1,1630,12.3,10.8,91,9.71,62,7.4,299.7,328.4,301.4
842.6,1636,12.3,10.7,90,9.66,62,7.4,299.7,328.3,301.5
842.1,1641,12.3,10.7,90,9.62,62,7.3,299.8,328.2,301.5
841.5,1646,12.3,10.6,90,9.58,61,7.2,299.8,328.2,301.6
841.0,1652,12.2,10.5,89,9.53,61,7.2,299.9,328.1,301.6
840.5,1657,12.2,10.4,89,9.49,61,7.1,299.9,328.0,301.6
839.9,1662,12.2,10.3,88,9.42,61,7.0,299.9,327.8,301.6
839.4,1668,12.2,10.2,88,9.37,61,7.0,300.0,327.7,301.6
838.9,1673,12.1,10.2,88,9.33,61,6.9,300.0,327.6,301.7
838.3,1678,12.1,10.1,88,9.33,60,6.9,300.0,327.6,301.7
837.8,1683,12.1,10.1,88,9.33,60,6.8,300.0,327.7,301.7
837.3,1688,12.0,10.2,88,9.35,60,6.8,300.0,327.7,301.7
836.9,1693,12.0,10.2,89,9.37,60,6.8,300.0,327.8,301.7
836.4,1698,11.9,10.2,89,9.39,60,6.8,300.0,327.8,301.7
835.9,1703,11.9,10.2,90,9.40,60,6.8,300.0,327.9,301.7
835.3,1708,11.8,10.2,90,9.41,60,6.8,300.0,327.9,301.7
834.8,1714,11.8,10.2,90,9.41,59,6.8,300.0,327.9,301.7
834.2,1719,11.8,10.2,90,9.41,59,6.8,300.0,327.9,301.7
833.7,1725,11.7,10.2,90,9.41,59,6.8,300.0,327.9,301.7
833.1,1731,11.6,10.1,90,9.37,59,6.9,300.0,327.8,301.7
832.5,1737,11.6,10.0,90,9.33,59,6.9,300.1,327.7,301.7
832.0,1742,11.6,10.0,90,9.30,59,6.9,300.1,327.7,301.8
831.4,1748,11.5,10.0,90,9.33,59,7.0,300.1,327.8,301.8
830.9,1753,11.5,10.1,91,9.39,59,7.0,300.1,327.9,301.8
830.4,1758,11.5,10.2,92,9.44,59,7.1,300.1,328.1,301.8
829.9,1763,11.4,10.2,92,9.46,59,7.2,300.1,328.2,301.8
829.4,1768,11.4,10.1,92,9.43,59,7.2,300.1,328.1,301.8
828.9,1774,11.4,10.1,92,9.40,59,7.3,300.2,328.0,301.9
828.3,1779,11.3,10.0,92,9.38,59,7.3,300.2,328.0,301.9
827.8,1784,11.3,10.0,92,9.35,59,7.4,300.2,328.0,301.9
827.3,1789,11.3,9.9,91,9.29,59,7.4,300.3,327.8,301.9
826.8,1794,11.2,9.8,91,9.23,59,7.5,300.3,327.7,301.9
826.4,1799,11.2,9.7,91,9.20,59,7.5,300.3,327.6,301.9
825.9,1804,11.2,9.7,91,9.18,59,7.5,300.3,327.6,302.0
825.4,1808,11.1,9.7,91,9.18,59,7.5,300.3,327.6,302.0
824.9,1813,11.1,9.7,91,9.17,59,7.5,300.3,327.6,302.0
824.5,1818,11.1,9.6,91,9.16,60,7.5,300.3,327.5,302.0
824.0,1823,11.0,9.6,91,9.15,60,7.5,300.3,327.5,302.0
823.5,1828,11.0,9.6,91,9.13,60,7.5,300.3,327.5,302.0
823.0,1833,10.9,9.5,91,9.12,60,7.5,300.3,327.4,302.0
822.5,1838,10.9,9.5,91,9.11,61,7.5,300.4,327.4,302.0
822.1,1843,10.9,9.5,91,9.10,61,7.5,300.4,327.4,302.0
821.6,1847,10.9,9.5,91,9.10,61,7.4,300.4,327.4,302.1
821.1,1852,10.9,9.5,91,9.11,62,7.4,300.5,327.6,302.1
820.7,1856,10.9,9.5,91,9.14,62,7.3,300.5,327.6,302.1
820.2,1861,10.8,9.5,92,9.16,62,7.3,300.5,327.7,302.2
819.8,1866,10.8,9.5,92,9.15,63,7.3,300.5,327.7,302.2
819.4,1870,10.7,9.5,92,9.13,63,7.2,300.5,327.6,302.1
818.9,1875,10.7,9.5,92,9.13,63,7.1,300.5,327.6,302.2
818.4,1879,10.7,9.5,92,9.13,63,7.1,300.5,327.7,302.2
818.0,1884,10.6,9.5,93,9.14,64,7.0,300.5,327.7,302.2
817.5,1889,10.6,9.5,93,9.15,64,7.0,300.5,327.7,302.2
817.0,1894,10.5,9.5,93,9.15,64,6.9,300.6,327.7,302.2
816.5,1899,10.5,9.4,93,9.14,64,6.9,300.6,327.7,302.2
816.0,1904,10.5,9.4,93,9.10,63,6.8,300.6,327.6,302.2
815.5,1909,10.4,9.3,93,9.05,63,6.7,300.6,327.5,302.2
815.0,1915,10.4,9.2,93,9.02,63,6.7,300.6,327.4,302.2
814.5,1920,10.3,9.2,93,9.00,62,6.6,300.6,327.4,302.2
814.0,1925,10.3,9.1,92,8.98,62,6.5,300.6,327.3,302.3
813.5,1930,10.3,9.1,92,8.95,61,6.5,300.6,327.3,302.3
813.1,1934,10.3,9.0,92,8.90,61,6.4,300.7,327.2,302.3
812.6,1939,10.3,8.9,92,8.87,60,6.4,300.7,327.1,302.3
812.1,1944,10.2,8.9,92,8.86,59,6.3,300.7,327.1,302.3
811.6,1949,10.2,8.9,92,8.85,58,6.2,300.8,327.1,302.4
811.1,1954,10.2,8.9,92,8.85,57,6.2,300.8,327.1,302.4
810.6,1960,10.1,8.9,92,8.86,56,6.1,300.8,327.2,302.4
810.1,1965,10.1,8.9,92,8.89,55,6.1,300.8,327.3,302.4
809.6,1970,10.0,9.0,93,8.91,54,6.1,300.8,327.3,302.4
809.1,1975,10.0,9.0,93,8.92,53,6.1,300.8,327.3,302.4
808.6,1981,9.9,8.9,94,8.92,52,6.0,300.8,327.3,302.4
808.0,1986,9.9,8.9,94,8.89,51,6.0,300.8,327.3,302.4
807.5,1991,9.8,8.8,93,8.86,50,6.0,300.8,327.2,302.4
807.0,1997,9.8,8.7,93,8.81,49,6.0,300.8,327.1,302.4
806.5,2002,9.8,8.6,92,8.75,48,6.0,300.9,327.0,302.5
805.9,2008,9.8,8.5,91,8.67,48,6.0,301.0,326.8,302.5
805.4,2013,9.8,8.4,91,8.63,47,6.1,301.0,326.7,302.6
804.8,2019,9.8,8.3,90,8.58,46,6.1,301.1,326.7,302.6
804.3,2025,9.8,8.2,90,8.54,45,6.1,301.2,326.7,302.7
803.7,2030,9.9,8.2,89,8.50,44,6.2,301.2,326.6,302.8
803.2,2036,9.9,8.1,89,8.45,44,6.2,301.3,326.5,302.8
802.7,2041,9.8,8.0,88,8.41,43,6.2,301.3,326.4,302.8
802.2,2047,9.8,8.0,88,8.40,42,6.3,301.3,326.4,302.9
801.6,2052,9.8,7.9,88,8.39,41,6.3,301.4,326.5,302.9
