PRES,HGHT,TEMP,DWPT,RELH,MIXR,DRCT,SPED,THTA,THTE,THTV
1015.6,31,22.8,21.1,90,15.68,71,5.0,294.6,339.7,297.4
1014.9,37,22.9,21.0,89,15.62,69,5.0,294.8,339.7,297.6
1014.2,42,22.9,21.0,89,15.59,69,5.3,294.8,339.7,297.6
1013.8,46,22.8,21.0,89,15.60,69,5.7,294.8,339.7,297.6
1013.0,53,22.8,21.0,89,15.62,69,6.1,294.9,339.7,297.6
1012.3,59,22.7,20.8,89,15.46,69,6.5,294.9,339.3,297.6
1011.7,64,22.7,20.6,88,15.23,68,6.9,294.8,338.6,297.5
1011.1,70,22.6,20.3,87,14.98,68,7.3,294.8,337.9,297.5
1010.4,75,22.5,20.1,86,14.83,69,7.6,294.8,337.4,297.4
1009.8,81,22.5,20.1,86,14.83,69,8.0,294.8,337.4,297.4
1009.1,87,22.4,20.1,87,14.86,69,8.3,294.8,337.5,297.4
1008.5,92,22.4,20.1,87,14.89,69,8.6,294.8,337.6,297.5
1007.8,98,22.3,20.2,87,14.92,69,8.9,294.8,337.7,297.5
1007.1,104,22.3,20.1,88,14.91,69,9.2,294.8,337.7,297.5
1006.5,109,22.2,20.1,88,14.89,69,9.4,294.8,337.6,297.5
1005.9,115,22.2,20.1,88,14.85,69,9.6,294.9,337.6,297.5
1005.2,120,22.1,20.0,88,14.83,69,9.8,294.9,337.5,297.5
1004.6,126,22.1,20.1,88,14.86,69,10.0,294.8,337.5,297.5
1004.0,131,22.0,20.1,89,14.90,69,10.2,294.8,337.7,297.5
1003.4,136,22.0,20.1,89,14.91,69,10.3,294.8,337.7,297.5
1002.8,142,21.9,20.1,89,14.90,69,10.4,294.8,337.6,297.4
1002.1,147,21.9,20.0,89,14.89,69,10.5,294.9,337.7,297.5
1001.5,152,21.9,20.1,89,14.91,69,10.5,294.9,337.8,297.6
1000.9,158,21.9,20.1,90,14.94,69,10.6,295.0,337.9,297.6
1000.2,163,21.8,20.1,90,14.97,70,10.6,295.0,338.0,297.6
1000.0,166,21.8,20.1,90,14.98,70,10.7,295.0,338.0,297.6
999.6,169,21.8,20.1,90,14.99,70,10.7,295.0,338.1,297.6
999.0,174,21.7,20.1,91,15.02,70,10.7,295.0,338.2,297.6
998.4,180,21.7,20.1,91,15.04,70,10.7,295.0,338.2,297.6
997.8,185,21.6,20.1,91,15.03,70,10.6,295.0,338.2,297.6
997.2,190,21.6,20.1,91,15.00,70,10.6,294.9,338.1,297.6
996.6,195,21.5,20.1,92,15.01,70,10.6,295.0,338.1,297.6
996.0,200,21.5,20.1,92,15.00,70,10.5,295.0,338.1,297.6
995.5,205,21.4,20.0,92,14.95,70,10.5,294.9,337.9,297.6
994.9,210,21.4,20.0,92,14.91,70,10.5,294.9,337.8,297.6
994.4,215,21.3,20.0,92,14.93,70,10.4,294.9,337.9,297.6
993.8,219,21.3,20.0,92,14.95,70,10.4,295.0,337.9,297.6
993.3,224,21.2,20.0,93,14.99,71,10.3,295.0,338.0,297.6
992.7,229,21.2,20.0,93,15.01,71,10.3,295.0,338.1,297.6
992.1,235,21.1,20.0,93,15.02,71,10.2,295.0,338.2,297.6
991.5,240,21.1,20.0,93,14.98,71,10.2,295.0,338.1,297.6
990.9,245,21.1,19.9,93,14.97,71,10.1,295.0,338.0,297.6
990.3,251,21.0,19.9,94,14.97,71,10.1,295.0,338.0,297.6
989.7,256,20.9,19.9,94,14.97,70,10.1,294.9,338.0,297.6
989.0,261,20.9,19.9,94,14.98,70,10.0,295.0,338.0,297.6
988.4,267,20.8,19.9,95,14.99,70,10.0,295.0,338.1,297.6
987.8,272,20.8,19.9,95,14.99,70,10.0,295.0,338.1,297.6
987.2,278,20.7,19.9,95,14.98,70,9.9,295.0,338.1,297.6
986.6,283,20.7,19.9,95,14.96,70,9.9,295.0,338.0,297.6
986.0,288,20.7,19.9,95,14.96,70,9.9,295.0,338.0,297.7
985.4,294,20.6,19.8,95,14.95,70,9.8,295.0,338.0,297.7
984.7,299,20.6,19.8,95,14.91,70,9.8,295.0,337.9,297.7
984.1,305,20.6,19.8,95,14.92,70,9.8,295.1,338.0,297.7
983.4,311,20.5,19.8,96,14.95,70,9.8,295.1,338.1,297.7
982.7,317,20.4,19.8,96,14.99,70,9.7,295.0,338.2,297.7
982.0,323,20.3,19.8,97,15.00,70,9.7,295.0,338.1,297.7
981.4,329,20.3,19.8,97,15.02,70,9.7,295.0,338.2,297.7
980.8,334,20.2,19.8,98,15.00,70,9.6,295.0,338.1,297.6
980.1,340,20.1,19.8,98,14.95,70,9.6,295.0,338.0,297.6
979.5,345,20.1,19.7,98,14.95,70,9.6,295.0,338.0,297.6
979.0,350,20.1,19.8,98,14.99,71,9.5,295.0,338.1,297.7
978.4,356,20.1,19.8,98,15.01,71,9.5,295.0,338.2,297.7
977.7,361,20.0,19.8,98,15.01,71,9.4,295.1,338.3,297.7
977.1,367,20.0,19.7,98,14.99,71,9.4,295.1,338.2,297.8
976.4,373,20.0,19.7,98,14.93,72,9.4,295.1,338.1,297.7
975.7,379,19.9,19.6,98,14.90,72,9.3,295.1,338.0,297.7
975.0,385,19.8,19.6,99,14.88,72,9.3,295.1,337.9,297.7
974.3,391,19.8,19.6,99,14.88,72,9.3,295.1,337.9,297.7
973.6,397,19.7,19.6,99,14.90,73,9.3,295.1,338.0,297.7
973.0,403,19.7,19.6,100,14.90,73,9.2,295.1,338.0,297.7
972.3,409,19.6,19.6,100,14.89,73,9.2,295.1,338.0,297.8
971.7,415,19.6,19.5,100,14.88,74,9.2,295.1,337.9,297.8
971.1,421,19.5,19.5,100,14.88,74,9.2,295.2,338.0,297.8
970.4,426,19.5,19.5,100,14.87,74,9.2,295.2,338.0,297.8
969.9,431,19.5,19.5,100,14.88,74,9.2,295.2,338.1,297.9
969.3,436,19.5,19.5,100,14.84,74,9.2,295.3,338.0,297.9
968.7,441,19.5,19.4,99,14.80,75,9.2,295.3,337.9,297.9
968.1,447,19.5,19.4,100,14.85,75,9.2,295.4,338.2,298.0
967.5,452,19.5,19.4,100,14.85,75,9.2,295.4,338.2,298.1
966.9,458,19.5,19.4,100,14.87,75,9.2,295.5,338.3,298.1
966.2,463,19.5,19.5,100,14.92,74,9.2,295.5,338.6,298.2
965.6,469,19.5,19.5,100,14.94,74,9.2,295.6,338.7,298.2
964.9,475,19.5,19.5,100,14.96,74,9.3,295.7,338.8,298.3
964.2,482,19.5,19.5,100,14.93,74,9.3,295.7,338.8,298.3
963.5,488,19.4,19.3,100,14.82,74,9.3,295.7,338.4,298.3
962.8,494,19.4,19.3,99,14.79,73,9.3,295.7,338.4,298.3
962.1,501,19.4,19.2,99,14.71,73,9.3,295.7,338.2,298.4
961.4,507,19.2,19.0,99,14.52,72,9.3,295.7,337.6,298.2
960.7,513,19.1,18.9,99,14.48,72,9.4,295.6,337.4,298.2
960.0,520,19.2,19.2,100,14.74,71,9.4,295.8,338.3,298.4
959.3,526,19.3,19.3,100,14.81,71,9.4,295.9,338.6,298.5
958.6,532,19.2,19.1,100,14.71,70,9.4,295.9,338.4,298.5
957.9,538,19.2,19.1,99,14.67,69,9.4,296.0,338.3,298.6
957.3,543,19.2,19.1,99,14.65,69,9.4,296.0,338.3,298.6
956.7,549,19.2,19.0,99,14.61,68,9.4,296.0,338.2,298.6
956.2,554,19.0,18.8,99,14.47,67,9.4,295.9,337.7,298.5
955.6,559,18.9,18.5,98,14.20,67,9.5,295.8,336.8,298.3
955.1,564,18.7,18.1,96,13.82,66,9.5,295.7,335.6,298.2
954.6,568,18.7,17.8,95,13.59,65,9.5,295.8,335.0,298.2
954.0,573,18.7,17.8,95,13.59,65,9.5,295.8,335.1,298.2
953.5,578,18.7,17.8,95,13.61,64,9.5,295.8,335.1,298.2
953.0,583,18.6,17.8,95,13.60,63,9.5,295.8,335.1,298.2
952.4,588,18.6,17.8,95,13.57,63,9.6,295.9,335.1,298.3
951.9,592,18.6,17.8,95,13.59,62,9.6,295.9,335.2,298.3
951.4,597,18.6,17.9,96,13.66,62,9.6,295.9,335.4,298.3
950.9,602,18.5,17.9,96,13.73,62,9.6,295.9,335.5,298.3
950.4,606,18.4,17.9,97,13.73,61,9.7,295.9,335.5,298.3
949.9,611,18.4,17.9,97,13.69,61,9.7,295.9,335.4,298.3
949.4,615,18.4,17.8,96,13.63,61,9.7,295.9,335.3,298.3
948.9,619,18.3,17.7,96,13.57,61,9.7,295.9,335.1,298.3
948.5,623,18.3,17.7,96,13.55,61,9.8,295.9,335.1,298.3
948.0,628,18.3,17.7,96,13.55,61,9.8,295.9,335.1,298.3
947.5,632,18.2,17.7,96,13.53,61,9.8,295.9,335.0,298.3
947.1,636,18.2,17.6,96,13.47,61,9.9,295.9,334.9,298.3
946.6,641,18.2,17.5,96,13.43,61,9.9,296.0,334.8,298.3
946.1,645,18.2,17.5,96,13.43,61,9.9,296.0,334.8,298.4
945.5,650,18.2,17.5,96,13.43,62,9.9,296.0,334.9,298.4
945.0,655,18.2,17.5,96,13.42,62,9.9,296.1,334.9,298.4
944.5,660,18.1,17.4,96,13.38,62,9.9,296.1,334.8,298.5
944.0,664,18.1,17.4,96,13.37,63,10.0,296.1,334.8,298.5
943.5,669,18.1,17.4,96,13.38,63,10.0,296.1,334.8,298.5
943.0,674,18.0,17.4,96,13.40,63,10.0,296.1,334.9,298.5
942.4,678,18.0,17.4,96,13.42,64,10.0,296.2,335.0,298.5
941.9,683,18.0,17.4,96,13.42,64,10.0,296.2,335.0,298.6
941.4,688,18.0,17.4,96,13.40,64,10.0,296.2,335.0,298.6
940.8,693,18.0,17.3,96,13.34,65,10.0,296.2,334.9,298.6
940.3,698,17.9,17.2,96,13.28,65,10.0,296.3,334.7,298.6
939.7,703,17.9,17.2,96,13.23,65,10.0,296.3,334.6,298.6
939.1,709,17.8,17.1,96,13.20,65,10.0,296.2,334.4,298.6
938.6,714,17.8,17.1,95,13.14,65,10.0,296.3,334.3,298.6
938.0,719,17.8,17.0,95,13.08,65,10.0,296.3,334.2,298.6
937.5,724,17.8,16.9,95,13.04,66,10.0,296.3,334.1,298.6
936.9,729,17.7,16.9,95,13.04,65,10.0,296.4,334.1,298.7
936.4,734,17.7,16.9,95,13.06,65,10.0,296.4,334.2,298.7
935.8,739,17.7,16.9,96,13.09,65,10.1,296.4,334.3,298.7
935.2,744,17.6,16.9,96,13.08,65,10.1,296.4,334.3,298.7
934.7,749,17.6,16.8,95,13.00,65,10.1,296.4,334.1,298.7
934.1,754,17.6,16.6,94,12.86,65,10.1,296.5,333.8,298.8
933.6,759,17.6,16.4,92,12.66,64,10.1,296.6,333.3,298.8
933.1,764,17.7,16.2,91,12.53,64,10.2,296.6,333.0,298.8
932.5,769,17.7,16.2,91,12.51,64,10.2,296.7,333.0,298.9
932.0,774,17.6,16.2,91,12.51,64,10.2,296.7,333.0,298.9
931.5,779,17.7,16.2,91,12.55,63,10.2,296.8,333.2,299.0
931.0,783,17.7,16.2,91,12.57,63,10.2,296.8,333.3,299.1
930.4,788,17.7,16.2,91,12.56,63,10.3,296.9,333.4,299.1
929.9,793,17.7,16.2,91,12.55,62,10.3,296.9,333.4,299.1
929.4,798,17.6,16.2,91,12.56,62,10.3,296.9,333.4,299.2
928.8,803,17.6,16.2,92,12.60,62,10.3,296.9,333.5,299.2
928.2,809,17.6,16.3,92,12.66,62,10.3,297.0,333.8,299.2
927.7,814,17.5,16.4,93,12.74,62,10.3,296.9,334.0,299.2
927.1,819,17.4,16.4,94,12.79,61,10.3,296.9,334.1,299.2
926.5,824,17.3,16.4,94,12.80,61,10.3,296.9,334.1,299.2
926.0,830,17.3,16.4,94,12.78,61,10.3,296.9,334.0,299.2
925.4,834,17.3,16.4,94,12.76,61,10.3,296.9,334.0,299.2
925.0,839,17.3,16.3,94,12.74,61,10.3,297.0,334.0,299.2
924.9,839,17.3,16.3,94,12.74,61,10.2,297.0,334.0,299.2
924.4,844,17.2,16.3,94,12.70,61,10.2,297.0,333.9,299.2
923.9,849,17.2,16.2,94,12.62,60,10.2,297.0,333.7,299.2
923.4,854,17.2,16.1,93,12.58,60,10.1,297.0,333.6,299.3
922.8,859,17.2,16.1,93,12.59,60,10.1,297.1,333.7,299.3
922.3,864,17.2,16.1,94,12.61,60,10.1,297.1,333.8,299.3
921.7,869,17.1,16.2,94,12.63,60,10.0,297.1,333.8,299.4
921.2,874,17.1,16.1,94,12.62,60,10.0,297.1,333.8,299.3
920.6,879,17.0,16.1,94,12.60,60,9.9,297.1,333.7,299.4
920.1,884,17.0,16.1,94,12.59,60,9.9,297.1,333.8,299.4
919.6,889,16.9,16.1,95,12.61,60,9.9,297.1,333.8,299.4
919.0,894,16.9,16.1,95,12.61,60,9.8,297.1,333.8,299.4
918.5,899,16.9,16.1,95,12.59,59,9.8,297.2,333.8,299.4
918.0,904,16.9,16.0,95,12.59,59,9.7,297.2,333.8,299.4
917.4,909,16.8,16.0,95,12.58,59,9.7,297.2,333.8,299.4
916.8,915,16.7,16.0,95,12.54,59,9.7,297.2,333.6,299.4
916.2,920,16.7,15.8,94,12.44,59,9.7,297.2,333.4,299.4
915.6,926,16.7,15.7,94,12.34,59,9.7,297.3,333.2,299.5
915.0,932,16.8,15.5,93,12.23,59,9.6,297.4,333.0,299.5
914.4,937,16.8,15.4,92,12.14,59,9.6,297.4,332.8,299.6
913.8,943,16.8,15.4,92,12.11,59,9.6,297.5,332.8,299.6
913.2,949,16.7,15.4,92,12.10,59,9.6,297.5,332.8,299.7
912.6,954,16.7,15.3,92,12.09,59,9.6,297.5,332.8,299.7
912.0,960,16.6,15.3,92,12.09,59,9.6,297.5,332.8,299.7
911.4,965,16.6,15.3,92,12.09,59,9.7,297.5,332.8,299.7
910.9,970,16.6,15.3,92,12.08,60,9.7,297.5,332.7,299.7
910.3,975,16.5,15.2,92,12.05,60,9.7,297.6,332.7,299.7
909.8,980,16.5,15.2,92,12.01,60,9.7,297.6,332.6,299.7
909.3,985,16.5,15.2,92,12.00,60,9.8,297.6,332.6,299.7
908.7,990,16.4,15.2,92,12.00,60,9.8,297.6,332.6,299.7
908.2,995,16.4,15.1,92,12.00,60,9.8,297.6,332.6,299.8
907.7,1000,16.4,15.1,92,11.98,60,9.9,297.6,332.6,299.8
907.2,1005,16.3,15.1,92,11.95,61,9.9,297.6,332.5,299.8
906.7,1009,16.3,15.0,92,11.94,61,9.9,297.6,332.5,299.8
906.3,1014,16.2,15.0,93,11.94,61,9.9,297.6,332.5,299.8
905.8,1018,16.2,15.0,93,11.96,61,10.0,297.7,332.5,299.8
905.3,1023,16.2,15.1,93,11.97,61,10.0,297.7,332.6,299.8
904.8,1027,16.2,15.1,93,11.99,62,10.0,297.7,332.7,299.8
904.4,1032,16.1,15.1,94,12.00,62,10.0,297.7,332.7,299.8
903.9,1036,16.1,15.1,94,12.01,62,10.0,297.7,332.8,299.9
903.4,1040,16.1,15.1,94,12.00,62,10.0,297.7,332.8,299.9
903.0,1044,16.0,15.0,94,11.98,62,10.0,297.7,332.7,299.9
902.6,1048,16.0,15.0,94,11.95,63,10.0,297.8,332.6,299.9
902.2,1052,16.0,14.9,94,11.93,63,10.0,297.7,332.6,299.9
901.8,1056,16.0,14.9,94,11.93,63,10.0,297.8,332.6,299.9
901.4,1060,16.0,15.0,94,11.99,63,10.0,297.8,332.8,299.9
901.0,1064,15.9,15.1,95,12.04,63,10.0,297.8,333.0,300.0
900.5,1068,15.9,15.1,95,12.04,64,10.0,297.8,332.9,300.0
900.1,1072,15.8,15.0,95,12.03,64,9.9,297.8,332.9,300.0
899.7,1076,15.8,15.0,95,12.01,64,9.9,297.8,332.8,299.9
899.2,1080,15.8,14.9,95,11.96,64,9.9,297.8,332.7,300.0
898.8,1084,15.7,14.9,95,11.92,64,9.8,297.8,332.6,300.0
898.3,1088,15.7,14.8,95,11.90,65,9.8,297.8,332.6,300.0
897.9,1092,15.7,14.8,95,11.87,65,9.8,297.8,332.5,300.0
897.5,1097,15.7,14.8,94,11.84,65,9.7,297.9,332.5,300.0
897.1,1101,15.6,14.7,94,11.81,65,9.7,297.9,332.4,300.0
896.6,1105,15.6,14.7,94,11.79,66,9.7,297.9,332.4,300.0
896.2,1109,15.6,14.7,94,11.80,66,9.6,297.9,332.4,300.0
895.8,1113,15.6,14.7,95,11.83,66,9.6,297.9,332.5,300.0
895.4,1116,15.5,14.7,95,11.85,66,9.6,297.9,332.6,300.1
895.0,1120,15.5,14.7,95,11.87,66,9.6,297.9,332.6,300.1
894.6,1124,15.5,14.7,95,11.85,66,9.6,297.9,332.5,300.1
894.2,1128,15.4,14.6,95,11.78,67,9.6,297.9,332.4,300.0
893.8,1132,15.4,14.5,94,11.68,67,9.6,298.0,332.1,300.1
893.4,1136,15.4,14.4,94,11.61,67,9.6,298.0,331.9,300.1
893.0,1139,15.4,14.4,94,11.60,67,9.6,298.0,331.9,300.1
892.6,1143,15.4,14.4,94,11.61,67,9.6,298.0,331.9,300.1
892.2,1147,15.3,14.4,94,11.61,67,9.7,298.0,332.0,300.1
891.8,1151,15.3,14.3,94,11.60,67,9.7,298.0,331.9,300.1
891.4,1154,15.3,14.3,94,11.58,67,9.8,298.0,331.9,300.1
891.0,1158,15.2,14.3,94,11.56,67,9.9,298.0,331.8,300.1
890.6,1162,15.2,14.2,94,11.54,67,9.9,298.1,331.8,300.1
890.3,1165,15.2,14.2,94,11.54,67,10.0,298.1,331.8,300.2
889.9,1169,15.2,14.2,94,11.54,67,10.1,298.2,331.9,300.2
889.5,1172,15.2,14.2,94,11.56,66,10.2,298.2,332.0,300.3
889.1,1176,15.2,14.3,94,11.58,66,10.3,298.2,332.1,300.3
888.7,1180,15.2,14.3,94,11.59,66,10.4,298.2,332.1,300.3
888.3,1184,15.1,14.3,95,11.60,66,10.5,298.2,332.1,300.3
887.9,1187,15.1,14.3,95,11.65,66,10.6,298.2,332.2,300.3
887.5,1191,15.1,14.4,96,11.69,66,10.7,298.2,332.4,300.3
887.1,1195,15.1,14.4,96,11.70,66,10.8,298.2,332.5,300.3
886.7,1199,15.1,14.4,96,11.68,65,10.9,298.3,332.4,300.4
886.3,1203,15.0,14.3,95,11.64,65,11.0,298.3,332.3,300.4
886.0,1207,15.0,14.3,95,11.62,65,11.1,298.3,332.3,300.4
885.6,1210,15.0,14.3,95,11.61,65,11.2,298.3,332.3,300.4
885.2,1214,15.0,14.2,95,11.61,65,11.3,298.3,332.3,300.4
884.8,1217,14.9,14.2,95,11.60,65,11.4,298.3,332.3,300.4
884.5,1221,14.9,14.2,96,11.61,65,11.5,298.4,332.3,300.4
884.1,1224,14.9,14.2,96,11.60,65,11.6,298.4,332.3,300.4
883.7,1228,14.9,14.2,96,11.61,65,11.6,298.4,332.4,300.5
883.3,1232,14.9,14.2,96,11.61,65,11.7,298.4,332.4,300.5
882.9,1235,14.8,14.2,96,11.60,65,11.8,298.4,332.4,300.5
882.6,1239,14.7,14.2,96,11.59,65,11.8,298.3,332.3,300.4
882.2,1243,14.7,14.2,97,11.60,65,11.8,298.3,332.3,300.4
881.8,1246,14.7,14.2,97,11.60,65,11.9,298.3,332.3,300.4
881.4,1250,14.6,14.2,97,11.61,65,11.9,298.3,332.3,300.4
881.0,1254,14.6,14.2,97,11.61,65,11.9,298.3,332.3,300.4
880.6,1258,14.6,14.2,98,11.62,65,11.9,298.4,332.4,300.4
880.2,1262,14.5,14.2,98,11.65,65,11.9,298.4,332.4,300.4
879.7,1266,14.5,14.2,98,11.66,65,11.8,298.4,332.5,300.4
879.3,1271,14.4,14.2,98,11.65,66,11.8,298.3,332.5,300.4
878.8,1275,14.4,14.1,98,11.61,66,11.8,298.4,332.3,300.4
878.4,1279,14.4,14.1,98,11.58,66,11.7,298.3,332.3,300.4
878.0,1283,14.3,14.1,98,11.57,66,11.7,298.4,332.2,300.4
877.6,1287,14.3,14.1,99,11.58,66,11.6,298.4,332.3,300.4
877.2,1291,14.3,14.1,99,11.60,66,11.6,298.4,332.3,300.4
876.8,1295,14.2,14.1,99,11.61,66,11.5,298.4,332.4,300.5
876.4,1299,14.2,14.1,99,11.59,66,11.4,298.4,332.3,300.5
876.0,1303,14.2,14.0,99,11.57,66,11.4,298.4,332.3,300.5
875.6,1306,14.2,14.0,99,11.55,66,11.3,298.4,332.3,300.5
875.2,1310,14.2,14.0,99,11.56,66,11.2,298.5,332.3,300.5
874.7,1315,14.2,14.0,99,11.59,66,11.1,298.5,332.5,300.6
874.3,1319,14.2,14.1,99,11.63,67,11.0,298.6,332.6,300.6
873.8,1324,14.1,14.1,100,11.64,67,11.0,298.6,332.7,300.7
873.3,1329,14.1,14.0,99,11.62,67,10.9,298.6,332.7,300.7
872.7,1334,14.1,14.0,99,11.59,67,10.8,298.6,332.6,300.7
872.2,1339,14.1,14.0,99,11.57,67,10.7,298.7,332.6,300.7
871.7,1344,14.0,13.9,99,11.53,67,10.6,298.7,332.5,300.7
871.2,1349,14.0,13.9,99,11.50,67,10.5,298.7,332.4,300.8
870.7,1354,14.0,13.8,99,11.47,68,10.5,298.7,332.3,300.8
870.1,1359,13.9,13.8,99,11.44,68,10.4,298.7,332.3,300.8
869.6,1364,13.9,13.7,99,11.43,68,10.3,298.7,332.3,300.8
869.1,1369,13.9,13.7,99,11.43,68,10.2,298.7,332.3,300.8
868.6,1374,13.8,13.7,99,11.45,68,10.2,298.8,332.3,300.8
868.0,1379,13.8,13.8,100,11.47,69,10.1,298.8,332.4,300.9
867.5,1385,13.8,13.8,100,11.48,69,10.0,298.8,332.5,300.9
867.0,1390,13.8,13.7,100,11.44,69,10.0,298.9,332.4,300.9
866.4,1395,13.7,13.6,99,11.39,69,9.9,298.9,332.3,300.9
865.9,1401,13.7,13.6,99,11.37,69,9.9,298.9,332.3,301.0
865.3,1406,13.7,13.6,99,11.35,69,9.8,298.9,332.3,301.0
864.8,1412,13.6,13.5,99,11.33,69,9.8,298.9,332.2,301.0
864.2,1417,13.6,13.5,99,11.29,69,9.7,299.0,332.1,301.0
863.7,1422,13.6,13.4,99,11.25,69,9.7,299.0,332.0,301.0
863.1,1428,13.5,13.3,99,11.19,69,9.7,299.0,331.9,301.0
862.6,1433,13.5,13.3,99,11.17,69,9.7,299.0,331.8,301.0
862.1,1438,13.5,13.3,99,11.19,69,9.6,299.0,331.9,301.0
861.6,1443,13.4,13.3,99,11.19,69,9.6,299.0,331.9,301.0
861.1,1448,13.4,13.2,99,11.18,69,9.6,299.1,331.9,301.1
860.6,1452,13.4,13.2,99,11.17,69,9.6,299.1,331.9,301.1
860.1,1457,13.4,13.2,99,11.18,69,9.6,299.1,332.0,301.1
859.6,1462,13.3,13.3,100,11.22,69,9.6,299.1,332.1,301.1
859.2,1466,13.3,13.3,100,11.26,68,9.7,299.2,332.2,301.2
858.7,1471,13.3,13.3,100,11.25,68,9.7,299.2,332.3,301.2
858.2,1475,13.3,13.2,100,11.21,68,9.7,299.2,332.2,301.2
857.8,1480,13.3,13.2,99,11.18,68,9.8,299.3,332.1,301.3
857.4,1484,13.3,13.2,100,11.18,68,9.8,299.3,332.2,301.3
857.0,1488,13.2,13.2,100,11.20,68,9.9,299.3,332.2,301.3
856.6,1492,13.2,13.2,100,11.20,68,9.9,299.3,332.3,301.3
856.1,1496,13.2,13.2,100,11.21,68,10.0,299.3,332.3,301.4
855.7,1501,13.2,13.2,100,11.20,67,10.1,299.4,332.3,301.4
855.2,1505,13.1,13.1,100,11.17,67,10.2,299.4,332.2,301.4
854.8,1510,13.1,13.1,100,11.15,67,10.2,299.4,332.2,301.4
854.3,1514,13.1,13.0,100,11.09,67,10.3,299.4,332.0,301.4
853.8,1519,13.0,12.9,99,11.05,67,10.4,299.4,331.9,301.4
853.4,1524,13.0,12.9,99,11.02,67,10.5,299.4,331.8,301.4
852.9,1528,13.0,12.9,99,11.02,67,10.6,299.4,331.9,301.4
852.4,1533,13.0,12.9,100,11.05,67,10.7,299.5,332.0,301.5
852.0,1537,13.0,12.9,100,11.05,67,10.8,299.5,332.0,301.5
851.5,1542,13.0,12.9,100,11.04,67,10.9,299.5,332.1,301.5
851.1,1546,12.9,12.9,99,11.02,67,10.9,299.6,332.0,301.6
850.7,1550,12.9,12.8,99,10.97,67,11.0,299.6,331.9,301.6
850.3,1554,12.9,12.7,99,10.89,67,11.1,299.6,331.7,301.6
850.0,1557,12.9,12.6,98,10.85,67,11.1,299.6,331.6,301.6
849.9,1558,12.9,12.6,98,10.83,67,11.2,299.6,331.5,301.6
849.5,1562,12.9,12.5,98,10.81,67,11.3,299.6,331.5,301.6
849.1,1566,12.9,12.5,98,10.82,67,11.3,299.7,331.6,301.6
848.7,1570,12.9,12.5,98,10.83,67,11.4,299.7,331.7,301.7
848.3,1574,12.8,12.5,98,10.82,67,11.5,299.7,331.6,301.7
847.9,1578,12.8,12.5,98,10.79,67,11.5,299.7,331.6,301.7
847.5,1582,12.8,12.4,97,10.75,67,11.6,299.8,331.5,301.7
847.1,1585,12.8,12.4,97,10.75,68,11.6,299.9,331.6,301.8
846.7,1590,12.8,12.5,98,10.79,68,11.7,299.9,331.7,301.8
846.3,1594,12.8,12.5,98,10.81,68,11.7,299.9,331.8,301.8
845.9,1598,12.7,12.4,98,10.78,68,11.7,299.9,331.7,301.8
845.4,1602,12.7,12.3,97,10.70,69,11.7,299.9,331.5,301.9
845.0,1607,12.7,12.2,96,10.61,69,11.7,300.0,331.3,301.9
844.5,1612,12.7,12.1,96,10.56,69,11.7,300.0,331.2,301.9
844.0,1616,12.7,12.1,96,10.56,69,11.7,300.0,331.2,301.9
843.5,1621,12.7,12.0,96,10.52,70,11.7,300.0,331.1,301.9
843.1,1626,12.7,11.8,95,10.40,70,11.7,300.1,330.8,302.0
842.6,1631,12.7,11.6,93,10.21,70,11.7,300.2,330.4,302.0
842.1,1635,12.7,11.4,92,10.10,71,11.7,300.2,330.1,302.0
841.6,1640,12.7,11.3,92,10.08,71,11.6,300.2,330.1,302.1
841.2,1645,12.6,11.3,91,10.03,71,11.6,300.2,329.9,302.1
840.7,1649,12.6,11.2,91,9.99,72,11.5,300.3,329.8,302.1
840.3,1654,12.6,11.2,91,10.00,72,11.4,300.3,329.9,302.1
839.9,1658,12.6,11.3,92,10.06,72,11.4,300.3,330.1,302.1
839.4,1662,12.5,11.2,92,10.02,73,11.3,300.3,330.0,302.1
839.0,1667,12.5,11.0,91,9.89,73,11.2,300.4,329.7,302.2
838.5,1671,12.5,10.9,90,9.79,73,11.1,300.4,329.5,302.2
838.1,1676,12.5,10.8,89,9.77,73,10.9,300.4,329.4,302.2
837.6,1680,12.5,10.8,90,9.79,74,10.8,300.5,329.5,302.3
837.2,1685,12.5,10.8,90,9.79,74,10.7,300.5,329.6,302.3
836.7,1689,12.5,10.8,90,9.78,74,10.5,300.5,329.5,302.3
836.3,1694,12.4,10.8,90,9.76,74,10.4,300.5,329.5,302.3
835.9,1698,12.4,10.7,89,9.72,75,10.2,300.6,329.4,302.3
835.4,1702,12.4,10.6,89,9.67,75,10.1,300.6,329.3,302.4
835.0,1707,12.4,10.6,89,9.64,75,9.9,300.6,329.3,302.4
834.6,1711,12.4,10.6,88,9.63,75,9.8,300.7,329.3,302.5
834.1,1716,12.4,10.6,89,9.66,75,9.6,300.8,329.5,302.5
833.7,1720,12.4,10.7,89,9.71,75,9.5,300.8,329.6,302.6
833.3,1724,12.4,10.7,90,9.77,75,9.3,300.8,329.8,302.6
832.8,1729,12.4,10.8,90,9.82,76,9.2,300.8,330.0,302.6
832.4,1733,12.3,10.9,91,9.86,76,9.1,300.8,330.1,302.6
832.0,1738,12.3,10.8,91,9.86,76,9.0,300.8,330.1,302.6
831.5,1742,12.2,10.8,91,9.82,76,8.9,300.8,330.0,302.6
831.1,1746,12.2,10.7,91,9.75,76,8.8,300.8,329.8,302.6
