PRES,HGHT,TEMP,DWPT,RELH,MIXR,DRCT,SPED,THTA,THTE,THTV
1013.8,31,23.1,19.7,81,14.37,69,2.5,295.1,336.5,297.6
1013.2,36,23.2,19.7,81,14.43,73,1.7,295.3,336.8,297.8
1012.6,41,23.4,19.6,80,14.35,74,1.5,295.4,336.8,298.0
1011.9,47,23.6,19.6,78,14.29,74,1.6,295.7,337.0,298.2
1011.1,54,23.8,19.4,77,14.20,72,1.7,296.0,337.0,298.5
1010.4,60,23.8,19.3,76,14.09,71,1.8,296.1,336.9,298.6
1009.9,64,23.8,19.2,76,14.01,69,2.0,296.1,336.6,298.6
1009.2,71,23.8,19.1,75,13.95,68,2.1,296.1,336.5,298.6
1008.5,76,23.7,19.1,75,13.92,67,2.2,296.1,336.4,298.6
1007.8,82,23.7,19.1,75,13.91,66,2.3,296.2,336.4,298.6
1007.1,88,23.6,19.1,76,13.92,65,2.4,296.2,336.4,298.6
1006.5,94,23.6,19.1,76,13.92,64,2.5,296.2,336.4,298.6
1005.8,100,23.5,19.0,76,13.87,64,2.6,296.1,336.3,298.6
1005.2,105,23.4,18.9,76,13.82,63,2.7,296.1,336.1,298.6
1004.5,111,23.4,18.9,76,13.84,62,2.8,296.2,336.2,298.6
1003.9,116,23.4,19.0,77,13.94,62,2.9,296.2,336.5,298.6
1003.3,122,23.3,19.1,77,14.02,62,3.0,296.2,336.7,298.6
1002.7,127,23.2,19.1,78,14.03,61,3.0,296.2,336.8,298.7
1002.1,132,23.2,19.1,78,14.05,61,3.1,296.2,336.8,298.6
1001.5,137,23.1,19.1,78,14.05,61,3.2,296.1,336.8,298.6
1000.9,143,23.1,19.1,78,14.02,61,3.2,296.1,336.7,298.6
1000.3,148,23.0,19.1,78,14.01,61,3.3,296.2,336.7,298.6
1000.0,151,23.0,19.0,78,13.98,61,3.3,296.2,336.6,298.6
999.7,153,23.0,19.0,78,13.97,61,3.3,296.2,336.6,298.6
999.1,159,22.9,18.9,78,13.92,61,3.4,296.2,336.5,298.6
998.4,164,22.9,18.9,78,13.93,61,3.4,296.2,336.5,298.6
997.8,170,22.8,19.0,79,13.98,61,3.4,296.2,336.6,298.7
997.1,176,22.8,19.0,79,14.02,62,3.4,296.2,336.7,298.7
996.5,181,22.7,19.0,80,14.02,62,3.4,296.2,336.7,298.7
995.8,187,22.7,19.0,80,14.03,62,3.5,296.2,336.7,298.7
995.2,193,22.6,19.0,80,14.04,62,3.5,296.2,336.8,298.6
994.5,199,22.5,19.0,80,14.04,62,3.5,296.2,336.8,298.6
993.9,204,22.5,19.0,80,14.02,63,3.5,296.1,336.7,298.6
993.2,210,22.4,18.9,81,14.00,63,3.5,296.2,336.7,298.6
992.6,215,22.4,18.9,81,14.01,63,3.5,296.2,336.7,298.7
992.0,221,22.3,18.9,81,14.00,63,3.5,296.2,336.7,298.6
991.4,226,22.3,18.9,81,13.98,63,3.5,296.2,336.6,298.6
990.8,231,22.2,18.9,81,13.97,63,3.5,296.2,336.6,298.6
990.2,237,22.2,18.9,81,13.98,63,3.4,296.2,336.6,298.7
989.5,242,22.1,18.8,82,13.97,63,3.4,296.2,336.6,298.7
988.9,248,22.1,18.8,82,13.95,63,3.4,296.2,336.6,298.7
988.2,254,22.0,18.8,82,13.95,63,3.4,296.2,336.6,298.7
987.5,260,22.0,18.8,82,13.94,63,3.4,296.2,336.5,298.7
986.9,266,21.9,18.8,82,13.93,63,3.4,296.2,336.5,298.7
986.2,272,21.8,18.7,82,13.91,63,3.4,296.2,336.4,298.6
985.5,278,21.8,18.7,83,13.91,63,3.4,296.2,336.4,298.6
984.8,284,21.7,18.7,83,13.93,63,3.4,296.2,336.5,298.6
984.2,290,21.7,18.8,83,13.97,63,3.4,296.2,336.6,298.6
983.6,295,21.6,18.7,84,13.97,63,3.4,296.2,336.6,298.6
982.9,301,21.6,18.7,84,13.93,63,3.4,296.2,336.5,298.6
982.3,306,21.5,18.7,84,13.94,63,3.4,296.2,336.5,298.6
981.8,311,21.5,18.7,84,13.97,63,3.4,296.2,336.6,298.7
981.2,316,21.4,18.7,84,13.95,63,3.4,296.2,336.5,298.6
980.6,322,21.4,18.6,84,13.91,63,3.4,296.2,336.4,298.6
980.0,327,21.3,18.6,84,13.88,63,3.5,296.2,336.3,298.6
979.4,332,21.3,18.5,84,13.85,64,3.5,296.2,336.3,298.7
978.8,338,21.2,18.5,84,13.82,64,3.5,296.2,336.2,298.7
978.1,343,21.2,18.5,84,13.79,64,3.6,296.2,336.1,298.7
977.5,349,21.1,18.4,84,13.73,64,3.6,296.2,335.9,298.6
976.9,354,21.1,18.3,84,13.69,64,3.6,296.2,335.8,298.6
976.3,360,21.0,18.3,84,13.68,64,3.7,296.2,335.8,298.6
975.7,365,21.0,18.3,85,13.69,64,3.7,296.2,335.8,298.6
975.1,370,20.9,18.4,85,13.75,64,3.8,296.2,336.0,298.6
974.5,375,20.9,18.4,86,13.82,65,3.8,296.2,336.2,298.7
973.9,381,20.8,18.4,86,13.84,65,3.9,296.2,336.3,298.7
973.3,386,20.8,18.4,86,13.82,65,4.0,296.2,336.2,298.7
972.7,391,20.7,18.4,86,13.82,65,4.0,296.2,336.2,298.7
972.1,397,20.7,18.4,87,13.81,65,4.1,296.2,336.2,298.7
971.5,402,20.6,18.3,87,13.78,65,4.1,296.2,336.1,298.7
970.9,408,20.6,18.3,87,13.74,64,4.2,296.2,336.0,298.6
970.3,413,20.5,18.2,87,13.72,64,4.2,296.2,335.9,298.6
969.7,418,20.5,18.2,87,13.71,64,4.2,296.2,335.9,298.6
969.1,424,20.4,18.2,87,13.72,64,4.3,296.2,335.9,298.7
968.5,429,20.4,18.3,88,13.75,64,4.3,296.2,336.0,298.7
968.0,434,20.3,18.3,88,13.80,64,4.3,296.2,336.2,298.7
967.5,438,20.3,18.3,89,13.85,64,4.3,296.2,336.3,298.7
967.0,443,20.2,18.3,89,13.85,64,4.3,296.2,336.3,298.7
966.5,447,20.2,18.3,89,13.79,63,4.3,296.2,336.1,298.6
965.9,452,20.1,18.2,89,13.75,63,4.3,296.2,336.0,298.7
965.4,456,20.1,18.2,89,13.75,63,4.2,296.2,336.0,298.7
964.9,461,20.1,18.2,89,13.76,63,4.2,296.2,336.0,298.7
964.4,466,20.0,18.2,89,13.78,63,4.1,296.2,336.1,298.6
963.8,471,20.0,18.2,90,13.79,63,4.1,296.2,336.1,298.7
963.2,476,19.9,18.2,90,13.79,63,4.0,296.2,336.1,298.7
962.6,482,19.9,18.2,90,13.78,62,3.9,296.2,336.1,298.7
962.0,487,19.8,18.1,90,13.72,62,3.9,296.2,335.9,298.6
961.4,492,19.8,18.1,90,13.69,63,3.8,296.2,335.8,298.7
960.8,498,19.7,18.1,90,13.72,63,3.7,296.2,335.9,298.7
960.2,503,19.7,18.1,91,13.77,63,3.6,296.2,336.1,298.7
959.6,509,19.6,18.1,91,13.79,63,3.5,296.2,336.1,298.7
958.9,515,19.6,18.1,91,13.78,64,3.4,296.2,336.1,298.7
958.2,521,19.5,18.1,92,13.76,64,3.4,296.2,336.1,298.7
957.6,527,19.4,18.0,92,13.73,65,3.3,296.2,335.9,298.7
956.9,533,19.4,18.0,92,13.69,65,3.2,296.2,335.8,298.6
956.2,539,19.3,18.0,92,13.70,66,3.1,296.2,335.9,298.7
955.5,545,19.3,18.0,93,13.76,67,3.1,296.2,336.0,298.7
954.9,552,19.2,18.1,93,13.79,68,3.0,296.2,336.1,298.7
954.2,558,19.1,18.0,93,13.77,69,3.0,296.2,336.1,298.7
953.5,564,19.1,18.0,93,13.71,70,3.0,296.2,335.9,298.7
952.9,570,19.0,17.9,93,13.70,71,3.0,296.2,335.9,298.7
952.2,576,19.0,18.0,94,13.74,72,3.0,296.2,336.0,298.7
951.6,581,18.9,18.0,95,13.77,73,3.0,296.2,336.1,298.7
951.0,586,18.8,18.0,95,13.77,74,3.0,296.2,336.1,298.7
950.4,592,18.8,18.0,95,13.76,74,3.0,296.2,336.0,298.7
949.8,597,18.8,17.9,95,13.75,75,3.0,296.2,336.0,298.7
949.3,602,18.7,17.9,95,13.73,76,3.1,296.2,335.9,298.7
948.7,608,18.7,17.8,95,13.67,76,3.1,296.2,335.8,298.7
948.1,613,18.6,17.8,95,13.63,77,3.2,296.2,335.7,298.7
947.5,619,18.6,17.7,95,13.58,77,3.2,296.2,335.6,298.7
946.9,624,18.5,17.6,95,13.53,78,3.2,296.3,335.4,298.7
946.3,629,18.5,17.6,95,13.51,78,3.3,296.3,335.4,298.7
945.7,635,18.4,17.6,95,13.47,78,3.3,296.3,335.3,298.7
945.1,640,18.4,17.5,94,13.42,78,3.4,296.3,335.1,298.7
944.5,645,18.4,17.4,94,13.38,78,3.4,296.3,335.1,298.7
944.0,650,18.3,17.4,94,13.37,78,3.4,296.3,335.0,298.7
943.4,656,18.3,17.3,94,13.31,78,3.5,296.3,334.9,298.7
942.8,661,18.3,17.2,94,13.23,78,3.5,296.3,334.7,298.7
942.3,666,18.2,17.2,94,13.21,78,3.5,296.3,334.6,298.7
941.7,671,18.2,17.2,94,13.20,78,3.5,296.4,334.6,298.7
941.1,676,18.1,17.1,94,13.13,78,3.6,296.4,334.4,298.7
940.6,681,18.1,16.9,93,13.02,78,3.6,296.4,334.1,298.7
940.0,686,18.0,16.8,92,12.91,78,3.6,296.4,333.8,298.7
939.5,691,18.0,16.7,92,12.85,78,3.6,296.4,333.7,298.7
939.0,696,18.0,16.7,92,12.86,78,3.6,296.4,333.7,298.7
938.5,700,18.0,16.7,92,12.88,78,3.6,296.5,333.8,298.7
938.0,705,17.9,16.7,93,12.89,78,3.6,296.5,333.8,298.7
937.5,709,17.9,16.7,93,12.90,78,3.6,296.5,333.8,298.8
937.1,714,17.9,16.8,93,12.93,78,3.6,296.5,333.9,298.8
936.6,718,17.8,16.8,94,12.97,79,3.6,296.4,334.0,298.8
936.1,722,17.8,16.8,94,12.98,79,3.5,296.5,334.1,298.8
935.6,727,17.7,16.8,94,12.97,79,3.5,296.5,334.0,298.8
935.2,731,17.7,16.8,95,12.96,79,3.5,296.4,334.0,298.7
934.7,736,17.6,16.8,95,12.97,80,3.5,296.4,334.0,298.8
934.2,740,17.6,16.8,95,12.99,80,3.5,296.4,334.1,298.8
933.6,745,17.6,16.8,95,12.97,80,3.4,296.5,334.1,298.8
933.1,750,17.5,16.7,95,12.92,80,3.4,296.5,333.9,298.8
932.6,755,17.5,16.6,94,12.82,80,3.4,296.5,333.6,298.8
932.0,760,17.5,16.4,93,12.66,80,3.4,296.5,333.2,298.8
931.5,765,17.5,16.2,92,12.51,80,3.4,296.6,332.9,298.8
930.9,770,17.5,16.0,91,12.36,80,3.3,296.6,332.5,298.8
930.4,775,17.5,15.8,90,12.20,80,3.3,296.7,332.1,298.9
929.9,780,17.5,15.6,88,12.07,80,3.3,296.8,331.8,298.9
929.4,784,17.6,15.5,88,11.98,80,3.3,296.9,331.7,299.0
928.9,789,17.6,15.4,87,11.95,79,3.2,296.9,331.6,299.0
928.4,794,17.5,15.4,87,11.95,79,3.2,296.9,331.6,299.0
927.9,798,17.5,15.4,88,11.96,79,3.2,296.9,331.7,299.0
927.4,802,17.5,15.4,88,11.97,78,3.1,296.9,331.7,299.1
926.9,807,17.4,15.4,88,11.94,78,3.1,297.0,331.7,299.1
926.5,811,17.4,15.3,88,11.89,77,3.1,297.0,331.6,299.1
926.0,815,17.4,15.3,87,11.85,77,3.1,297.0,331.5,299.1
925.6,819,17.4,15.2,87,11.84,76,3.0,297.0,331.5,299.1
925.2,823,17.3,15.2,87,11.83,75,3.0,297.0,331.4,299.1
925.0,825,17.3,15.2,87,11.81,75,2.9,297.0,331.4,299.1
924.8,827,17.3,15.1,87,11.78,75,2.9,297.0,331.3,299.1
924.3,831,17.3,15.0,86,11.67,74,2.9,297.0,331.0,299.1
923.9,835,17.3,14.8,85,11.51,73,2.9,297.1,330.6,299.1
923.5,839,17.3,14.6,84,11.35,73,2.8,297.2,330.3,299.2
923.0,843,17.4,14.5,83,11.30,72,2.8,297.3,330.2,299.3
922.6,847,17.4,14.5,83,11.36,71,2.8,297.3,330.4,299.3
922.2,851,17.4,14.7,84,11.48,70,2.8,297.3,330.8,299.4
921.7,855,17.3,14.8,85,11.59,70,2.7,297.3,331.1,299.4
921.3,859,17.3,14.9,86,11.64,69,2.7,297.3,331.2,299.4
920.8,863,17.2,14.9,86,11.66,68,2.7,297.3,331.3,299.4
920.4,867,17.2,14.9,87,11.66,67,2.7,297.3,331.3,299.4
919.9,872,17.1,14.9,87,11.65,66,2.7,297.3,331.3,299.4
919.5,876,17.1,14.9,87,11.64,65,2.7,297.3,331.2,299.4
919.0,881,17.0,14.8,87,11.63,64,2.7,297.3,331.2,299.4
918.5,885,17.0,14.8,87,11.59,62,2.7,297.3,331.1,299.4
918.0,889,17.0,14.8,87,11.58,61,2.7,297.3,331.0,299.4
917.5,894,16.9,14.8,87,11.60,60,2.7,297.3,331.1,299.4
917.1,898,16.9,14.8,87,11.61,58,2.7,297.3,331.1,299.4
916.6,903,16.9,14.8,87,11.59,57,2.8,297.3,331.1,299.4
916.1,908,16.8,14.7,87,11.55,56,2.8,297.3,331.0,299.4
915.6,912,16.8,14.6,87,11.52,54,2.8,297.3,330.9,299.4
915.1,917,16.7,14.6,87,11.50,53,2.9,297.3,330.8,299.4
914.6,921,16.7,14.6,87,11.49,51,2.9,297.3,330.8,299.4
914.2,925,16.6,14.6,88,11.48,50,3.0,297.3,330.8,299.4
913.7,930,16.6,14.6,88,11.49,48,3.0,297.3,330.8,299.4
913.3,934,16.6,14.6,88,11.52,47,3.1,297.3,330.9,299.4
912.8,938,16.6,14.6,88,11.54,45,3.1,297.4,331.0,299.4
912.4,942,16.5,14.6,89,11.55,44,3.2,297.4,331.0,299.4
911.9,947,16.5,14.6,89,11.54,43,3.3,297.4,331.0,299.4
911.4,951,16.4,14.6,89,11.51,42,3.3,297.4,330.9,299.4
911.0,955,16.4,14.5,88,11.43,41,3.4,297.4,330.7,299.4
910.5,960,16.4,14.4,88,11.40,40,3.4,297.4,330.7,299.4
910.1,964,16.4,14.4,88,11.39,39,3.4,297.4,330.6,299.4
909.6,968,16.4,14.4,88,11.41,38,3.5,297.4,330.7,299.5
909.1,973,16.3,14.4,89,11.44,37,3.5,297.5,330.8,299.5
908.6,977,16.3,14.5,89,11.47,36,3.5,297.5,331.0,299.5
908.1,982,16.3,14.5,89,11.49,35,3.5,297.5,331.1,299.6
907.6,987,16.2,14.5,89,11.50,35,3.5,297.5,331.1,299.6
907.1,992,16.2,14.4,89,11.48,34,3.6,297.5,331.0,299.6
906.5,997,16.2,14.4,89,11.42,33,3.6,297.5,330.9,299.6
906.0,1002,16.1,14.3,89,11.39,33,3.6,297.6,330.8,299.6
905.5,1007,16.1,14.3,89,11.38,33,3.5,297.6,330.8,299.6
905.0,1012,16.1,14.2,89,11.34,32,3.5,297.6,330.7,299.6
904.4,1017,16.1,14.2,88,11.29,32,3.5,297.6,330.6,299.6
903.9,1021,16.0,14.1,88,11.25,32,3.5,297.7,330.5,299.7
903.4,1026,16.0,14.0,88,11.19,31,3.5,297.7,330.4,299.7
902.9,1031,16.0,13.9,87,11.15,31,3.5,297.7,330.3,299.7
902.4,1036,16.0,13.9,87,11.13,31,3.5,297.8,330.3,299.8
902.0,1040,16.0,13.9,87,11.13,30,3.5,297.8,330.3,299.8
901.5,1045,15.9,13.8,87,11.09,30,3.5,297.8,330.2,299.8
901.0,1049,15.9,13.8,87,11.05,30,3.5,297.8,330.1,299.8
900.6,1053,15.9,13.7,87,11.01,30,3.5,297.8,330.0,299.8
900.2,1057,15.9,13.7,87,10.99,29,3.5,297.8,330.0,299.8
899.8,1061,15.8,13.7,87,10.99,29,3.5,297.8,330.0,299.8
899.4,1065,15.8,13.7,87,11.00,28,3.5,297.8,330.0,299.8
899.0,1068,15.8,13.7,87,10.99,27,3.5,297.9,330.0,299.8
898.6,1072,15.8,13.6,87,10.98,27,3.6,297.9,330.0,299.8
898.1,1076,15.7,13.6,87,10.96,26,3.6,297.9,330.0,299.9
897.7,1080,15.7,13.6,87,10.94,25,3.6,297.9,330.0,299.9
897.2,1085,15.7,13.5,87,10.94,24,3.6,298.0,330.0,299.9
896.8,1089,15.7,13.5,87,10.91,23,3.6,297.9,329.9,299.9
896.3,1094,15.6,13.4,87,10.87,22,3.7,297.9,329.8,299.9
895.8,1098,15.6,13.4,87,10.82,21,3.7,298.0,329.6,299.9
895.3,1103,15.6,13.3,86,10.80,19,3.7,298.0,329.6,299.9
894.9,1107,15.6,13.3,86,10.77,18,3.7,298.0,329.5,299.9
894.4,1112,15.5,13.2,86,10.73,16,3.8,298.0,329.5,300.0
893.9,1116,15.5,13.1,85,10.66,15,3.8,298.1,329.3,300.0
893.4,1121,15.5,13.0,85,10.58,13,3.8,298.1,329.1,300.0
893.0,1125,15.5,12.9,84,10.50,11,3.8,298.1,328.9,300.0
892.5,1130,15.5,12.7,84,10.43,10,3.8,298.2,328.7,300.0
892.0,1134,15.5,12.6,83,10.33,8,3.9,298.2,328.6,300.1
891.6,1139,15.5,12.4,82,10.23,6,3.9,298.3,328.3,300.1
891.1,1143,15.5,12.2,81,10.08,4,3.9,298.3,328.0,300.2
890.7,1147,15.6,12.0,79,9.92,3,3.9,298.5,327.6,300.3
890.2,1151,15.7,11.8,78,9.82,1,4.0,298.6,327.5,300.4
889.8,1156,15.8,11.8,77,9.79,359,4.0,298.7,327.5,300.5
889.4,1160,15.8,11.7,77,9.77,358,4.0,298.7,327.5,300.5
888.9,1164,15.8,11.6,76,9.71,356,4.1,298.8,327.4,300.5
888.4,1169,15.8,11.5,76,9.63,355,4.1,298.9,327.3,300.6
887.9,1174,15.8,11.3,75,9.53,353,4.1,299.0,327.1,300.7
887.4,1179,15.9,11.2,74,9.47,352,4.2,299.1,327.0,300.8
886.9,1184,15.9,11.2,73,9.44,351,4.2,299.1,327.0,300.8
886.3,1189,15.9,11.1,73,9.42,349,4.3,299.2,327.0,300.9
885.8,1194,15.9,11.1,73,9.43,348,4.3,299.2,327.1,300.9
885.2,1199,15.9,11.2,74,9.49,347,4.4,299.3,327.3,301.0
884.7,1204,15.9,11.4,75,9.58,347,4.4,299.3,327.6,301.0
884.2,1209,15.8,11.5,75,9.65,346,4.5,299.3,327.8,301.0
883.7,1214,15.8,11.5,75,9.66,345,4.5,299.3,327.8,301.1
883.2,1219,15.7,11.5,76,9.69,344,4.6,299.3,327.9,301.1
882.7,1224,15.7,11.7,77,9.82,344,4.7,299.4,328.4,301.1
882.2,1229,15.7,11.9,78,9.97,343,4.7,299.4,328.8,301.2
881.7,1234,15.7,12.0,78,10.03,343,4.8,299.4,329.0,301.2
881.1,1239,15.7,11.9,78,10.00,343,4.8,299.4,329.0,301.2
880.6,1244,15.6,11.8,78,9.95,342,4.9,299.4,328.8,301.2
880.0,1249,15.5,11.8,78,9.90,342,4.9,299.4,328.7,301.2
879.5,1254,15.5,11.7,78,9.86,342,5.0,299.4,328.5,301.2
879.0,1259,15.5,11.7,78,9.85,342,5.0,299.4,328.5,301.2
878.5,1264,15.4,11.7,78,9.86,341,5.0,299.5,328.6,301.2
878.1,1268,15.4,11.7,79,9.88,341,5.1,299.4,328.6,301.2
877.6,1273,15.3,11.7,79,9.89,341,5.1,299.5,328.7,301.2
877.1,1278,15.3,11.7,79,9.91,341,5.1,299.5,328.7,301.2
876.6,1283,15.3,11.8,80,9.94,341,5.1,299.5,328.8,301.3
876.1,1288,15.2,11.8,80,9.96,341,5.1,299.5,328.9,301.3
875.5,1294,15.2,11.8,80,9.98,341,5.1,299.5,328.9,301.3
874.9,1299,15.1,11.8,81,9.97,341,5.1,299.5,328.9,301.3
874.3,1305,15.0,11.7,80,9.92,342,5.1,299.5,328.8,301.2
873.7,1310,15.0,11.6,80,9.87,342,5.1,299.5,328.6,301.2
873.2,1316,14.9,11.5,80,9.82,342,5.1,299.5,328.5,301.2
872.7,1321,14.9,11.5,80,9.78,342,5.1,299.5,328.4,301.2
872.2,1325,14.9,11.4,80,9.78,342,5.1,299.5,328.4,301.2
871.7,1330,14.8,11.5,80,9.80,343,5.0,299.5,328.4,301.2
871.3,1334,14.8,11.5,81,9.81,343,5.0,299.5,328.4,301.2
870.9,1338,14.7,11.5,81,9.82,343,5.0,299.5,328.5,301.3
870.5,1342,14.7,11.5,81,9.84,344,4.9,299.5,328.6,301.3
870.1,1346,14.7,11.5,81,9.84,344,4.9,299.5,328.6,301.3
869.6,1351,14.7,11.4,81,9.81,345,4.8,299.5,328.5,301.3
869.2,1355,14.7,11.4,81,9.78,345,4.8,299.6,328.5,301.3
868.7,1359,14.6,11.4,81,9.78,345,4.8,299.6,328.5,301.3
868.2,1364,14.6,11.4,81,9.78,346,4.7,299.6,328.5,301.3
867.8,1368,14.5,11.4,81,9.78,346,4.7,299.6,328.5,301.3
867.3,1373,14.5,11.4,81,9.78,346,4.7,299.6,328.5,301.3
866.9,1377,14.4,11.4,82,9.79,346,4.6,299.6,328.5,301.3
866.5,1381,14.4,11.4,82,9.79,347,4.6,299.5,328.5,301.3
866.0,1386,14.3,11.3,82,9.78,347,4.5,299.5,328.4,301.3
865.6,1390,14.3,11.3,82,9.77,347,4.5,299.5,328.4,301.3
865.2,1394,14.2,11.3,82,9.76,347,4.5,299.5,328.4,301.3
864.8,1398,14.2,11.3,82,9.74,347,4.4,299.5,328.3,301.3
864.3,1402,14.2,11.3,83,9.75,346,4.4,299.5,328.3,301.3
863.9,1406,14.1,11.3,83,9.77,346,4.4,299.5,328.4,301.3
863.5,1411,14.1,11.3,83,9.80,345,4.3,299.5,328.5,301.3
863.0,1415,14.1,11.3,84,9.82,345,4.3,299.5,328.5,301.3
862.5,1420,14.0,11.4,84,9.83,344,4.3,299.6,328.6,301.3
862.0,1425,14.0,11.3,84,9.83,343,4.3,299.6,328.6,301.4
861.5,1430,13.9,11.3,84,9.79,342,4.2,299.6,328.5,301.3
860.9,1435,13.9,11.2,84,9.76,341,4.2,299.6,328.4,301.4
860.4,1441,13.9,11.2,84,9.74,340,4.2,299.6,328.4,301.4
859.9,1446,13.9,11.2,84,9.74,339,4.2,299.6,328.4,301.4
859.3,1451,13.8,11.2,84,9.75,337,4.2,299.7,328.5,301.4
858.8,1457,13.8,11.2,84,9.75,336,4.2,299.7,328.5,301.4
858.2,1462,13.7,11.1,84,9.72,335,4.2,299.7,328.4,301.5
857.6,1468,13.7,11.0,84,9.68,334,4.2,299.8,328.4,301.5
857.0,1474,13.8,11.0,83,9.66,332,4.2,299.8,328.4,301.6
856.4,1480,13.7,11.0,83,9.65,331,4.2,299.9,328.4,301.6
855.7,1487,13.6,10.9,84,9.64,330,4.3,299.8,328.4,301.6
855.1,1493,13.6,10.9,84,9.64,328,4.3,299.9,328.4,301.6
854.5,1499,13.6,10.9,84,9.62,327,4.3,299.9,328.4,301.6
854.0,1504,13.5,10.8,84,9.57,326,4.4,299.9,328.2,301.6
853.4,1510,13.5,10.8,83,9.55,325,4.4,300.0,328.3,301.7
852.9,1515,13.6,10.8,83,9.57,325,4.4,300.1,328.4,301.8
852.4,1520,13.6,10.8,83,9.57,324,4.5,300.2,328.5,301.9
851.9,1524,13.6,10.7,82,9.53,323,4.5,300.2,328.5,302.0
851.4,1529,13.6,10.6,82,9.49,323,4.5,300.3,328.4,302.0
851.0,1534,13.7,10.6,82,9.50,323,4.5,300.4,328.6,302.1
850.5,1539,13.8,10.7,81,9.52,322,4.6,300.5,328.8,302.2
850.0,1543,13.7,10.6,82,9.51,322,4.6,300.5,328.8,302.2
849.5,1548,13.7,10.7,82,9.55,322,4.6,300.5,328.9,302.3
849.0,1553,13.7,10.7,82,9.57,322,4.6,300.6,329.0,302.3
848.6,1558,13.7,10.7,82,9.58,322,4.6,300.6,329.0,302.3
848.1,1562,13.6,10.7,83,9.58,323,4.6,300.6,329.0,302.3
847.6,1567,13.5,10.7,83,9.57,323,4.6,300.5,329.0,302.3
847.1,1572,13.5,10.7,83,9.57,323,4.6,300.6,329.0,302.3
846.7,1577,13.5,10.7,83,9.56,324,4.5,300.6,328.9,302.3
846.2,1582,13.4,10.6,83,9.55,324,4.5,300.6,328.9,302.3
845.7,1587,13.4,10.6,83,9.54,325,4.5,300.6,328.9,302.3
845.2,1592,13.4,10.5,83,9.51,325,4.5,300.6,328.9,302.3
844.7,1597,13.4,10.5,83,9.49,326,4.4,300.7,328.9,302.4
844.1,1602,13.4,10.5,83,9.49,326,4.4,300.7,328.9,302.4
843.6,1607,13.3,10.5,83,9.47,327,4.4,300.7,328.9,302.4
843.1,1612,13.3,10.4,83,9.45,328,4.3,300.7,328.8,302.5
842.6,1617,13.2,10.4,83,9.44,328,4.3,300.8,328.8,302.5
842.1,1622,13.2,10.4,83,9.43,329,4.3,300.8,328.8,302.5
841.6,1627,13.1,10.3,83,9.42,329,4.2,300.7,328.7,302.5
841.1,1632,13.1,10.4,83,9.43,330,4.2,300.7,328.8,302.5
840.6,1638,13.0,10.4,84,9.45,330,4.2,300.7,328.8,302.5
840.0,1643,13.0,10.4,84,9.47,331,4.2,300.7,328.9,302.5
839.5,1648,12.9,10.4,85,9.48,331,4.2,300.7,328.9,302.5
839.0,1653,12.9,10.4,85,9.48,331,4.1,300.8,328.9,302.5
838.4,1659,12.8,10.4,85,9.47,331,4.1,300.8,328.9,302.5
837.9,1664,12.8,10.4,85,9.47,331,4.1,300.7,328.9,302.5
837.3,1670,12.7,10.3,85,9.47,332,4.1,300.7,328.9,302.5
836.8,1676,12.7,10.3,86,9.46,331,4.0,300.7,328.8,302.4
836.2,1681,12.6,10.3,86,9.45,331,4.0,300.7,328.8,302.4
835.7,1687,12.5,10.3,86,9.43,331,4.0,300.7,328.8,302.4
835.1,1692,12.5,10.2,86,9.43,331,4.0,300.7,328.8,302.4
834.6,1698,12.5,10.2,86,9.43,331,3.9,300.7,328.8,302.4
834.0,1703,12.4,10.3,87,9.45,330,3.9,300.8,328.8,302.5
833.5,1709,12.3,10.3,87,9.47,330,3.9,300.7,328.9,302.5
833.0,1714,12.3,10.3,88,9.48,330,3.8,300.7,328.9,302.5
832.4,1720,12.2,10.3,88,9.47,329,3.8,300.7,328.9,302.4
831.8,1725,12.2,10.2,88,9.45,329,3.7,300.7,328.8,302.4
831.3,1731,12.1,10.2,88,9.45,329,3.6,300.7,328.8,302.4
830.7,1737,12.1,10.2,88,9.45,329,3.6,300.7,328.8,302.5
830.2,1742,12.0,10.2,89,9.46,328,3.5,300.7,328.9,302.5
829.6,1748,12.0,10.2,89,9.45,328,3.4,300.7,328.8,302.5
829.1,1753,11.9,10.1,89,9.43,328,3.4,300.7,328.7,302.4
828.6,1758,11.9,10.1,89,9.40,328,3.3,300.7,328.7,302.4
828.0,1764,11.8,10.1,89,9.39,328,3.2,300.8,328.7,302.5
827.5,1769,11.8,10.1,89,9.41,327,3.2,300.8,328.7,302.5
827.0,1775,11.7,10.1,90,9.44,327,3.1,300.8,328.8,302.5
826.4,1780,11.7,10.1,90,9.46,327,3.0,300.8,328.9,302.5
825.9,1786,11.6,10.2,91,9.49,328,2.9,300.8,329.0,302.5
825.3,1791,11.6,10.1,91,9.48,328,2.9,300.8,328.9,302.5
824.8,1797,11.5,10.1,91,9.45,328,2.8,300.8,328.9,302.5
824.2,1803,11.5,10.1,91,9.43,328,2.8,300.8,328.9,302.5
823.6,1809,11.5,10.0,91,9.43,329,2.7,300.8,328.9,302.5
823.0,1814,11.4,10.1,91,9.45,329,2.7,300.8,328.9,302.5
822.5,1821,11.3,10.1,92,9.48,330,2.6,300.8,329.0,302.5
821.8,1827,11.3,10.1,93,9.51,330,2.6,300.8,329.1,302.5
821.2,1833,11.2,10.1,93,9.51,331,2.5,300.8,329.1,302.5
820.6,1840,11.1,10.1,93,9.49,331,2.5,300.8,329.0,302.5
819.9,1847,11.1,10.1,94,9.49,332,2.5,300.8,329.0,302.5
819.2,1854,11.0,10.1,94,9.49,332,2.4,300.8,329.0,302.5
818.5,1861,10.9,10.0,94,9.47,333,2.4,300.8,329.0,302.5
