PRES,HGHT,TEMP,DWPT,RELH,MIXR,DRCT,SPED,THTA,THTE,THTV
1016.9,31,24.6,21.1,81,15.72,44,5.4,296.3,341.8,299.1
1016.4,35,24.6,21.3,82,15.87,59,4.4,296.4,342.3,299.2
1015.7,41,24.7,21.2,81,15.78,65,4.3,296.5,342.3,299.3
1015.3,45,24.8,21.1,80,15.74,67,4.5,296.7,342.3,299.5
1014.6,50,24.8,21.0,80,15.65,67,4.9,296.7,342.1,299.5
1013.9,57,24.8,20.9,79,15.57,67,5.2,296.8,341.9,299.5
1013.4,61,24.8,20.9,79,15.51,66,5.6,296.8,341.7,299.5
1012.8,66,24.7,20.8,79,15.42,66,5.9,296.8,341.5,299.5
1012.2,71,24.7,20.7,79,15.37,66,6.3,296.8,341.4,299.5
1011.6,76,24.6,20.7,79,15.34,66,6.6,296.8,341.3,299.5
1011.0,82,24.6,20.6,78,15.25,66,6.9,296.8,341.0,299.5
1010.4,87,24.6,20.3,77,15.05,66,7.2,296.8,340.5,299.5
1009.8,92,24.5,20.2,77,14.88,66,7.5,296.8,339.9,299.4
1009.2,98,24.4,20.1,77,14.87,66,7.7,296.8,339.9,299.5
1008.6,103,24.4,20.2,77,14.91,66,8.0,296.8,340.1,299.5
1007.9,108,24.3,20.2,78,14.92,66,8.2,296.8,340.1,299.5
1007.3,114,24.3,20.1,78,14.89,66,8.4,296.8,340.0,299.5
1006.7,119,24.2,20.1,78,14.88,66,8.6,296.8,340.0,299.4
1006.1,124,24.2,20.1,78,14.89,67,8.8,296.8,340.0,299.5
1005.6,129,24.1,20.1,78,14.86,67,9.0,296.8,339.9,299.4
1005.0,134,24.1,20.0,78,14.82,67,9.1,296.8,339.8,299.5
1004.5,139,24.1,20.0,78,14.83,67,9.2,296.8,339.9,299.5
1003.9,143,24.0,20.1,79,14.89,67,9.4,296.8,340.0,299.5
1003.4,148,24.0,20.1,79,14.93,67,9.4,296.8,340.1,299.5
1002.8,153,23.9,20.1,79,14.93,67,9.5,296.8,340.1,299.5
1002.3,158,23.9,20.1,79,14.93,67,9.6,296.8,340.1,299.5
1001.7,163,23.8,20.1,80,14.93,68,9.6,296.8,340.1,299.5
1001.2,168,23.8,20.1,80,14.93,68,9.7,296.8,340.1,299.5
1000.6,172,23.7,20.1,80,14.93,68,9.7,296.8,340.1,299.5
1000.1,177,23.7,20.1,80,14.94,68,9.7,296.8,340.1,299.5
1000.0,178,23.7,20.1,80,14.94,68,9.7,296.8,340.1,299.5
999.5,182,23.6,20.1,80,14.97,68,9.7,296.8,340.2,299.5
999.0,187,23.6,20.1,81,15.00,68,9.7,296.8,340.3,299.5
998.4,192,23.5,20.1,81,14.99,68,9.7,296.8,340.3,299.5
997.8,197,23.5,20.1,81,14.96,68,9.7,296.8,340.2,299.5
997.2,202,23.4,20.0,81,14.94,68,9.7,296.8,340.2,299.5
996.7,207,23.4,20.0,81,14.93,68,9.7,296.8,340.1,299.5
996.1,212,23.3,20.0,82,14.94,68,9.7,296.8,340.2,299.5
995.5,217,23.3,20.0,82,14.97,68,9.6,296.8,340.3,299.5
994.9,222,23.2,20.0,82,15.00,68,9.6,296.8,340.3,299.5
994.4,227,23.2,20.0,82,14.98,68,9.6,296.8,340.2,299.5
993.8,232,23.1,20.0,82,14.94,68,9.6,296.8,340.1,299.5
993.3,237,23.1,20.0,83,14.95,68,9.6,296.8,340.2,299.5
992.7,242,23.1,20.0,83,14.96,68,9.6,296.8,340.2,299.5
992.1,247,23.0,20.0,83,14.97,68,9.5,296.8,340.2,299.5
991.5,252,23.0,20.0,83,14.97,68,9.5,296.8,340.2,299.5
991.0,257,22.9,19.9,83,14.94,68,9.5,296.8,340.2,299.5
990.4,262,22.9,19.9,83,14.94,69,9.5,296.8,340.1,299.5
989.8,267,22.8,19.9,84,14.92,69,9.5,296.8,340.1,299.5
989.3,272,22.8,19.9,84,14.91,69,9.5,296.8,340.1,299.5
988.8,277,22.7,19.9,84,14.92,69,9.5,296.8,340.1,299.5
988.3,281,22.7,19.9,84,14.95,69,9.5,296.8,340.2,299.5
987.8,285,22.6,19.9,85,14.98,69,9.5,296.8,340.2,299.5
987.3,289,22.6,19.9,85,15.00,70,9.5,296.8,340.3,299.5
986.9,293,22.5,19.9,85,15.02,70,9.5,296.8,340.4,299.5
986.5,297,22.5,19.9,85,15.03,70,9.5,296.8,340.4,299.5
986.0,301,22.5,19.9,86,15.02,70,9.5,296.8,340.4,299.5
985.6,304,22.4,19.9,86,15.03,70,9.6,296.8,340.4,299.5
985.2,308,22.4,19.9,86,15.05,70,9.6,296.8,340.5,299.5
984.8,312,22.4,20.0,86,15.09,70,9.6,296.8,340.6,299.5
984.3,316,22.3,20.0,87,15.10,70,9.7,296.8,340.6,299.5
983.8,320,22.3,19.9,86,15.05,70,9.7,296.8,340.4,299.5
983.3,325,22.3,19.9,86,15.01,71,9.8,296.8,340.3,299.5
982.8,329,22.2,19.9,86,15.01,71,9.8,296.8,340.4,299.5
982.3,334,22.2,19.8,87,15.00,71,9.8,296.8,340.3,299.5
981.8,339,22.1,19.8,87,14.97,71,9.9,296.8,340.3,299.5
981.2,344,22.1,19.7,86,14.91,71,9.9,296.8,340.1,299.5
980.6,349,22.1,19.7,86,14.89,71,10.0,296.9,340.0,299.5
980.0,354,22.0,19.7,87,14.89,70,10.1,296.9,340.0,299.5
979.4,360,22.0,19.7,87,14.90,70,10.1,296.9,340.1,299.5
978.7,366,21.9,19.7,87,14.94,70,10.2,296.9,340.2,299.5
978.0,372,21.8,19.7,88,14.95,70,10.2,296.9,340.2,299.5
977.3,378,21.8,19.7,88,14.95,70,10.3,296.9,340.2,299.5
976.6,385,21.7,19.7,88,14.94,70,10.3,296.9,340.2,299.5
975.8,392,21.7,19.6,88,14.87,70,10.3,296.9,340.0,299.5
975.1,398,21.6,19.4,87,14.73,71,10.4,296.9,339.6,299.5
974.3,405,21.6,19.3,87,14.61,71,10.4,296.9,339.3,299.5
973.6,411,21.5,19.2,87,14.57,71,10.4,296.9,339.2,299.5
972.9,417,21.4,19.2,87,14.53,71,10.5,296.9,339.1,299.5
972.3,423,21.4,19.2,87,14.53,71,10.5,296.9,339.1,299.5
971.7,428,21.4,19.3,88,14.63,71,10.5,296.9,339.4,299.5
971.1,433,21.3,19.4,89,14.80,71,10.5,296.9,339.9,299.5
970.6,438,21.2,19.5,90,14.88,71,10.5,296.9,340.1,299.5
970.0,443,21.2,19.5,90,14.88,72,10.5,296.9,340.1,299.5
969.5,448,21.1,19.5,90,14.88,72,10.5,296.9,340.1,299.5
969.0,453,21.1,19.5,91,14.92,72,10.5,296.9,340.2,299.5
968.5,458,21.0,19.6,91,14.94,72,10.5,296.9,340.2,299.5
967.9,462,21.0,19.6,92,14.95,72,10.5,296.9,340.3,299.5
967.4,467,20.9,19.5,92,14.93,73,10.5,296.9,340.2,299.5
966.9,472,20.9,19.5,92,14.88,73,10.5,296.9,340.0,299.5
966.3,477,20.8,19.3,91,14.77,73,10.5,296.9,339.7,299.5
965.8,481,20.8,19.2,90,14.63,73,10.5,296.9,339.3,299.5
965.3,486,20.8,19.1,90,14.56,73,10.5,296.9,339.2,299.5
964.8,490,20.8,19.1,90,14.57,73,10.5,297.0,339.2,299.5
964.3,495,20.7,19.1,90,14.59,73,10.5,296.9,339.3,299.5
963.8,499,20.7,19.0,90,14.46,73,10.5,297.0,338.9,299.5
963.3,503,20.7,18.7,88,14.27,73,10.5,297.0,338.5,299.6
962.9,508,20.7,18.7,88,14.23,73,10.5,297.1,338.4,299.6
962.4,512,20.7,18.8,89,14.29,73,10.5,297.1,338.6,299.6
961.9,517,20.6,18.7,89,14.29,73,10.5,297.1,338.6,299.6
961.4,521,20.6,18.7,89,14.24,73,10.5,297.1,338.4,299.6
960.9,526,20.6,18.7,89,14.22,73,10.6,297.1,338.4,299.6
960.4,530,20.5,18.7,89,14.25,73,10.6,297.1,338.4,299.6
959.8,535,20.5,18.7,90,14.30,73,10.6,297.1,338.6,299.6
959.3,540,20.4,18.7,90,14.31,72,10.6,297.1,338.6,299.6
958.8,544,20.4,18.7,90,14.31,72,10.7,297.1,338.6,299.6
958.3,549,20.3,18.7,90,14.28,72,10.7,297.1,338.5,299.6
957.8,553,20.3,18.6,90,14.24,72,10.7,297.1,338.4,299.6
957.4,557,20.3,18.6,90,14.20,72,10.8,297.1,338.3,299.6
956.9,562,20.2,18.5,90,14.18,72,10.8,297.1,338.3,299.6
956.5,566,20.2,18.5,90,14.16,71,10.8,297.1,338.2,299.6
956.0,570,20.2,18.5,90,14.17,71,10.8,297.1,338.3,299.6
955.6,574,20.1,18.6,91,14.21,71,10.9,297.1,338.4,299.6
955.1,578,20.1,18.6,91,14.24,71,10.9,297.1,338.5,299.6
954.6,582,20.0,18.5,91,14.20,71,10.9,297.1,338.4,299.6
954.2,586,20.0,18.4,91,14.12,71,10.9,297.1,338.1,299.6
953.7,591,20.0,18.3,90,14.03,71,10.9,297.1,337.9,299.6
953.2,595,20.0,18.2,90,13.97,71,10.9,297.1,337.7,299.6
952.7,599,19.9,18.2,90,13.95,71,10.9,297.1,337.7,299.6
952.3,604,19.9,18.2,90,13.97,71,10.9,297.1,337.7,299.6
951.8,608,19.8,18.3,91,14.01,71,10.8,297.2,337.9,299.6
951.4,612,19.8,18.3,91,14.01,71,10.8,297.1,337.9,299.6
950.9,616,19.8,18.2,91,13.99,71,10.8,297.2,337.8,299.7
950.4,620,19.7,18.2,91,13.97,71,10.7,297.2,337.7,299.7
950.0,624,19.7,18.2,91,13.94,71,10.7,297.2,337.6,299.6
949.5,629,19.7,18.1,91,13.89,72,10.7,297.2,337.5,299.6
949.0,633,19.6,18.0,91,13.85,72,10.6,297.2,337.4,299.6
948.6,637,19.6,18.0,90,13.81,72,10.6,297.2,337.3,299.7
948.1,642,19.6,18.0,90,13.80,72,10.6,297.2,337.4,299.7
947.6,646,19.6,18.1,91,13.89,72,10.5,297.2,337.6,299.7
947.1,651,19.5,18.1,92,13.97,72,10.5,297.2,337.8,299.7
946.6,655,19.4,18.1,92,13.95,73,10.4,297.2,337.7,299.7
946.1,660,19.4,18.0,92,13.86,73,10.4,297.2,337.5,299.7
945.5,665,19.3,17.9,91,13.74,73,10.4,297.2,337.1,299.7
945.0,670,19.3,17.7,90,13.58,73,10.4,297.2,336.7,299.7
944.5,675,19.3,17.5,89,13.48,73,10.4,297.3,336.5,299.7
943.9,679,19.3,17.5,89,13.42,74,10.3,297.3,336.3,299.7
943.4,684,19.3,17.4,89,13.39,74,10.3,297.3,336.3,299.7
942.9,689,19.3,17.4,89,13.36,74,10.4,297.4,336.2,299.7
942.3,694,19.2,17.3,89,13.34,74,10.4,297.4,336.2,299.8
941.8,699,19.2,17.3,89,13.34,74,10.4,297.4,336.2,299.8
941.3,704,19.1,17.3,89,13.35,74,10.4,297.4,336.2,299.8
940.8,709,19.1,17.4,90,13.39,75,10.4,297.4,336.3,299.8
940.2,713,19.0,17.3,90,13.37,75,10.5,297.4,336.3,299.8
939.7,718,19.0,17.3,90,13.32,75,10.5,297.4,336.1,299.8
939.2,723,19.0,17.2,90,13.27,75,10.6,297.4,336.0,299.8
938.7,728,18.9,17.2,90,13.28,75,10.6,297.4,336.0,299.8
938.1,733,18.9,17.2,90,13.30,75,10.7,297.4,336.1,299.8
937.6,738,18.8,17.3,90,13.33,75,10.8,297.4,336.2,299.8
937.1,743,18.8,17.3,91,13.36,75,10.8,297.4,336.3,299.8
936.5,748,18.7,17.3,92,13.40,76,10.9,297.4,336.3,299.8
936.0,753,18.7,17.3,92,13.39,76,11.0,297.4,336.3,299.8
935.4,758,18.6,17.3,92,13.36,76,11.0,297.4,336.3,299.8
934.8,763,18.6,17.3,92,13.39,76,11.1,297.4,336.3,299.8
934.3,768,18.5,17.3,93,13.41,76,11.2,297.4,336.4,299.8
933.7,773,18.5,17.3,93,13.41,76,11.2,297.4,336.4,299.8
933.1,779,18.4,17.3,93,13.40,76,11.3,297.4,336.4,299.8
932.6,784,18.4,17.2,93,13.36,77,11.4,297.4,336.2,299.8
932.0,789,18.3,17.1,93,13.31,77,11.4,297.4,336.1,299.8
931.4,795,18.3,17.1,93,13.29,77,11.5,297.4,336.1,299.8
930.8,800,18.2,17.1,93,13.27,77,11.5,297.4,336.0,299.8
930.3,805,18.2,17.0,93,13.22,77,11.6,297.4,335.9,299.8
929.7,810,18.2,16.9,93,13.18,77,11.7,297.5,335.8,299.8
929.1,816,18.1,16.9,92,13.15,77,11.7,297.5,335.8,299.8
928.5,821,18.1,16.9,92,13.14,78,11.8,297.5,335.7,299.8
927.9,827,18.1,16.9,93,13.14,78,11.8,297.5,335.8,299.9
927.4,832,18.0,16.9,93,13.13,78,11.9,297.5,335.7,299.9
926.8,837,18.0,16.8,93,13.11,78,11.9,297.5,335.7,299.9
926.2,843,17.9,16.8,93,13.10,78,12.0,297.5,335.7,299.9
925.6,848,17.9,16.7,93,13.06,78,12.0,297.5,335.6,299.9
925.1,853,17.9,16.6,92,12.91,78,12.1,297.5,335.2,299.9
925.0,854,17.9,16.5,92,12.87,78,12.1,297.6,335.1,299.9
924.5,858,17.9,16.3,90,12.70,78,12.1,297.6,334.6,299.9
924.0,863,17.9,16.1,89,12.53,78,12.2,297.7,334.3,300.0
923.5,868,18.0,15.9,88,12.43,78,12.2,297.8,334.1,300.1
923.0,873,18.0,15.9,88,12.42,78,12.2,297.9,334.1,300.1
922.4,878,18.0,15.9,88,12.43,78,12.3,297.9,334.2,300.1
921.9,883,18.0,16.0,88,12.47,79,12.3,297.9,334.4,300.2
921.4,888,17.9,15.9,88,12.46,79,12.4,297.9,334.3,300.2
920.9,892,17.9,15.9,88,12.44,79,12.4,298.0,334.3,300.2
920.4,897,17.9,15.9,88,12.42,79,12.4,298.0,334.2,300.2
919.9,902,17.8,15.8,88,12.39,79,12.5,298.0,334.2,300.2
919.4,906,17.8,15.8,88,12.34,79,12.5,298.0,334.1,300.2
918.9,911,17.8,15.7,87,12.29,79,12.5,298.1,334.0,300.3
918.4,915,17.8,15.6,87,12.26,79,12.6,298.1,333.9,300.3
918.0,919,17.8,15.6,87,12.27,80,12.6,298.1,333.9,300.3
917.6,923,17.7,15.6,88,12.27,80,12.6,298.1,334.0,300.3
917.1,927,17.7,15.7,88,12.29,80,12.6,298.1,334.0,300.3
916.7,931,17.6,15.6,88,12.28,80,12.6,298.1,334.0,300.3
916.3,935,17.6,15.6,88,12.27,80,12.6,298.1,334.0,300.3
915.8,940,17.6,15.6,88,12.26,81,12.6,298.1,333.9,300.3
915.4,944,17.6,15.5,88,12.21,81,12.6,298.1,333.8,300.3
914.9,948,17.5,15.4,88,12.15,81,12.6,298.2,333.7,300.3
914.5,952,17.5,15.4,87,12.08,82,12.6,298.2,333.5,300.4
914.0,957,17.5,15.3,87,12.05,82,12.6,298.2,333.5,300.4
913.5,961,17.5,15.2,86,12.00,82,12.6,298.3,333.4,300.4
913.0,966,17.5,15.1,86,11.92,82,12.6,298.3,333.2,300.5
912.5,971,17.5,15.0,85,11.86,83,12.6,298.3,333.1,300.5
912.0,975,17.5,15.0,85,11.83,83,12.6,298.4,333.0,300.5
911.5,980,17.5,15.0,85,11.83,83,12.6,298.4,333.1,300.5
911.0,985,17.4,15.0,86,11.86,84,12.5,298.4,333.1,300.6
910.5,990,17.4,15.1,86,11.90,84,12.5,298.5,333.3,300.6
910.0,994,17.4,15.1,86,11.95,84,12.5,298.5,333.5,300.6
909.5,999,17.4,15.1,86,11.95,84,12.5,298.5,333.5,300.7
909.0,1004,17.4,15.1,86,11.94,84,12.5,298.5,333.5,300.7
908.5,1009,17.3,15.0,86,11.92,85,12.5,298.5,333.5,300.7
907.9,1014,17.3,15.0,87,11.93,85,12.5,298.6,333.5,300.7
907.4,1018,17.3,15.1,87,11.95,85,12.5,298.6,333.6,300.7
906.9,1023,17.2,15.1,87,11.98,85,12.5,298.6,333.7,300.7
906.4,1028,17.2,15.1,87,11.99,85,12.6,298.6,333.7,300.8
905.9,1033,17.2,15.0,87,11.93,85,12.6,298.6,333.6,300.8
905.4,1037,17.2,14.9,87,11.87,85,12.6,298.7,333.4,300.8
905.0,1041,17.1,14.9,87,11.83,85,12.6,298.7,333.3,300.8
904.6,1045,17.1,14.9,87,11.83,85,12.6,298.7,333.3,300.8
904.2,1049,17.1,14.9,87,11.85,85,12.7,298.7,333.4,300.8
903.8,1053,17.0,14.9,87,11.86,85,12.7,298.7,333.4,300.8
903.4,1057,17.0,14.9,87,11.85,84,12.7,298.7,333.4,300.8
903.0,1060,17.0,14.8,87,11.84,84,12.8,298.7,333.4,300.8
902.6,1064,17.0,14.8,87,11.84,84,12.8,298.7,333.4,300.8
902.2,1068,16.9,14.8,87,11.84,84,12.8,298.7,333.4,300.9
901.7,1072,16.9,14.8,88,11.85,84,12.8,298.7,333.5,300.9
901.3,1077,16.8,14.8,88,11.85,84,12.9,298.7,333.5,300.9
900.8,1081,16.8,14.8,88,11.85,84,12.9,298.7,333.5,300.9
900.3,1085,16.8,14.8,88,11.82,84,12.9,298.7,333.4,300.9
899.9,1090,16.7,14.7,88,11.77,83,12.9,298.7,333.2,300.8
899.4,1094,16.7,14.7,88,11.74,83,12.9,298.7,333.2,300.8
898.9,1099,16.6,14.6,88,11.72,83,12.9,298.7,333.1,300.8
898.5,1103,16.6,14.6,88,11.70,83,12.9,298.7,333.1,300.8
898.0,1108,16.6,14.6,88,11.68,83,12.9,298.8,333.0,300.9
897.6,1112,16.6,14.5,88,11.66,83,12.9,298.8,333.0,300.9
897.1,1116,16.5,14.5,88,11.65,83,12.9,298.8,333.0,300.9
896.7,1120,16.5,14.4,88,11.61,83,12.9,298.8,332.8,300.9
896.3,1124,16.5,14.4,88,11.58,83,12.9,298.8,332.8,300.9
895.9,1128,16.4,14.4,88,11.59,83,12.9,298.8,332.8,300.9
895.5,1132,16.4,14.4,88,11.60,83,12.9,298.8,332.9,300.9
895.1,1135,16.4,14.4,88,11.62,83,12.8,298.8,332.9,300.9
894.7,1139,16.4,14.4,88,11.64,83,12.8,298.9,333.0,300.9
894.3,1143,16.3,14.5,89,11.66,83,12.8,298.8,333.1,300.9
893.8,1148,16.3,14.5,89,11.68,84,12.8,298.9,333.1,301.0
893.3,1153,16.2,14.5,89,11.70,84,12.8,298.9,333.2,301.0
892.8,1158,16.2,14.5,90,11.74,84,12.8,298.9,333.3,301.0
892.2,1163,16.1,14.6,90,11.78,84,12.9,298.9,333.4,301.0
891.6,1168,16.1,14.6,91,11.82,84,12.9,298.9,333.6,301.0
891.1,1174,16.0,14.6,91,11.83,85,12.9,298.9,333.6,301.0
890.4,1180,16.0,14.7,92,11.86,85,12.9,298.9,333.7,301.0
889.8,1186,15.9,14.7,92,11.89,85,12.9,298.9,333.8,301.0
889.2,1192,15.9,14.7,93,11.91,86,13.0,298.9,333.8,301.0
888.6,1197,15.8,14.7,93,11.91,86,13.0,298.9,333.8,301.0
888.0,1203,15.8,14.7,93,11.89,86,13.0,298.9,333.8,301.0
887.4,1209,15.7,14.7,93,11.91,86,13.1,298.9,333.8,301.0
886.8,1214,15.7,14.6,93,11.89,87,13.1,298.9,333.8,301.1
886.3,1220,15.7,14.6,93,11.86,87,13.1,299.0,333.8,301.1
885.7,1225,15.7,14.5,93,11.84,87,13.2,299.0,333.8,301.1
885.1,1231,15.7,14.5,93,11.81,87,13.2,299.1,333.7,301.2
884.6,1236,15.7,14.4,92,11.77,88,13.2,299.1,333.7,301.2
884.0,1242,15.7,14.3,92,11.70,88,13.2,299.2,333.5,301.3
883.4,1247,15.7,14.2,91,11.62,88,13.3,299.2,333.4,301.3
882.8,1253,15.7,14.1,90,11.55,88,13.3,299.3,333.3,301.4
882.2,1259,15.7,14.0,90,11.49,89,13.3,299.4,333.2,301.4
881.7,1264,15.7,14.0,90,11.47,89,13.3,299.4,333.1,301.5
881.1,1270,15.6,13.9,90,11.43,89,13.3,299.4,333.0,301.5
880.6,1275,15.6,13.9,89,11.38,89,13.3,299.4,332.9,301.5
880.0,1280,15.6,13.8,89,11.37,89,13.3,299.5,332.9,301.5
879.6,1285,15.6,13.9,90,11.40,90,13.3,299.5,333.0,301.5
879.1,1289,15.5,13.9,90,11.43,90,13.3,299.5,333.1,301.6
878.6,1294,15.5,13.9,90,11.46,90,13.3,299.5,333.2,301.6
878.1,1299,15.5,14.0,91,11.50,90,13.3,299.5,333.4,301.6
877.6,1303,15.4,14.0,91,11.52,90,13.3,299.5,333.5,301.6
877.1,1308,15.4,14.0,91,11.51,90,13.3,299.6,333.4,301.6
876.6,1313,15.4,13.9,91,11.49,91,13.3,299.6,333.4,301.6
876.1,1318,15.3,13.9,91,11.50,91,13.2,299.6,333.4,301.7
875.6,1323,15.3,14.0,92,11.52,91,13.2,299.6,333.5,301.7
875.1,1328,15.3,14.0,92,11.53,91,13.2,299.6,333.5,301.7
874.6,1333,15.2,13.9,92,11.50,91,13.2,299.6,333.5,301.7
874.1,1337,15.2,13.9,92,11.46,91,13.2,299.6,333.4,301.7
873.7,1342,15.1,13.8,92,11.45,91,13.2,299.6,333.3,301.7
873.2,1346,15.1,13.9,92,11.48,91,13.2,299.6,333.4,301.7
872.8,1351,15.1,13.9,93,11.51,92,13.2,299.6,333.5,301.7
872.3,1355,15.0,13.9,93,11.51,92,13.2,299.7,333.5,301.7
871.9,1359,15.0,13.8,93,11.49,92,13.2,299.6,333.5,301.7
871.5,1363,15.0,13.8,93,11.47,92,13.2,299.7,333.4,301.7
871.1,1367,14.9,13.8,93,11.47,92,13.2,299.7,333.4,301.7
870.7,1371,14.9,13.8,93,11.47,92,13.2,299.7,333.5,301.7
870.3,1374,14.9,13.8,93,11.48,92,13.2,299.7,333.5,301.8
870.0,1378,14.9,13.8,94,11.50,92,13.2,299.7,333.6,301.8
869.6,1381,14.8,13.9,94,11.54,92,13.2,299.7,333.7,301.8
869.3,1385,14.8,13.9,94,11.57,92,13.2,299.7,333.8,301.8
868.9,1388,14.8,13.9,94,11.59,92,13.3,299.8,333.9,301.8
868.6,1391,14.8,13.9,95,11.59,92,13.3,299.8,333.9,301.8
868.2,1395,14.8,13.9,95,11.59,92,13.3,299.8,333.9,301.9
867.9,1398,14.7,13.9,95,11.59,92,13.3,299.8,333.9,301.8
867.5,1402,14.7,13.9,95,11.58,92,13.3,299.8,333.9,301.9
867.1,1405,14.7,13.9,95,11.59,92,13.3,299.8,333.9,301.9
866.7,1409,14.6,13.9,95,11.59,92,13.2,299.8,333.9,301.9
866.3,1414,14.6,13.9,95,11.59,91,13.2,299.8,333.9,301.9
865.9,1418,14.6,13.9,96,11.59,91,13.2,299.8,333.9,301.9
865.4,1422,14.5,13.9,96,11.58,91,13.2,299.8,333.9,301.9
864.9,1427,14.5,13.8,96,11.54,91,13.2,299.8,333.8,301.9
864.5,1431,14.5,13.7,95,11.48,91,13.1,299.8,333.7,301.9
864.0,1436,14.5,13.6,95,11.42,91,13.1,299.9,333.6,301.9
863.6,1440,14.5,13.6,94,11.40,91,13.1,299.9,333.5,302.0
863.2,1444,14.4,13.6,95,11.42,91,13.0,299.9,333.6,302.0
862.8,1448,14.4,13.6,95,11.45,91,13.0,299.9,333.7,302.0
862.3,1453,14.4,13.6,95,11.46,91,12.9,300.0,333.8,302.0
861.9,1457,14.4,13.6,95,11.45,91,12.9,300.0,333.7,302.0
861.4,1461,14.3,13.6,95,11.44,91,12.8,300.0,333.7,302.1
861.0,1466,14.3,13.6,95,11.44,91,12.8,300.0,333.8,302.1
860.5,1470,14.3,13.5,95,11.41,91,12.7,300.0,333.7,302.1
860.1,1475,14.3,13.5,95,11.39,91,12.7,300.0,333.6,302.1
859.6,1479,14.2,13.5,95,11.38,91,12.6,300.1,333.6,302.1
859.1,1484,14.2,13.5,95,11.37,91,12.6,300.1,333.7,302.2
858.6,1489,14.2,13.4,95,11.35,91,12.5,300.1,333.6,302.2
858.2,1494,14.2,13.3,95,11.28,91,12.4,300.1,333.4,302.2
857.7,1498,14.1,13.2,94,11.21,91,12.4,300.1,333.2,302.2
857.3,1502,14.1,13.2,94,11.16,91,12.4,300.2,333.1,302.2
856.9,1506,14.1,13.1,94,11.16,91,12.3,300.2,333.2,302.2
856.5,1510,14.1,13.2,94,11.18,92,12.3,300.2,333.2,302.2
856.1,1514,14.1,13.2,94,11.19,92,12.2,300.2,333.3,302.3
855.6,1518,14.1,13.2,94,11.21,92,12.2,300.3,333.4,302.3
855.2,1523,14.1,13.2,94,11.20,92,12.2,300.3,333.5,302.4
854.7,1528,14.1,13.2,94,11.21,92,12.2,300.4,333.5,302.4
854.2,1533,14.1,13.2,94,11.22,92,12.2,300.4,333.6,302.5
853.6,1538,14.1,13.1,94,11.14,92,12.2,300.5,333.4,302.5
853.1,1544,14.1,12.9,93,11.05,93,12.1,300.5,333.2,302.5
852.6,1549,14.1,12.8,92,10.97,93,12.1,300.6,333.0,302.6
852.1,1554,14.0,12.7,92,10.90,93,12.2,300.6,332.9,302.6
851.5,1559,14.0,12.6,91,10.83,93,12.2,300.7,332.7,302.6
851.1,1564,14.0,12.5,91,10.76,93,12.2,300.7,332.6,302.6
850.6,1569,14.0,12.4,90,10.72,93,12.2,300.7,332.5,302.7
850.1,1573,14.0,12.4,90,10.70,94,12.2,300.7,332.5,302.7
850.0,1574,14.0,12.4,90,10.70,94,12.2,300.7,332.5,302.7
849.6,1578,13.9,12.4,90,10.69,94,12.2,300.8,332.5,302.7
849.2,1583,13.9,12.3,90,10.68,94,12.2,300.8,332.4,302.7
848.7,1588,13.9,12.3,90,10.68,94,12.3,300.8,332.4,302.7
848.2,1593,13.8,12.3,90,10.67,94,12.3,300.8,332.4,302.7
847.7,1598,13.8,12.3,90,10.65,94,12.3,300.8,332.4,302.8
847.1,1603,13.8,12.2,90,10.62,94,12.3,300.9,332.4,302.8
846.6,1608,13.8,12.2,90,10.62,94,12.3,300.9,332.4,302.8
846.1,1613,13.7,12.3,91,10.68,94,12.4,300.9,332.6,302.9
845.6,1618,13.7,12.4,91,10.73,94,12.4,301.0,332.8,302.9
845.1,1623,13.7,12.4,92,10.76,94,12.4,301.0,332.9,302.9
844.7,1628,13.7,12.4,92,10.79,94,12.4,301.0,333.1,303.0
844.2,1632,13.7,12.5,92,10.82,94,12.4,301.1,333.2,303.0
843.8,1636,13.7,12.4,92,10.82,94,12.4,301.1,333.1,303.0
843.4,1640,13.6,12.4,92,10.81,94,12.5,301.1,333.1,303.0
843.0,1644,13.6,12.4,93,10.81,94,12.5,301.1,333.1,303.0
842.6,1648,13.6,12.4,93,10.82,94,12.5,301.1,333.2,303.0
842.2,1652,13.5,12.5,93,10.85,93,12.5,301.1,333.3,303.1
841.8,1656,13.5,12.5,93,10.87,93,12.5,301.1,333.3,303.1
841.5,1660,13.5,12.5,94,10.87,93,12.5,301.1,333.4,303.1
841.1,1664,13.5,12.5,94,10.87,93,12.6,301.1,333.4,303.1
840.7,1667,13.4,12.5,94,10.90,93,12.6,301.1,333.5,303.1
840.3,1671,13.4,12.5,94,10.93,93,12.6,301.2,333.6,303.1
840.0,1675,13.4,12.5,95,10.94,93,12.6,301.2,333.6,303.1
839.6,1679,13.3,12.6,95,10.95,93,12.6,301.2,333.6,303.1
839.1,1683,13.3,12.6,95,10.98,93,12.6,301.2,333.7,303.2
838.7,1688,13.3,12.6,96,10.99,93,12.7,301.2,333.8,303.2
838.2,1693,13.2,12.6,96,10.97,93,12.7,301.2,333.7,303.2
837.7,1698,13.2,12.5,96,10.93,94,12.7,301.2,333.6,303.2
837.1,1703,13.1,12.4,95,10.84,94,12.7,301.2,333.4,303.2
