PRES,HGHT,TEMP,DWPT,RELH,MIXR,DRCT,SPED,THTA,THTE,THTV
1008.6,31,21.1,19.9,93,14.69,268,2.8,293.5,335.5,296.1
1008.1,35,21.4,20.0,91,14.71,281,1.8,293.9,336.0,296.5
1007.4,41,21.6,20.0,90,14.74,285,1.8,294.1,336.4,296.7
1006.8,46,22.1,20.0,88,14.79,285,1.8,294.7,337.1,297.3
1006.4,49,22.5,19.9,85,14.66,284,1.9,295.1,337.3,297.7
1005.8,55,22.9,19.9,83,14.66,282,1.9,295.6,337.9,298.2
1005.1,61,23.3,19.9,81,14.71,281,2.0,296.0,338.5,298.6
1004.5,66,23.4,19.9,80,14.67,279,2.0,296.2,338.6,298.8
1003.9,72,23.4,19.9,81,14.68,278,2.1,296.2,338.7,298.8
1003.2,77,23.4,19.9,81,14.74,276,2.1,296.3,338.9,298.9
1002.6,82,23.4,19.9,81,14.79,274,2.1,296.3,339.1,298.9
1002.0,87,23.3,20.0,81,14.82,272,2.1,296.3,339.2,299.0
1001.5,92,23.3,20.0,82,14.85,270,2.1,296.3,339.3,299.0
1000.9,97,23.3,20.0,82,14.87,267,2.0,296.3,339.4,299.0
1000.4,102,23.2,20.0,82,14.86,265,2.0,296.3,339.3,299.0
1000.0,105,23.2,20.0,82,14.86,265,2.0,296.4,339.4,299.0
999.8,107,23.2,20.0,82,14.87,261,2.0,296.4,339.4,299.0
999.3,112,23.2,20.0,82,14.90,258,1.9,296.4,339.5,299.0
998.7,117,23.2,20.1,83,14.99,254,1.9,296.4,339.8,299.1
998.2,122,23.2,20.2,83,15.06,250,1.9,296.5,340.1,299.1
997.6,127,23.2,20.2,84,15.15,246,1.8,296.5,340.4,299.2
997.0,132,23.2,20.3,84,15.19,241,1.8,296.6,340.6,299.3
996.4,137,23.1,20.3,84,15.21,237,1.8,296.6,340.6,299.3
995.8,142,23.1,20.3,84,15.21,232,1.7,296.6,340.7,299.3
995.2,148,23.0,20.3,85,15.23,227,1.7,296.6,340.7,299.3
994.6,153,23.0,20.3,85,15.24,222,1.7,296.6,340.8,299.3
994.0,158,22.9,20.3,85,15.23,217,1.7,296.6,340.7,299.3
993.4,163,22.9,20.2,85,15.20,212,1.7,296.6,340.6,299.3
992.8,168,22.8,20.2,85,15.20,207,1.7,296.6,340.6,299.3
992.3,173,22.8,20.2,85,15.22,203,1.7,296.6,340.7,299.3
991.7,178,22.7,20.2,86,15.20,199,1.8,296.6,340.6,299.3
991.1,183,22.7,20.2,86,15.20,195,1.8,296.6,340.6,299.3
990.6,188,22.7,20.2,86,15.23,192,1.8,296.6,340.7,299.3
990.1,193,22.6,20.2,86,15.27,188,1.8,296.6,340.8,299.3
989.5,198,22.6,20.3,87,15.28,185,1.8,296.6,340.9,299.4
989.0,202,22.6,20.3,87,15.29,182,1.8,296.6,341.0,299.4
988.4,207,22.5,20.3,87,15.30,179,1.8,296.6,341.0,299.4
987.9,212,22.5,20.2,87,15.30,176,1.8,296.7,341.0,299.4
987.3,217,22.5,20.2,87,15.30,174,1.8,296.7,341.0,299.4
986.7,222,22.4,20.2,87,15.28,171,1.8,296.7,341.0,299.4
986.2,227,22.4,20.2,87,15.29,168,1.8,296.7,341.0,299.5
985.6,232,22.4,20.2,87,15.30,166,1.8,296.8,341.1,299.5
985.0,237,22.3,20.2,88,15.30,163,1.8,296.8,341.1,299.5
984.4,242,22.3,20.2,88,15.31,161,1.8,296.8,341.2,299.5
983.9,248,22.3,20.2,88,15.33,158,1.8,296.8,341.2,299.5
983.3,253,22.2,20.2,88,15.33,156,1.7,296.8,341.2,299.5
982.7,258,22.2,20.2,88,15.30,153,1.7,296.8,341.1,299.5
982.2,263,22.1,20.1,88,15.27,151,1.7,296.8,341.0,299.5
981.6,267,22.1,20.1,88,15.26,149,1.7,296.8,341.0,299.5
981.1,272,22.0,20.1,89,15.26,146,1.7,296.8,341.1,299.5
980.5,277,22.0,20.1,89,15.28,144,1.7,296.8,341.1,299.5
980.0,282,22.0,20.1,89,15.27,142,1.7,296.8,341.1,299.5
979.5,287,21.9,20.1,89,15.26,139,1.7,296.8,341.1,299.5
978.9,291,21.9,20.1,89,15.28,137,1.7,296.9,341.2,299.6
978.4,296,21.9,20.1,90,15.29,135,1.8,296.9,341.2,299.6
977.9,301,21.8,20.1,90,15.29,134,1.8,296.9,341.2,299.6
977.3,306,21.8,20.0,90,15.28,132,1.8,296.9,341.2,299.6
976.8,310,21.8,20.0,90,15.26,131,1.8,296.9,341.2,299.6
976.3,315,21.7,20.0,90,15.24,129,1.8,296.9,341.1,299.6
975.7,320,21.7,20.0,90,15.22,128,1.9,296.9,341.0,299.6
975.2,325,21.6,20.0,90,15.23,127,1.9,296.9,341.1,299.6
974.7,329,21.6,20.0,90,15.25,125,1.9,296.9,341.1,299.6
974.2,334,21.6,20.0,91,15.29,124,2.0,296.9,341.3,299.6
973.6,339,21.5,20.0,91,15.32,124,2.0,297.0,341.4,299.7
973.1,343,21.5,20.0,91,15.31,123,2.0,297.0,341.4,299.7
972.6,348,21.5,20.0,91,15.32,122,2.1,297.0,341.4,299.7
972.1,352,21.5,20.0,92,15.35,121,2.1,297.0,341.5,299.7
971.6,357,21.4,20.0,92,15.35,121,2.1,297.0,341.5,299.7
971.1,362,21.4,20.0,92,15.35,120,2.1,297.0,341.5,299.7
970.5,367,21.4,20.0,92,15.34,120,2.2,297.0,341.5,299.8
970.0,371,21.3,19.9,92,15.30,119,2.2,297.0,341.4,299.8
969.4,376,21.3,19.9,92,15.22,119,2.2,297.0,341.2,299.8
968.9,381,21.3,19.8,91,15.13,119,2.2,297.1,341.0,299.8
968.3,386,21.3,19.7,91,15.10,119,2.2,297.1,341.0,299.8
967.8,391,21.2,19.7,91,15.13,119,2.2,297.1,341.0,299.8
967.2,396,21.2,19.8,92,15.18,118,2.2,297.1,341.2,299.8
966.6,402,21.1,19.8,92,15.18,118,2.2,297.1,341.2,299.8
966.0,407,21.0,19.7,92,15.15,118,2.2,297.1,341.1,299.8
965.4,412,21.0,19.7,92,15.15,119,2.2,297.1,341.1,299.8
964.8,418,20.9,19.7,93,15.18,119,2.2,297.1,341.2,299.8
964.2,423,20.9,19.8,93,15.22,119,2.3,297.1,341.3,299.8
963.6,429,20.8,19.8,94,15.22,120,2.3,297.1,341.3,299.8
963.0,434,20.8,19.7,93,15.17,120,2.3,297.1,341.1,299.8
962.4,440,20.7,19.6,93,15.05,121,2.3,297.1,340.8,299.8
961.8,445,20.7,19.4,92,14.94,121,2.3,297.1,340.5,299.8
961.2,450,20.7,19.4,93,14.93,122,2.2,297.2,340.5,299.8
960.6,455,20.6,19.5,93,15.03,123,2.2,297.2,340.8,299.8
960.1,460,20.6,19.6,94,15.10,124,2.2,297.1,341.0,299.8
959.5,466,20.5,19.6,94,15.09,125,2.2,297.1,340.9,299.8
959.0,471,20.4,19.5,94,15.04,126,2.2,297.1,340.8,299.8
958.4,476,20.4,19.5,94,15.04,127,2.2,297.1,340.8,299.8
957.9,481,20.4,19.6,95,15.13,128,2.2,297.1,341.1,299.8
957.3,486,20.3,19.6,96,15.21,129,2.2,297.1,341.3,299.8
956.7,491,20.2,19.7,97,15.25,130,2.2,297.1,341.4,299.8
956.1,496,20.2,19.7,97,15.24,131,2.2,297.1,341.3,299.8
955.5,502,20.1,19.6,97,15.23,133,2.2,297.1,341.3,299.8
954.9,507,20.1,19.6,97,15.23,134,2.2,297.1,341.3,299.8
954.3,513,20.0,19.6,97,15.24,135,2.2,297.1,341.4,299.8
953.7,519,20.0,19.6,98,15.20,136,2.2,297.1,341.2,299.8
953.0,525,19.9,19.5,97,15.13,137,2.2,297.1,341.0,299.8
952.4,530,19.9,19.4,97,15.10,138,2.2,297.1,340.9,299.8
951.8,536,19.8,19.4,98,15.09,139,2.2,297.1,340.9,299.8
951.2,541,19.8,19.3,97,14.95,140,2.1,297.1,340.5,299.8
950.7,546,19.8,18.9,95,14.61,141,2.1,297.2,339.6,299.8
950.2,550,19.8,18.5,92,14.22,141,2.1,297.3,338.6,299.8
949.7,555,19.9,18.2,90,14.00,142,2.1,297.4,338.1,299.9
949.2,559,19.9,18.1,90,13.91,142,2.1,297.4,337.9,299.9
948.7,564,19.9,18.1,89,13.88,143,2.0,297.5,337.8,299.9
948.2,568,19.9,18.0,89,13.86,143,2.0,297.5,337.8,300.0
947.7,573,19.8,18.0,89,13.86,143,2.0,297.5,337.8,300.0
947.2,577,19.8,18.0,90,13.87,142,2.0,297.5,337.9,300.0
946.7,582,19.8,18.0,90,13.89,142,2.0,297.5,337.9,300.0
946.1,587,19.7,18.1,90,13.92,141,1.9,297.5,338.0,300.0
945.6,592,19.7,18.1,91,13.94,141,1.9,297.5,338.1,300.0
945.0,597,19.6,18.1,91,13.96,140,1.9,297.5,338.1,300.0
944.5,602,19.6,18.1,91,13.94,139,1.9,297.5,338.1,300.0
943.9,607,19.5,18.0,91,13.88,138,1.9,297.5,337.9,300.0
943.4,612,19.4,17.9,91,13.81,137,1.9,297.5,337.7,300.0
942.9,617,19.4,17.9,91,13.79,135,1.9,297.5,337.6,300.0
942.3,622,19.3,17.9,91,13.83,134,1.9,297.5,337.7,300.0
941.8,627,19.3,17.9,92,13.84,133,1.9,297.5,337.8,300.0
941.3,631,19.3,17.9,92,13.82,132,1.9,297.5,337.7,300.0
940.8,636,19.2,17.8,92,13.79,131,2.0,297.5,337.7,300.0
940.4,640,19.2,17.8,91,13.77,130,2.0,297.5,337.6,300.0
939.9,644,19.2,17.8,91,13.75,130,2.0,297.6,337.6,300.0
939.4,649,19.2,17.7,91,13.73,129,2.0,297.6,337.6,300.0
938.9,653,19.2,17.7,91,13.73,129,2.0,297.6,337.6,300.1
938.4,658,19.1,17.7,92,13.75,128,2.1,297.6,337.6,300.1
937.9,662,19.1,17.7,92,13.74,128,2.1,297.6,337.6,300.1
937.4,667,19.0,17.7,92,13.72,128,2.1,297.6,337.6,300.1
936.9,672,19.0,17.7,92,13.69,129,2.1,297.6,337.5,300.1
936.4,677,18.9,17.6,92,13.67,129,2.1,297.6,337.4,300.0
935.9,681,18.9,17.6,92,13.68,130,2.1,297.6,337.4,300.0
935.4,686,18.8,17.6,93,13.68,131,2.1,297.6,337.4,300.0
934.8,691,18.8,17.6,93,13.68,131,2.0,297.6,337.5,300.1
934.3,696,18.8,17.6,93,13.67,132,2.0,297.6,337.4,300.1
933.8,700,18.7,17.5,93,13.62,133,2.0,297.6,337.3,300.1
933.3,705,18.7,17.4,92,13.50,135,2.0,297.7,337.0,300.1
932.8,710,18.7,17.2,91,13.36,136,1.9,297.7,336.6,300.1
932.3,715,18.7,17.1,90,13.27,137,1.9,297.8,336.5,300.2
931.7,719,18.7,17.1,90,13.25,138,1.8,297.8,336.5,300.2
931.2,724,18.7,17.1,90,13.28,140,1.8,297.8,336.6,300.2
930.7,729,18.6,17.1,91,13.31,141,1.7,297.8,336.6,300.2
930.2,734,18.6,17.1,91,13.26,143,1.7,297.9,336.5,300.2
929.6,739,18.6,17.0,90,13.19,144,1.6,297.9,336.3,300.2
929.1,744,18.6,16.8,90,13.10,146,1.6,297.9,336.1,300.3
928.5,750,18.6,16.8,89,13.07,147,1.5,298.0,336.1,300.3
927.9,755,18.5,16.7,89,13.03,149,1.5,298.0,336.0,300.3
927.3,760,18.5,16.6,89,12.93,150,1.4,298.0,335.7,300.3
926.8,765,18.4,16.4,88,12.80,152,1.4,298.0,335.3,300.3
926.2,771,18.5,16.3,87,12.67,153,1.3,298.1,335.1,300.3
925.6,776,18.5,16.2,87,12.62,154,1.3,298.1,335.0,300.4
925.1,781,18.5,16.2,87,12.61,155,1.2,298.2,335.0,300.4
925.0,782,18.4,16.2,87,12.60,156,1.2,298.2,335.0,300.4
924.5,786,18.4,16.2,87,12.59,156,1.2,298.2,335.0,300.4
924.0,791,18.4,16.1,87,12.57,157,1.1,298.2,334.9,300.4
923.4,797,18.4,16.1,86,12.52,157,1.1,298.2,334.8,300.5
922.9,802,18.3,16.0,86,12.47,157,1.1,298.2,334.7,300.5
922.4,807,18.3,15.9,86,12.42,158,1.1,298.2,334.5,300.4
921.8,811,18.2,15.8,86,12.37,158,1.1,298.2,334.4,300.5
921.3,816,18.2,15.8,86,12.32,158,1.1,298.3,334.3,300.5
920.8,821,18.2,15.7,85,12.24,158,1.1,298.3,334.1,300.5
920.2,826,18.2,15.5,85,12.16,157,1.1,298.3,333.9,300.5
919.7,831,18.2,15.4,84,12.06,157,1.1,298.4,333.7,300.5
919.2,836,18.2,15.3,83,11.94,156,1.1,298.4,333.4,300.6
918.7,841,18.2,15.1,82,11.85,156,1.2,298.5,333.2,300.6
918.2,846,18.2,15.0,82,11.79,155,1.2,298.5,333.1,300.6
917.7,850,18.2,15.0,82,11.78,155,1.2,298.6,333.1,300.7
917.2,855,18.2,15.0,82,11.77,155,1.3,298.6,333.1,300.7
916.7,860,18.1,15.0,82,11.77,155,1.3,298.6,333.1,300.7
916.2,864,18.1,14.9,82,11.72,155,1.4,298.6,333.0,300.7
915.7,869,18.1,14.9,81,11.69,155,1.4,298.7,333.0,300.8
915.2,873,18.1,14.9,82,11.72,155,1.5,298.7,333.1,300.8
914.7,878,18.1,14.9,82,11.72,155,1.5,298.7,333.1,300.8
914.3,882,18.0,14.9,82,11.72,155,1.6,298.7,333.1,300.8
913.8,887,18.0,14.8,82,11.70,156,1.6,298.7,333.0,300.8
913.3,891,17.9,14.8,82,11.65,156,1.7,298.7,332.9,300.8
912.9,895,17.9,14.7,82,11.58,157,1.7,298.7,332.7,300.8
912.4,900,17.9,14.6,81,11.54,158,1.7,298.7,332.6,300.8
911.9,904,17.8,14.6,81,11.50,158,1.8,298.8,332.5,300.8
911.4,909,17.8,14.5,81,11.47,159,1.8,298.8,332.4,300.8
910.9,914,17.8,14.5,81,11.45,160,1.9,298.8,332.4,300.9
910.4,919,17.8,14.5,81,11.45,161,1.9,298.8,332.4,300.9
909.8,924,17.7,14.5,81,11.47,162,2.0,298.8,332.5,300.9
909.3,929,17.7,14.5,82,11.49,164,2.0,298.8,332.6,300.9
908.7,935,17.6,14.5,82,11.50,165,2.1,298.8,332.6,300.9
908.1,940,17.6,14.4,82,11.46,166,2.1,298.8,332.5,300.9
907.5,945,17.5,14.4,82,11.41,167,2.2,298.9,332.4,300.9
907.0,951,17.5,14.3,82,11.39,168,2.2,298.9,332.3,300.9
906.5,956,17.5,14.3,82,11.38,169,2.3,298.9,332.3,300.9
906.0,960,17.4,14.3,82,11.38,170,2.4,298.9,332.3,300.9
905.5,965,17.4,14.3,82,11.38,171,2.4,298.9,332.3,300.9
905.0,969,17.4,14.3,82,11.38,172,2.5,298.9,332.3,300.9
904.5,974,17.3,14.3,82,11.38,173,2.6,298.9,332.3,301.0
904.1,978,17.3,14.3,82,11.38,173,2.7,298.9,332.3,301.0
903.6,983,17.3,14.3,83,11.39,174,2.8,298.9,332.4,301.0
903.2,987,17.2,14.3,83,11.40,174,2.8,298.9,332.4,301.0
902.7,991,17.2,14.2,83,11.37,175,2.9,298.9,332.3,301.0
902.3,996,17.1,14.1,83,11.31,175,3.0,298.9,332.2,301.0
901.8,1000,17.1,14.0,82,11.25,175,3.1,298.9,332.0,301.0
901.3,1004,17.1,14.0,82,11.18,175,3.2,299.0,331.8,301.0
900.9,1008,17.1,13.9,82,11.15,175,3.3,299.0,331.8,301.0
900.4,1013,17.0,13.9,82,11.17,175,3.4,299.0,331.8,301.0
900.0,1017,17.0,13.9,82,11.16,175,3.4,299.0,331.8,301.0
899.6,1021,17.0,13.9,82,11.18,174,3.5,299.0,331.9,301.0
899.1,1025,17.0,13.9,82,11.21,174,3.6,299.1,332.0,301.1
898.7,1029,16.9,13.9,83,11.21,174,3.6,299.1,332.0,301.1
898.2,1034,16.9,13.9,83,11.19,173,3.7,299.1,332.0,301.1
897.8,1038,16.9,13.8,82,11.13,173,3.7,299.1,331.8,301.1
897.3,1042,16.9,13.7,82,11.07,172,3.8,299.1,331.7,301.1
896.9,1047,16.9,13.7,82,11.04,171,3.8,299.2,331.6,301.2
896.4,1051,16.8,13.7,82,11.03,171,3.8,299.2,331.6,301.2
895.9,1055,16.8,13.7,82,11.03,170,3.8,299.2,331.6,301.2
895.5,1060,16.8,13.6,82,11.03,169,3.8,299.2,331.6,301.2
895.0,1064,16.7,13.6,82,11.01,168,3.8,299.2,331.6,301.2
894.5,1069,16.7,13.6,82,10.98,167,3.8,299.2,331.5,301.2
894.1,1073,16.6,13.5,82,10.94,166,3.8,299.2,331.4,301.2
893.6,1078,16.6,13.4,81,10.88,165,3.7,299.2,331.2,301.2
893.1,1082,16.6,13.3,81,10.82,164,3.7,299.2,331.1,301.2
892.7,1087,16.6,13.2,81,10.77,163,3.6,299.2,331.0,301.2
892.2,1091,16.5,13.1,80,10.69,162,3.6,299.3,330.8,301.2
891.8,1095,16.5,13.0,80,10.61,161,3.5,299.3,330.6,301.2
891.3,1099,16.5,12.9,79,10.54,160,3.4,299.4,330.5,301.3
890.9,1103,16.5,12.8,79,10.50,159,3.3,299.4,330.4,301.3
890.5,1107,16.5,12.8,79,10.48,158,3.3,299.4,330.3,301.3
890.1,1111,16.5,12.8,79,10.50,157,3.2,299.4,330.4,301.3
889.7,1115,16.4,12.8,79,10.51,156,3.1,299.4,330.4,301.3
889.3,1119,16.4,12.8,79,10.52,155,3.0,299.4,330.4,301.3
888.9,1123,16.4,12.8,80,10.53,155,2.9,299.4,330.5,301.3
888.4,1127,16.3,12.8,80,10.54,154,2.8,299.4,330.5,301.3
888.0,1132,16.3,12.9,80,10.56,154,2.7,299.5,330.6,301.4
887.5,1136,16.3,12.9,80,10.57,153,2.6,299.5,330.6,301.4
887.0,1141,16.2,12.9,80,10.57,153,2.5,299.5,330.6,301.4
886.5,1146,16.2,12.9,81,10.57,153,2.4,299.5,330.6,301.4
886.0,1151,16.1,12.8,81,10.57,154,2.4,299.5,330.6,301.4
885.4,1156,16.1,12.8,81,10.55,154,2.3,299.5,330.6,301.4
884.9,1162,16.0,12.7,81,10.51,155,2.2,299.5,330.4,301.4
884.3,1167,16.0,12.7,81,10.51,156,2.1,299.5,330.5,301.4
883.7,1173,15.9,12.8,81,10.54,158,2.0,299.5,330.5,301.4
883.2,1178,15.9,12.8,82,10.58,160,2.0,299.5,330.7,301.4
882.6,1184,15.9,12.9,82,10.62,162,1.9,299.5,330.8,301.4
882.0,1189,15.8,12.8,83,10.62,164,1.9,299.5,330.8,301.4
881.5,1194,15.8,12.8,83,10.59,166,1.8,299.5,330.7,301.4
880.9,1200,15.7,12.7,82,10.55,168,1.8,299.5,330.6,301.4
880.4,1205,15.7,12.7,82,10.52,170,1.8,299.6,330.6,301.5
879.8,1210,15.7,12.6,82,10.49,173,1.8,299.7,330.6,301.5
879.3,1215,15.7,12.6,82,10.49,175,1.8,299.7,330.7,301.6
878.8,1220,15.7,12.6,82,10.51,177,1.8,299.7,330.7,301.6
878.3,1225,15.6,12.6,82,10.53,179,1.8,299.7,330.8,301.6
877.7,1231,15.6,12.6,83,10.53,181,1.8,299.7,330.8,301.6
877.2,1236,15.6,12.7,83,10.55,182,1.9,299.7,330.8,301.6
876.6,1241,15.5,12.7,83,10.58,183,1.9,299.7,330.9,301.6
876.1,1247,15.5,12.7,84,10.60,184,1.9,299.7,331.0,301.6
875.5,1252,15.4,12.7,84,10.60,185,1.9,299.7,331.0,301.6
874.9,1258,15.4,12.6,84,10.57,186,1.9,299.7,330.9,301.6
874.3,1263,15.3,12.6,84,10.54,186,2.0,299.7,330.9,301.6
873.8,1269,15.3,12.5,84,10.50,187,2.0,299.7,330.8,301.6
873.3,1274,15.2,12.5,84,10.47,187,2.0,299.8,330.7,301.6
872.8,1279,15.2,12.5,84,10.48,187,2.0,299.8,330.7,301.7
872.3,1284,15.2,12.5,84,10.52,187,2.0,299.8,330.8,301.7
871.8,1288,15.1,12.6,85,10.54,187,2.0,299.8,330.9,301.7
871.3,1293,15.1,12.5,85,10.51,187,2.0,299.8,330.8,301.7
870.8,1298,15.0,12.4,84,10.46,187,2.0,299.8,330.7,301.7
870.3,1302,15.0,12.3,84,10.37,187,2.0,299.8,330.4,301.7
869.9,1307,14.9,12.1,83,10.27,187,2.0,299.8,330.1,301.6
869.4,1311,14.9,12.0,82,10.16,187,1.9,299.8,329.8,301.7
869.0,1316,14.9,11.8,82,10.09,187,1.9,299.9,329.7,301.7
868.5,1320,14.9,11.8,82,10.05,186,1.9,299.9,329.6,301.7
868.1,1325,14.9,11.8,82,10.04,186,1.9,299.9,329.6,301.7
867.6,1329,14.9,11.8,82,10.05,186,1.8,299.9,329.6,301.7
867.2,1333,14.8,11.8,82,10.09,186,1.8,299.9,329.8,301.7
866.8,1337,14.8,11.9,83,10.18,186,1.8,299.9,330.0,301.8
866.4,1341,14.7,12.2,85,10.34,185,1.8,299.9,330.5,301.8
865.9,1346,14.7,12.3,86,10.44,185,1.7,299.9,330.7,301.8
865.5,1350,14.6,12.3,86,10.45,185,1.7,299.9,330.7,301.8
865.1,1354,14.6,12.2,86,10.39,184,1.7,299.9,330.6,301.8
864.6,1358,14.5,12.1,85,10.30,184,1.7,299.9,330.3,301.7
864.1,1363,14.5,11.9,84,10.20,184,1.7,299.9,330.1,301.8
863.7,1367,14.5,11.8,84,10.15,183,1.7,300.0,330.0,301.8
863.2,1372,14.5,11.9,84,10.17,183,1.8,300.0,330.1,301.9
862.7,1377,14.5,11.9,84,10.17,183,1.8,300.1,330.1,301.9
862.2,1382,14.5,11.8,84,10.14,182,1.8,300.1,330.1,301.9
861.7,1387,14.4,11.8,84,10.13,182,1.8,300.1,330.0,301.9
861.2,1392,14.4,11.8,84,10.14,182,1.9,300.1,330.1,301.9
860.7,1397,14.4,11.8,85,10.17,182,2.0,300.1,330.2,302.0
860.1,1403,14.4,11.8,85,10.18,181,2.0,300.2,330.3,302.0
859.6,1408,14.3,11.8,85,10.15,181,2.1,300.2,330.2,302.0
859.0,1413,14.3,11.8,85,10.14,181,2.2,300.2,330.2,302.0
858.5,1419,14.2,11.7,85,10.14,182,2.2,300.2,330.2,302.0
857.9,1424,14.2,11.7,85,10.13,182,2.3,300.2,330.2,302.0
857.4,1429,14.1,11.7,85,10.14,182,2.4,300.2,330.2,302.0
856.9,1435,14.1,11.7,86,10.15,182,2.5,300.2,330.2,302.0
856.3,1440,14.0,11.7,86,10.16,183,2.6,300.2,330.3,302.0
855.8,1445,14.0,11.8,86,10.18,183,2.7,300.2,330.3,302.0
855.3,1450,13.9,11.8,87,10.20,184,2.7,300.2,330.4,302.0
854.8,1455,13.9,11.8,87,10.22,184,2.8,300.2,330.5,302.0
854.2,1461,13.9,11.8,88,10.25,185,2.9,300.2,330.6,302.1
853.7,1466,13.8,11.9,88,10.31,185,3.0,300.2,330.7,302.1
853.2,1471,13.7,12.0,89,10.39,186,3.0,300.2,330.9,302.1
852.6,1477,13.7,12.1,90,10.48,187,3.1,300.2,331.2,302.1
852.1,1482,13.6,12.2,91,10.55,187,3.2,300.2,331.4,302.1
851.6,1486,13.6,12.3,92,10.58,188,3.2,300.2,331.5,302.1
851.2,1491,13.5,12.3,92,10.60,189,3.2,300.2,331.5,302.1
850.7,1495,13.5,12.3,92,10.62,189,3.3,300.2,331.6,302.1
850.3,1500,13.5,12.3,93,10.62,190,3.3,300.2,331.6,302.1
850.0,1503,13.5,12.3,93,10.62,190,3.3,300.2,331.6,302.1
849.8,1504,13.4,12.3,93,10.62,191,3.3,300.2,331.6,302.1
849.4,1509,13.4,12.3,93,10.61,192,3.3,300.2,331.6,302.2
849.0,1513,13.4,12.2,93,10.61,193,3.3,300.2,331.6,302.2
848.5,1517,13.3,12.2,93,10.61,194,3.2,300.2,331.6,302.2
848.1,1522,13.3,12.2,93,10.61,195,3.2,300.2,331.6,302.2
847.6,1527,13.3,12.2,93,10.60,196,3.2,300.3,331.6,302.2
847.1,1531,13.2,12.2,93,10.58,197,3.1,300.3,331.6,302.2
846.6,1536,13.2,12.2,94,10.58,198,3.1,300.3,331.6,302.2
846.1,1541,13.1,12.2,94,10.58,199,3.0,300.3,331.6,302.2
845.6,1546,13.1,12.1,94,10.57,200,2.9,300.3,331.6,302.2
845.1,1551,13.0,12.1,94,10.58,201,2.9,300.3,331.6,302.2
844.6,1556,13.0,12.1,95,10.59,203,2.8,300.3,331.6,302.2
844.1,1561,13.0,12.1,95,10.59,204,2.7,300.3,331.6,302.2
843.6,1566,12.9,12.1,94,10.55,206,2.7,300.3,331.5,302.2
843.1,1571,12.9,12.0,94,10.48,208,2.6,300.4,331.4,302.2
842.7,1576,13.0,11.8,93,10.36,210,2.6,300.4,331.1,302.3
842.2,1581,13.0,11.5,90,10.17,211,2.5,300.6,330.7,302.4
841.7,1586,13.1,11.0,87,9.87,213,2.5,300.7,330.0,302.5
841.1,1591,13.2,10.6,84,9.56,215,2.4,300.9,329.3,302.6
840.6,1596,13.3,10.2,82,9.33,217,2.4,301.0,328.8,302.7
840.1,1601,13.3,9.9,80,9.14,219,2.4,301.1,328.3,302.7
839.6,1607,13.3,9.6,78,8.96,221,2.4,301.1,327.8,302.8
839.0,1612,13.3,9.3,77,8.81,222,2.4,301.2,327.5,302.8
838.5,1617,13.3,9.1,76,8.69,224,2.4,301.3,327.2,302.8
838.0,1622,13.4,8.9,75,8.60,225,2.5,301.3,327.0,302.9
837.5,1627,13.4,8.9,74,8.58,226,2.5,301.4,327.0,303.0
837.0,1632,13.4,9.0,75,8.63,227,2.5,301.4,327.2,303.0
836.5,1637,13.3,9.0,75,8.67,228,2.6,301.5,327.4,303.0
836.1,1642,13.3,9.1,76,8.71,229,2.7,301.5,327.5,303.1
835.6,1647,13.3,9.1,76,8.74,229,2.7,301.5,327.6,303.1
835.1,1652,13.2,9.2,76,8.77,229,2.8,301.5,327.7,303.1
834.6,1657,13.2,9.2,77,8.80,230,2.9,301.5,327.8,303.1
834.1,1662,13.1,9.2,77,8.81,230,3.0,301.5,327.8,303.1
833.7,1666,13.1,9.2,77,8.80,229,3.1,301.5,327.8,303.1
833.2,1671,13.1,9.2,78,8.82,229,3.2,301.5,327.9,303.1
832.7,1676,13.0,9.2,78,8.83,229,3.3,301.5,327.9,303.2
832.2,1681,13.1,9.2,77,8.81,229,3.4,301.6,328.0,303.2
831.8,1685,13.1,9.0,76,8.69,229,3.5,301.8,327.8,303.3
831.3,1690,13.2,8.6,73,8.44,228,3.6,301.9,327.2,303.4
830.8,1695,13.3,7.9,70,8.10,228,3.7,302.0,326.3,303.5
830.3,1700,13.3,7.3,67,7.75,228,3.8,302.1,325.4,303.5
829.9,1705,13.3,6.7,64,7.46,227,3.9,302.1,324.6,303.5
829.4,1709,13.3,6.3,62,7.24,227,4.0,302.2,324.0,303.5
829.0,1714,13.3,6.0,61,7.09,227,4.1,302.3,323.7,303.6
828.5,1719,13.3,5.9,61,7.06,227,4.2,302.3,323.6,303.6
828.0,1723,13.3,6.0,61,7.08,227,4.3,302.3,323.7,303.6
827.6,1728,13.3,6.0,61,7.12,226,4.4,302.4,323.9,303.7
827.0,1733,13.3,6.1,62,7.17,226,4.5,302.4,324.0,303.7
826.5,1739,13.2,6.2,63,7.23,226,4.6,302.4,324.2,303.7
826.0,1744,13.1,6.4,64,7.33,226,4.7,302.3,324.5,303.7
825.4,1750,13.1,6.8,66,7.54,226,4.7,302.3,325.1,303.7
824.9,1755,13.0,7.4,69,7.86,225,4.8,302.3,326.0,303.8
824.4,1761,12.9,8.1,73,8.26,225,4.9,302.3,327.1,303.8
823.9,1766,12.9,8.5,75,8.50,225,4.9,302.3,327.8,303.9
