PRES,HGHT,TEMP,DWPT,RELH,MIXR,DRCT,SPED,THTA,THTE,THTV
1013.2,31,22.6,20.2,86,14.82,247,2.5,294.6,337.2,297.3
1012.6,35,22.9,20.3,85,14.96,223,1.9,295.0,338.1,297.7
1011.8,43,22.9,20.2,85,14.92,218,1.9,295.1,338.0,297.7
1011.3,47,23.1,20.2,84,14.90,216,2.0,295.3,338.2,297.9
1010.8,51,23.2,20.1,83,14.81,215,2.2,295.4,338.1,298.0
1009.9,59,23.3,20.1,82,14.83,214,2.3,295.6,338.4,298.3
1009.4,64,23.4,20.0,82,14.78,214,2.5,295.7,338.4,298.3
1008.7,69,23.3,19.9,81,14.70,213,2.6,295.7,338.1,298.3
1008.1,74,23.2,19.9,82,14.67,212,2.7,295.7,338.0,298.3
1007.5,80,23.1,19.9,82,14.66,211,2.8,295.7,338.0,298.3
1007.0,85,23.1,19.9,82,14.66,210,2.9,295.7,338.0,298.3
1006.4,90,23.1,19.9,82,14.69,209,3.0,295.7,338.1,298.3
1005.8,95,23.1,19.9,82,14.68,208,3.1,295.7,338.1,298.3
1005.2,99,23.1,19.9,82,14.67,207,3.2,295.8,338.1,298.4
1004.7,104,23.0,19.9,82,14.67,206,3.3,295.8,338.1,298.4
1004.1,109,23.0,19.8,83,14.67,205,3.4,295.8,338.1,298.4
1003.6,114,22.9,19.8,83,14.68,204,3.5,295.8,338.2,298.4
1003.0,119,22.9,19.9,83,14.72,203,3.6,295.8,338.3,298.4
1002.5,124,22.9,19.9,83,14.76,202,3.6,295.8,338.4,298.4
1001.9,129,22.8,19.9,84,14.75,201,3.7,295.8,338.4,298.4
1001.3,134,22.8,19.9,84,14.74,201,3.8,295.8,338.4,298.4
1000.7,139,22.7,19.9,84,14.76,200,3.8,295.8,338.5,298.4
1000.2,144,22.7,19.9,84,14.79,199,3.9,295.9,338.6,298.5
1000.0,145,22.7,19.9,84,14.79,199,3.9,295.9,338.6,298.5
999.6,149,22.7,19.9,84,14.79,199,3.9,295.8,338.5,298.5
999.0,154,22.6,19.9,85,14.80,198,4.0,295.9,338.6,298.5
998.4,159,22.6,19.9,85,14.84,198,4.1,295.9,338.8,298.6
997.8,164,22.7,20.0,85,14.89,197,4.1,296.0,339.0,298.7
997.2,170,22.7,20.0,85,14.91,197,4.2,296.1,339.2,298.7
996.6,175,22.7,20.0,85,14.93,196,4.2,296.1,339.3,298.7
995.9,181,22.7,20.0,85,14.97,196,4.2,296.1,339.4,298.8
995.3,186,22.7,20.0,85,14.97,196,4.3,296.2,339.5,298.9
994.7,192,22.6,20.0,85,14.97,196,4.3,296.2,339.5,298.8
994.0,198,22.5,20.0,86,14.97,196,4.4,296.1,339.4,298.8
993.4,203,22.4,20.0,86,14.96,195,4.4,296.1,339.4,298.8
992.7,209,22.4,20.0,86,14.99,195,4.5,296.2,339.5,298.8
992.1,214,22.5,20.0,86,15.04,195,4.5,296.3,339.8,299.0
991.5,220,22.5,20.0,86,15.04,195,4.6,296.4,339.9,299.1
990.9,225,22.5,20.0,86,15.01,195,4.6,296.4,339.9,299.1
990.3,231,22.4,19.9,86,14.97,195,4.7,296.4,339.7,299.1
989.7,236,22.4,19.9,86,14.96,195,4.8,296.4,339.7,299.1
989.1,241,22.3,20.0,86,15.00,195,4.8,296.4,339.8,299.1
988.5,247,22.3,20.0,87,15.06,195,4.9,296.4,340.0,299.1
987.9,252,22.2,20.0,87,15.04,195,5.0,296.4,339.9,299.1
987.3,257,22.2,19.9,87,15.02,196,5.0,296.4,339.9,299.1
986.7,262,22.1,19.9,87,15.02,196,5.1,296.4,339.9,299.1
986.1,267,22.1,19.9,88,15.02,196,5.2,296.4,339.9,299.1
985.6,272,22.0,19.9,88,15.00,196,5.3,296.4,339.8,299.1
985.0,277,22.0,19.9,88,14.99,196,5.3,296.4,339.8,299.1
984.5,282,21.9,19.8,88,14.95,196,5.4,296.4,339.7,299.1
983.9,287,21.9,19.8,88,14.91,197,5.5,296.4,339.6,299.1
983.4,291,21.9,19.7,88,14.89,197,5.6,296.4,339.5,299.1
982.9,296,21.8,19.7,88,14.90,197,5.7,296.4,339.6,299.1
982.4,300,21.8,19.7,88,14.89,197,5.8,296.4,339.5,299.1
982.0,304,21.7,19.7,88,14.85,198,5.9,296.4,339.4,299.1
981.6,308,21.7,19.6,88,14.80,198,6.0,296.4,339.3,299.1
981.1,311,21.7,19.6,88,14.78,198,6.1,296.5,339.2,299.1
980.7,315,21.7,19.6,88,14.77,199,6.1,296.5,339.3,299.1
980.3,319,21.7,19.5,88,14.75,199,6.2,296.5,339.2,299.1
979.8,323,21.6,19.5,88,14.74,199,6.3,296.5,339.2,299.1
979.4,327,21.6,19.5,88,14.74,200,6.4,296.5,339.1,299.1
978.9,331,21.5,19.5,88,14.76,200,6.5,296.5,339.2,299.1
978.5,335,21.5,19.6,89,14.82,200,6.5,296.5,339.4,299.1
978.1,339,21.4,19.6,89,14.86,200,6.6,296.4,339.5,299.1
977.6,343,21.4,19.6,90,14.88,201,6.7,296.4,339.5,299.1
977.2,346,21.3,19.6,90,14.85,201,6.7,296.4,339.4,299.1
976.8,350,21.3,19.5,90,14.78,201,6.8,296.4,339.2,299.1
976.3,354,21.3,19.4,89,14.71,201,6.9,296.4,339.0,299.1
975.9,358,21.3,19.4,89,14.66,201,6.9,296.5,339.0,299.1
975.4,362,21.3,19.4,89,14.66,201,7.0,296.5,339.0,299.1
975.0,366,21.2,19.4,89,14.67,201,7.0,296.5,339.0,299.1
974.5,370,21.2,19.4,89,14.66,201,7.0,296.5,339.0,299.1
974.1,374,21.1,19.3,89,14.62,201,7.1,296.5,338.8,299.1
973.6,379,21.1,19.2,89,14.57,201,7.1,296.5,338.7,299.1
973.1,383,21.1,19.2,89,14.54,201,7.1,296.5,338.6,299.1
972.6,387,21.0,19.2,89,14.54,201,7.2,296.5,338.7,299.1
972.1,392,21.0,19.2,90,14.60,201,7.2,296.5,338.8,299.1
971.6,396,20.9,19.3,90,14.65,201,7.2,296.5,338.9,299.1
971.1,401,20.9,19.3,90,14.63,201,7.2,296.5,338.9,299.1
970.6,406,20.9,19.2,90,14.55,201,7.2,296.5,338.7,299.1
970.0,411,20.9,19.1,90,14.52,200,7.3,296.6,338.6,299.1
969.4,416,20.8,19.1,90,14.54,200,7.3,296.6,338.7,299.2
968.8,421,20.7,19.1,90,14.53,200,7.3,296.6,338.6,299.1
968.3,426,20.7,19.0,90,14.47,200,7.3,296.5,338.4,299.1
967.7,431,20.6,18.9,90,14.38,200,7.3,296.5,338.2,299.1
967.2,436,20.6,18.8,90,14.29,199,7.4,296.5,337.9,299.1
966.7,440,20.6,18.8,90,14.30,199,7.4,296.6,338.0,299.1
966.2,445,20.5,18.9,91,14.41,199,7.4,296.6,338.3,299.2
965.8,449,20.5,19.0,91,14.42,198,7.4,296.6,338.3,299.1
965.3,452,20.4,18.9,91,14.38,198,7.4,296.6,338.2,299.1
964.9,456,20.4,18.9,91,14.36,198,7.4,296.6,338.2,299.2
964.5,460,20.4,19.0,91,14.46,197,7.5,296.6,338.5,299.2
964.1,463,20.3,19.2,93,14.65,197,7.5,296.5,339.0,299.1
963.7,467,20.2,19.2,94,14.69,197,7.5,296.5,339.0,299.1
963.3,471,20.2,19.1,93,14.57,196,7.5,296.5,338.7,299.1
962.8,475,20.2,18.9,92,14.39,196,7.5,296.6,338.2,299.1
962.4,479,20.2,18.8,92,14.36,195,7.6,296.6,338.2,299.2
961.9,483,20.2,19.0,93,14.53,195,7.6,296.6,338.7,299.2
961.5,487,20.1,19.1,94,14.67,195,7.6,296.5,339.0,299.1
961.0,492,20.0,19.1,94,14.60,194,7.6,296.5,338.8,299.1
960.5,496,20.0,18.9,93,14.44,194,7.7,296.5,338.3,299.1
960.0,500,20.0,18.7,92,14.27,193,7.7,296.6,337.9,299.1
959.5,505,20.0,18.6,92,14.18,193,7.7,296.6,337.7,299.1
959.1,509,20.0,18.5,91,14.12,192,7.7,296.6,337.5,299.1
958.6,513,19.9,18.4,91,14.06,192,7.8,296.7,337.4,299.2
958.1,518,19.9,18.4,91,14.02,192,7.8,296.7,337.3,299.2
957.6,522,19.9,18.4,91,14.00,191,7.8,296.7,337.3,299.2
957.1,526,19.8,18.3,91,13.98,191,7.9,296.7,337.2,299.2
956.6,531,19.8,18.3,91,13.95,190,7.9,296.7,337.1,299.2
956.2,535,19.8,18.2,91,13.88,190,7.9,296.7,336.9,299.1
955.7,539,19.7,18.1,90,13.78,189,8.0,296.7,336.7,299.1
955.2,544,19.7,18.0,90,13.70,189,8.0,296.7,336.5,299.2
954.7,548,19.7,18.0,90,13.71,188,8.0,296.8,336.5,299.2
954.3,552,19.7,18.0,90,13.77,188,8.0,296.7,336.7,299.2
953.8,557,19.6,18.1,91,13.84,188,8.0,296.8,336.9,299.2
953.3,561,19.6,18.2,92,13.89,187,8.1,296.7,337.0,299.2
952.8,566,19.5,18.2,92,13.90,187,8.1,296.8,337.0,299.2
952.2,571,19.5,18.1,92,13.89,186,8.1,296.8,337.0,299.2
951.7,576,19.4,18.1,92,13.82,186,8.1,296.7,336.8,299.2
951.1,581,19.4,17.9,91,13.68,185,8.1,296.8,336.4,299.2
950.5,586,19.4,17.7,90,13.55,185,8.2,296.8,336.1,299.2
949.9,592,19.3,17.6,90,13.49,184,8.2,296.8,336.0,299.2
949.3,597,19.3,17.6,90,13.48,184,8.2,296.8,335.9,299.2
948.8,602,19.2,17.6,90,13.46,183,8.2,296.8,335.9,299.2
948.2,607,19.2,17.6,90,13.47,183,8.2,296.8,335.9,299.2
947.7,612,19.2,17.6,91,13.49,183,8.3,296.8,336.0,299.2
947.2,617,19.1,17.6,91,13.50,182,8.3,296.8,336.0,299.2
946.7,621,19.1,17.5,91,13.44,182,8.3,296.8,335.8,299.2
946.1,626,19.1,17.4,90,13.34,181,8.3,296.9,335.6,299.2
945.6,631,19.0,17.4,90,13.30,181,8.3,296.9,335.5,299.3
945.1,635,19.0,17.3,90,13.30,180,8.4,296.9,335.5,299.3
944.6,640,19.0,17.3,90,13.28,180,8.4,296.9,335.5,299.3
944.1,645,18.9,17.1,89,13.14,180,8.4,296.9,335.1,299.2
943.5,650,18.9,16.9,88,12.91,179,8.4,297.0,334.5,299.3
943.0,655,18.9,16.6,86,12.69,179,8.5,297.0,333.9,299.3
942.4,660,18.9,16.5,86,12.61,179,8.5,297.1,333.7,299.3
941.9,665,18.9,16.4,86,12.58,178,8.5,297.1,333.7,299.3
941.4,670,18.9,16.4,86,12.57,178,8.5,297.1,333.7,299.4
940.8,674,18.8,16.4,86,12.58,178,8.6,297.1,333.7,299.4
940.3,679,18.8,16.4,86,12.58,178,8.6,297.1,333.7,299.4
939.8,684,18.8,16.3,86,12.54,178,8.6,297.1,333.6,299.4
939.2,689,18.7,16.3,86,12.51,178,8.7,297.1,333.5,299.4
938.7,694,18.7,16.3,86,12.49,178,8.7,297.2,333.5,299.4
938.2,699,18.7,16.2,86,12.47,178,8.7,297.2,333.4,299.4
937.7,703,18.6,16.2,86,12.46,178,8.7,297.2,333.4,299.4
937.2,708,18.6,16.1,85,12.38,178,8.7,297.2,333.2,299.4
936.7,712,18.6,15.9,84,12.18,178,8.8,297.2,332.7,299.4
936.2,717,18.6,15.6,83,11.96,178,8.8,297.3,332.1,299.4
935.7,721,18.6,15.3,81,11.77,178,8.8,297.3,331.6,299.4
935.3,726,18.6,15.2,80,11.66,178,8.8,297.4,331.4,299.5
934.8,730,18.6,15.1,80,11.63,179,8.8,297.4,331.3,299.5
934.3,735,18.6,15.1,80,11.64,179,8.8,297.4,331.4,299.5
933.8,739,18.5,15.1,80,11.64,179,8.8,297.5,331.4,299.5
933.3,744,18.5,15.1,80,11.62,179,8.8,297.4,331.3,299.5
932.8,749,18.5,15.0,80,11.59,179,8.8,297.5,331.3,299.5
932.3,753,18.4,15.0,80,11.54,180,8.8,297.5,331.1,299.5
931.8,758,18.4,14.8,80,11.46,180,8.8,297.5,330.9,299.5
931.3,762,18.4,14.7,79,11.39,180,8.8,297.5,330.7,299.5
930.8,767,18.3,14.7,79,11.36,181,8.8,297.5,330.7,299.5
930.3,771,18.3,14.6,79,11.32,181,8.8,297.5,330.6,299.6
929.8,776,18.3,14.6,79,11.29,181,8.8,297.5,330.5,299.6
929.4,780,18.2,14.6,79,11.29,182,8.7,297.5,330.5,299.6
929.0,784,18.2,14.6,79,11.29,182,8.7,297.5,330.5,299.6
928.5,788,18.2,14.5,79,11.27,182,8.7,297.6,330.5,299.6
928.1,792,18.1,14.5,79,11.25,183,8.7,297.6,330.4,299.6
927.7,796,18.1,14.5,79,11.27,183,8.7,297.6,330.5,299.6
927.3,800,18.1,14.5,80,11.28,184,8.6,297.6,330.5,299.6
926.8,804,18.0,14.5,80,11.28,184,8.6,297.6,330.5,299.6
926.4,808,18.0,14.5,80,11.26,185,8.6,297.6,330.5,299.6
925.9,812,18.0,14.4,80,11.24,185,8.6,297.6,330.4,299.6
925.5,816,17.9,14.4,80,11.21,186,8.6,297.6,330.3,299.6
925.0,820,17.9,14.4,80,11.19,187,8.6,297.6,330.3,299.6
924.6,824,17.9,14.4,80,11.20,187,8.6,297.6,330.3,299.6
924.2,828,17.8,14.4,80,11.19,187,8.6,297.6,330.3,299.6
923.7,833,17.8,14.4,80,11.20,188,8.6,297.6,330.3,299.6
923.2,837,17.8,14.4,81,11.24,189,8.6,297.6,330.5,299.6
922.7,842,17.7,14.5,81,11.29,189,8.7,297.6,330.6,299.7
922.2,847,17.7,14.5,82,11.32,190,8.7,297.6,330.7,299.7
921.6,852,17.6,14.5,82,11.31,190,8.7,297.6,330.7,299.7
921.0,857,17.6,14.4,82,11.27,191,8.8,297.6,330.6,299.7
920.4,863,17.5,14.4,82,11.25,191,8.8,297.7,330.5,299.7
919.8,869,17.5,14.4,82,11.29,192,8.9,297.7,330.7,299.7
919.2,874,17.5,14.5,83,11.37,192,9.0,297.7,330.9,299.7
918.6,880,17.5,14.6,83,11.43,193,9.0,297.7,331.1,299.8
918.0,885,17.4,14.5,83,11.39,193,9.1,297.8,331.1,299.8
917.4,891,17.4,14.4,82,11.32,194,9.2,297.8,330.9,299.8
916.9,896,17.4,14.3,82,11.27,194,9.3,297.8,330.8,299.8
916.3,901,17.4,14.3,82,11.22,194,9.4,297.8,330.6,299.9
915.8,906,17.3,14.1,82,11.14,195,9.5,297.9,330.4,299.8
915.3,911,17.3,14.0,81,11.08,195,9.5,297.9,330.3,299.8
914.8,915,17.3,14.0,81,11.02,195,9.6,297.9,330.1,299.9
914.3,920,17.2,13.9,81,10.97,195,9.7,297.9,330.0,299.9
913.9,924,17.2,13.8,80,10.93,195,9.8,297.9,329.9,299.9
913.4,928,17.2,13.8,81,10.93,195,9.9,297.9,329.9,299.9
912.9,933,17.2,13.8,81,10.95,195,9.9,298.0,330.0,299.9
912.5,937,17.1,13.9,81,10.98,195,10.0,298.0,330.1,299.9
912.0,942,17.1,13.8,81,10.96,195,10.1,298.0,330.0,299.9
911.5,946,17.0,13.7,81,10.90,195,10.1,298.0,329.9,299.9
911.1,950,17.0,13.6,80,10.84,195,10.2,298.0,329.7,299.9
910.6,954,17.0,13.6,80,10.78,195,10.2,298.0,329.6,299.9
910.2,958,17.0,13.4,80,10.71,195,10.2,298.0,329.4,299.9
909.8,962,17.0,13.3,79,10.63,195,10.2,298.0,329.2,299.9
909.4,966,16.9,13.2,79,10.55,195,10.2,298.1,329.0,300.0
909.0,970,16.9,13.1,78,10.50,194,10.2,298.1,328.9,300.0
908.6,974,16.9,13.1,78,10.49,194,10.2,298.1,328.9,300.0
908.1,978,16.9,13.1,78,10.48,194,10.1,298.2,328.9,300.0
907.6,983,16.9,13.1,78,10.47,194,10.1,298.2,328.9,300.1
907.1,987,16.8,13.0,78,10.43,194,10.0,298.2,328.8,300.1
906.6,992,16.8,12.9,78,10.38,193,9.9,298.2,328.6,300.1
906.1,997,16.8,12.8,77,10.32,193,9.8,298.2,328.5,300.1
905.5,1002,16.8,12.7,77,10.24,193,9.7,298.3,328.3,300.1
905.0,1007,16.8,12.5,76,10.14,193,9.6,298.3,328.1,300.1
904.5,1012,16.8,12.4,76,10.06,192,9.5,298.3,327.9,300.2
904.0,1017,16.7,12.3,75,10.02,192,9.4,298.4,327.8,300.2
903.4,1022,16.7,12.3,75,10.01,192,9.2,298.4,327.8,300.2
902.9,1027,16.7,12.3,75,9.99,191,9.1,298.4,327.8,300.2
902.4,1032,16.7,12.2,75,9.96,191,8.9,298.5,327.8,300.3
902.0,1036,16.7,12.2,75,9.96,191,8.8,298.5,327.8,300.3
901.5,1040,16.6,12.2,75,9.98,191,8.6,298.5,327.8,300.3
901.1,1045,16.6,12.3,76,10.00,190,8.5,298.5,327.9,300.3
900.6,1049,16.5,12.3,76,10.04,190,8.3,298.5,328.0,300.3
900.2,1053,16.5,12.4,76,10.07,190,8.2,298.5,328.1,300.3
899.7,1057,16.5,12.4,77,10.10,189,8.0,298.5,328.2,300.3
899.3,1062,16.4,12.4,77,10.11,189,7.9,298.5,328.2,300.3
898.8,1066,16.4,12.4,77,10.14,189,7.7,298.5,328.3,300.3
898.2,1071,16.4,12.5,78,10.16,189,7.6,298.5,328.4,300.3
897.7,1077,16.3,12.5,78,10.18,188,7.5,298.5,328.4,300.3
897.1,1082,16.2,12.5,78,10.19,188,7.4,298.5,328.4,300.3
896.6,1087,16.2,12.4,79,10.17,188,7.3,298.5,328.4,300.3
896.0,1093,16.1,12.4,79,10.16,188,7.2,298.5,328.4,300.3
895.4,1098,16.1,12.4,79,10.18,187,7.2,298.5,328.4,300.3
894.9,1103,16.0,12.5,80,10.23,187,7.1,298.5,328.5,300.3
894.4,1108,16.0,12.6,80,10.28,187,7.1,298.5,328.7,300.3
893.8,1113,15.9,12.6,81,10.31,187,7.0,298.5,328.8,300.4
893.3,1118,15.9,12.6,81,10.34,187,7.0,298.5,328.9,300.4
892.8,1123,15.8,12.7,82,10.39,186,7.0,298.5,329.0,300.4
892.2,1129,15.8,12.8,82,10.45,186,7.0,298.5,329.2,300.4
891.7,1134,15.7,12.8,83,10.48,186,7.0,298.5,329.3,300.4
891.2,1139,15.7,12.8,82,10.45,186,7.1,298.5,329.2,300.4
890.7,1144,15.7,12.7,82,10.41,186,7.1,298.6,329.2,300.4
890.1,1149,15.7,12.7,82,10.41,186,7.2,298.6,329.2,300.5
889.6,1154,15.7,12.7,82,10.41,186,7.2,298.6,329.2,300.5
889.1,1159,15.6,12.7,82,10.40,186,7.3,298.7,329.2,300.5
888.6,1163,15.6,12.6,82,10.37,186,7.3,298.7,329.2,300.5
888.1,1168,15.6,12.5,82,10.34,186,7.4,298.7,329.1,300.6
887.6,1173,15.6,12.5,82,10.32,186,7.5,298.7,329.1,300.6
887.1,1178,15.6,12.5,82,10.32,186,7.5,298.8,329.1,300.6
886.6,1183,15.5,12.5,82,10.29,186,7.6,298.8,329.1,300.6
886.1,1188,15.5,12.4,82,10.28,187,7.6,298.8,329.1,300.7
885.6,1192,15.5,12.4,82,10.28,187,7.7,298.8,329.1,300.7
885.0,1197,15.5,12.4,82,10.26,187,7.8,298.9,329.0,300.7
884.5,1202,15.4,12.3,81,10.20,187,7.8,298.9,328.9,300.7
884.0,1207,15.4,12.2,81,10.15,187,7.8,298.9,328.8,300.7
883.5,1212,15.4,12.2,81,10.17,187,7.9,299.0,328.9,300.8
883.0,1217,15.4,12.2,81,10.17,188,7.9,299.0,328.9,300.8
882.5,1222,15.4,12.1,81,10.09,188,7.9,299.1,328.8,300.9
882.0,1227,15.4,11.9,79,9.96,188,7.9,299.1,328.5,300.9
881.5,1232,15.4,11.7,79,9.86,188,8.0,299.2,328.2,300.9
881.0,1236,15.4,11.6,78,9.81,188,8.0,299.2,328.1,301.0
880.5,1241,15.4,11.6,78,9.77,189,8.0,299.2,328.1,301.0
880.1,1245,15.4,11.4,77,9.68,189,8.0,299.3,327.9,301.0
879.6,1250,15.4,11.1,76,9.51,189,8.0,299.3,327.4,301.0
879.1,1255,15.4,10.7,73,9.23,189,8.0,299.4,326.7,301.1
878.6,1259,15.5,10.2,71,8.95,189,8.0,299.5,326.0,301.1
878.1,1265,15.5,9.8,69,8.71,189,7.9,299.6,325.4,301.1
877.5,1270,15.5,9.6,68,8.57,189,7.9,299.7,325.1,301.2
877.0,1275,15.5,9.6,68,8.59,189,7.9,299.7,325.2,301.3
876.5,1280,15.5,9.6,68,8.58,189,7.9,299.7,325.2,301.3
875.9,1285,15.5,9.4,67,8.47,189,7.9,299.8,325.0,301.3
875.4,1291,15.5,9.1,66,8.33,189,7.9,299.8,324.6,301.3
874.8,1296,15.5,9.0,65,8.24,188,7.8,299.9,324.4,301.4
874.3,1301,15.5,8.8,65,8.18,188,7.8,299.9,324.2,301.4
873.7,1307,15.4,8.7,64,8.11,188,7.8,299.9,324.1,301.4
873.1,1312,15.4,8.6,64,8.03,188,7.8,300.0,323.9,301.4
872.5,1318,15.4,8.5,63,8.02,188,7.7,300.0,323.9,301.5
871.9,1324,15.4,8.6,64,8.09,187,7.7,300.0,324.1,301.5
871.3,1330,15.3,8.8,65,8.16,187,7.7,300.1,324.3,301.5
870.7,1336,15.3,8.8,65,8.18,187,7.6,300.1,324.4,301.5
870.0,1343,15.2,8.7,65,8.13,187,7.6,300.1,324.3,301.6
869.4,1349,15.2,8.6,65,8.11,187,7.6,300.1,324.3,301.6
868.7,1356,15.1,8.6,65,8.11,186,7.5,300.1,324.3,301.6
868.1,1362,15.1,8.6,65,8.09,186,7.5,300.1,324.2,301.6
867.4,1368,15.0,8.5,65,8.05,186,7.4,300.1,324.1,301.6
866.8,1375,15.0,8.4,65,8.02,186,7.3,300.1,324.1,301.6
866.1,1381,14.9,8.4,65,8.01,187,7.3,300.2,324.0,301.6
865.5,1387,14.9,8.4,65,8.00,187,7.2,300.2,324.0,301.6
865.0,1392,14.8,8.4,65,8.00,187,7.2,300.2,324.0,301.6
864.4,1398,14.8,8.4,65,8.00,187,7.1,300.2,324.0,301.6
863.9,1403,14.7,8.3,65,8.00,188,7.0,300.2,324.0,301.6
863.3,1408,14.7,8.3,66,8.01,188,7.0,300.2,324.1,301.6
862.8,1413,14.7,8.3,66,8.01,189,6.9,300.2,324.1,301.6
862.3,1418,14.6,8.3,66,8.00,189,6.8,300.2,324.1,301.7
861.8,1423,14.6,8.3,66,7.99,190,6.8,300.2,324.0,301.6
861.3,1428,14.5,8.3,66,7.99,190,6.8,300.2,324.0,301.7
860.8,1433,14.5,8.3,66,7.99,191,6.7,300.2,324.0,301.7
860.3,1438,14.4,8.3,67,8.01,192,6.7,300.2,324.1,301.7
859.8,1443,14.4,8.3,67,8.03,192,6.7,300.2,324.2,301.7
859.3,1448,14.4,8.3,67,8.03,193,6.6,300.2,324.2,301.7
858.7,1453,14.3,8.3,67,8.02,194,6.6,300.2,324.2,301.7
858.2,1459,14.3,8.3,67,8.01,194,6.6,300.2,324.1,301.7
857.7,1464,14.2,8.3,67,8.03,195,6.6,300.3,324.2,301.7
857.2,1469,14.2,8.3,68,8.06,195,6.7,300.3,324.3,301.7
856.6,1474,14.1,8.4,68,8.09,196,6.7,300.3,324.4,301.7
856.1,1479,14.1,8.4,68,8.08,196,6.7,300.3,324.3,301.7
855.6,1484,14.0,8.4,69,8.09,196,6.7,300.3,324.4,301.7
855.1,1489,14.0,8.4,69,8.11,197,6.8,300.3,324.4,301.7
854.6,1494,13.9,8.4,69,8.12,197,6.8,300.3,324.5,301.7
854.1,1499,13.9,8.4,70,8.14,197,6.8,300.3,324.5,301.8
853.5,1505,13.9,8.5,70,8.17,197,6.9,300.3,324.7,301.8
853.0,1510,13.8,8.6,70,8.23,197,6.9,300.3,324.8,301.8
852.5,1515,13.8,8.6,71,8.27,197,7.0,300.3,325.0,301.8
851.9,1520,13.7,8.7,71,8.29,197,7.0,300.3,325.0,301.8
851.4,1526,13.7,8.6,71,8.27,197,7.0,300.3,325.0,301.8
850.9,1531,13.6,8.6,71,8.25,197,7.1,300.3,324.9,301.8
850.4,1536,13.6,8.6,72,8.25,197,7.1,300.3,324.9,301.8
850.0,1540,13.6,8.6,72,8.27,197,7.1,300.3,325.0,301.8
849.9,1541,13.5,8.6,72,8.27,198,7.1,300.3,325.0,301.8
849.4,1546,13.5,8.6,72,8.29,198,7.1,300.3,325.0,301.8
848.9,1551,13.5,8.6,73,8.30,198,7.1,300.3,325.1,301.8
848.4,1556,13.4,8.6,73,8.30,198,7.1,300.3,325.1,301.8
847.9,1560,13.4,8.6,73,8.29,198,7.1,300.3,325.0,301.8
847.4,1565,13.3,8.6,73,8.28,199,7.1,300.3,325.0,301.8
846.9,1570,13.3,8.5,73,8.27,199,7.1,300.4,325.0,301.9
846.4,1575,13.2,8.5,73,8.26,199,7.0,300.4,325.0,301.9
845.9,1580,13.2,8.5,73,8.26,200,7.0,300.4,325.0,301.9
845.4,1585,13.2,8.5,73,8.27,200,7.0,300.4,325.0,301.9
844.9,1590,13.1,8.5,74,8.28,201,6.9,300.4,325.0,301.9
844.4,1595,13.1,8.6,74,8.32,202,6.9,300.4,325.2,301.9
843.9,1600,13.0,8.7,75,8.39,202,6.9,300.4,325.4,301.9
843.5,1605,13.0,8.8,76,8.46,203,6.8,300.4,325.6,301.9
843.0,1610,12.9,8.9,77,8.54,204,6.8,300.4,325.8,301.9
842.5,1614,12.9,9.1,78,8.63,204,6.8,300.4,326.1,302.0
842.0,1619,12.9,9.3,79,8.74,205,6.8,300.4,326.4,302.0
841.5,1624,12.8,9.3,79,8.77,206,6.8,300.4,326.5,302.0
841.1,1629,12.8,9.2,79,8.74,207,6.8,300.4,326.4,302.0
840.6,1634,12.7,9.2,79,8.73,207,6.7,300.4,326.4,302.0
840.1,1639,12.7,9.2,79,8.74,208,6.8,300.4,326.4,302.0
839.5,1644,12.6,9.2,80,8.76,208,6.8,300.4,326.4,302.0
839.0,1649,12.6,9.3,80,8.78,209,6.8,300.4,326.5,302.0
838.5,1655,12.5,9.3,81,8.80,209,6.8,300.4,326.6,302.0
837.9,1660,12.5,9.3,81,8.81,210,6.8,300.4,326.6,302.0
837.4,1665,12.4,9.3,81,8.83,210,6.8,300.4,326.7,302.0
836.9,1671,12.4,9.3,82,8.84,210,6.9,300.4,326.7,302.0
836.4,1676,12.3,9.3,82,8.82,211,6.9,300.4,326.6,302.0
835.9,1681,12.3,9.3,82,8.83,211,7.0,300.4,326.7,302.0
835.3,1686,12.2,9.3,82,8.84,211,7.0,300.4,326.7,302.0
834.8,1692,12.2,9.3,82,8.84,211,7.1,300.4,326.7,302.0
834.2,1698,12.1,9.3,83,8.86,211,7.1,300.4,326.8,302.0
833.6,1704,12.1,9.4,84,8.91,212,7.2,300.5,327.0,302.1
833.0,1710,12.0,9.5,84,8.97,212,7.2,300.5,327.1,302.1
832.4,1716,12.0,9.5,85,9.01,212,7.2,300.5,327.3,302.1
831.7,1722,11.9,9.5,85,9.03,212,7.3,300.5,327.3,302.1
831.1,1729,11.9,9.5,86,9.01,212,7.3,300.5,327.3,302.1
830.5,1735,11.8,9.5,86,8.99,212,7.4,300.5,327.2,302.1
829.9,1741,11.8,9.4,86,8.98,213,7.4,300.5,327.2,302.1
829.3,1747,11.7,9.4,86,8.94,213,7.4,300.5,327.1,302.1
828.7,1753,11.6,9.4,86,8.94,213,7.4,300.5,327.1,302.1
828.1,1759,11.6,9.3,86,8.91,213,7.5,300.5,327.0,302.1
827.5,1765,11.5,9.2,86,8.88,214,7.5,300.5,326.9,302.1
827.0,1771,11.4,9.2,86,8.86,214,7.5,300.4,326.8,302.0
826.4,1776,11.4,9.2,87,8.87,214,7.5,300.4,326.8,302.0
825.9,1781,11.3,9.2,87,8.90,215,7.5,300.4,326.9,302.0
825.4,1786,11.3,9.2,87,8.90,215,7.5,300.4,326.9,302.1
