PRES,HGHT,TEMP,DWPT,RELH,MIXR,DRCT,SPED,THTA,THTE,THTV
1015.7,31,23.6,16.7,65,11.82,38,7.9,295.4,329.6,297.5
1014.9,37,23.2,16.0,64,11.37,31,4.9,295.1,328.0,297.2
1014.7,39,22.4,15.9,67,11.27,30,4.8,294.3,326.8,296.3
1013.8,47,22.2,16.0,68,11.31,29,5.1,294.2,326.8,296.2
1013.2,52,22.1,15.7,67,11.16,30,5.5,294.1,326.2,296.1
1012.8,56,21.9,15.4,67,10.95,30,5.9,294.0,325.5,295.9
1011.9,63,21.8,15.3,66,10.86,30,6.2,294.0,325.3,295.9
1011.3,68,21.8,15.2,66,10.80,31,6.5,294.0,325.1,295.9
1010.7,73,21.7,15.2,66,10.80,31,6.8,294.0,325.1,295.9
1010.1,79,21.7,15.2,66,10.78,31,7.1,294.0,325.1,295.9
1009.5,84,21.7,15.1,66,10.75,31,7.4,294.0,325.0,295.9
1008.9,89,21.6,15.1,66,10.74,31,7.7,294.0,325.0,295.9
1008.4,94,21.6,15.1,67,10.74,31,7.9,294.0,324.9,295.9
1007.8,98,21.5,15.1,67,10.73,32,8.1,294.0,324.9,295.9
1007.3,103,21.5,15.1,67,10.74,32,8.3,294.0,324.9,295.9
1006.7,108,21.4,15.1,67,10.75,32,8.5,294.0,325.0,295.9
1006.2,112,21.4,15.0,67,10.74,32,8.7,294.0,324.9,295.9
1005.7,117,21.3,15.0,67,10.71,32,8.8,294.0,324.8,295.9
1005.2,121,21.3,15.0,67,10.70,32,9.0,294.0,324.8,295.9
1004.7,125,21.3,15.0,67,10.72,32,9.1,294.0,324.9,295.9
1004.2,129,21.2,15.0,68,10.75,32,9.2,294.0,324.9,295.9
1003.7,134,21.2,15.1,68,10.78,32,9.3,294.0,325.0,295.9
1003.2,138,21.1,15.1,68,10.81,33,9.3,294.0,325.1,295.9
1002.6,143,21.1,15.1,69,10.85,33,9.4,294.0,325.2,295.9
1002.1,148,21.0,15.1,69,10.84,33,9.4,294.0,325.2,295.9
1001.6,152,21.0,15.1,69,10.83,33,9.5,294.0,325.2,295.9
1001.0,157,20.9,15.1,69,10.82,33,9.5,294.0,325.2,295.9
1000.5,161,20.9,15.1,69,10.83,33,9.6,294.0,325.2,295.9
1000.0,166,20.9,15.1,70,10.84,33,9.6,294.0,325.2,295.9
999.5,170,20.8,15.1,70,10.82,33,9.6,294.0,325.2,295.9
999.0,175,20.8,15.0,70,10.81,33,9.6,294.0,325.1,295.9
998.5,179,20.7,15.0,70,10.80,33,9.6,294.0,325.1,295.9
997.9,184,20.7,15.0,70,10.80,33,9.6,294.0,325.1,295.9
997.4,188,20.6,15.0,70,10.80,33,9.7,294.0,325.1,295.9
996.9,193,20.6,15.0,70,10.82,32,9.7,294.0,325.2,295.9
996.3,197,20.6,15.0,71,10.84,32,9.7,294.0,325.2,295.9
995.8,202,20.5,15.0,71,10.86,32,9.7,294.0,325.3,295.9
995.2,207,20.5,15.0,71,10.86,32,9.7,294.0,325.3,295.9
994.6,213,20.4,15.0,71,10.83,32,9.7,294.0,325.2,295.9
994.0,218,20.4,15.0,71,10.81,32,9.7,294.0,325.1,295.9
993.4,223,20.3,14.9,71,10.78,32,9.7,294.0,325.0,295.9
992.8,228,20.2,14.8,71,10.73,32,9.7,294.0,324.9,295.9
992.2,234,20.2,14.8,71,10.70,32,9.7,294.0,324.8,295.9
991.6,239,20.1,14.8,71,10.71,32,9.7,294.0,324.8,295.9
991.1,244,20.1,14.9,72,10.78,32,9.7,294.0,325.1,295.9
990.5,248,20.1,15.0,72,10.85,32,9.7,294.0,325.3,295.9
989.9,253,20.0,15.0,73,10.86,32,9.7,294.0,325.3,295.9
989.3,259,20.0,14.9,73,10.85,32,9.6,294.0,325.2,295.9
988.7,264,19.9,14.9,73,10.85,32,9.6,294.0,325.2,295.9
988.1,269,19.9,14.9,73,10.86,32,9.6,294.0,325.3,295.9
987.5,274,19.8,14.9,73,10.88,32,9.6,294.0,325.3,295.9
986.9,280,19.8,14.9,74,10.86,33,9.6,294.0,325.3,295.9
986.3,285,19.7,14.9,74,10.83,33,9.5,294.0,325.2,295.9
985.7,290,19.7,14.8,74,10.83,33,9.5,294.0,325.2,295.9
985.2,295,19.6,14.9,74,10.84,33,9.5,294.0,325.2,295.9
984.6,300,19.6,14.9,74,10.85,33,9.5,294.0,325.3,295.9
984.0,305,19.5,14.8,74,10.85,33,9.4,294.0,325.3,295.9
983.4,310,19.5,14.8,74,10.85,33,9.4,294.0,325.3,296.0
982.9,315,19.4,14.8,75,10.84,33,9.4,294.0,325.2,295.9
982.3,320,19.4,14.9,75,10.87,33,9.3,294.0,325.3,295.9
981.7,325,19.3,14.8,75,10.86,33,9.3,294.0,325.3,295.9
981.2,330,19.3,14.8,75,10.81,33,9.3,294.0,325.1,295.9
980.6,335,19.2,14.7,75,10.75,33,9.2,294.0,325.0,295.9
980.1,339,19.2,14.6,75,10.73,33,9.2,294.0,324.9,295.9
979.6,344,19.1,14.7,75,10.77,32,9.2,294.0,325.0,295.9
979.0,349,19.1,14.7,76,10.82,32,9.1,294.0,325.2,295.9
978.5,354,19.1,14.7,76,10.82,32,9.1,294.0,325.2,295.9
978.0,358,19.0,14.7,76,10.79,31,9.1,294.0,325.1,295.9
977.4,363,18.9,14.6,76,10.74,31,9.0,294.0,324.9,295.9
976.8,368,18.9,14.5,76,10.71,31,9.0,294.0,324.8,295.9
976.3,373,18.8,14.5,76,10.67,30,9.0,294.0,324.7,295.9
975.8,378,18.9,14.4,75,10.61,29,8.9,294.1,324.6,295.9
975.2,382,18.9,14.3,75,10.55,29,8.9,294.1,324.5,296.0
974.7,387,18.8,14.2,75,10.52,28,8.9,294.1,324.4,296.0
974.2,391,18.8,14.2,75,10.53,28,8.9,294.1,324.5,296.0
973.7,396,18.8,14.2,75,10.54,27,8.9,294.1,324.5,296.0
973.2,400,18.7,14.2,75,10.53,26,8.9,294.1,324.5,296.0
972.7,404,18.7,14.2,75,10.53,26,8.9,294.1,324.5,296.0
972.2,409,18.6,14.2,76,10.55,25,8.9,294.1,324.5,296.0
971.7,413,18.6,14.3,76,10.57,25,8.9,294.1,324.6,296.0
971.2,418,18.5,14.3,76,10.58,24,8.9,294.1,324.6,296.0
970.7,422,18.5,14.3,76,10.58,23,9.0,294.1,324.6,296.0
970.2,427,18.4,14.2,76,10.57,23,9.0,294.1,324.6,296.0
969.7,431,18.4,14.2,76,10.56,22,9.0,294.1,324.6,296.0
969.2,435,18.4,14.2,77,10.55,22,9.0,294.1,324.6,296.0
968.8,439,18.3,14.1,77,10.52,22,9.0,294.1,324.5,296.0
968.3,444,18.3,14.1,77,10.50,21,9.0,294.1,324.4,296.0
967.8,448,18.2,14.1,77,10.50,21,9.1,294.1,324.4,296.0
967.4,452,18.2,14.1,77,10.50,20,9.1,294.1,324.4,296.0
966.9,456,18.1,14.1,77,10.50,20,9.1,294.1,324.4,296.0
966.4,460,18.1,14.1,77,10.51,20,9.1,294.1,324.4,296.0
966.0,464,18.1,14.1,78,10.51,20,9.1,294.1,324.4,296.0
965.5,469,18.0,14.1,78,10.50,19,9.1,294.1,324.4,295.9
965.0,473,18.0,14.0,78,10.50,19,9.1,294.1,324.3,295.9
964.5,477,17.9,14.0,78,10.50,19,9.1,294.1,324.4,295.9
964.0,482,17.9,14.1,78,10.51,19,9.1,294.1,324.4,296.0
963.5,486,17.8,14.1,78,10.52,19,9.1,294.1,324.4,296.0
963.0,490,17.8,14.0,79,10.52,18,9.1,294.1,324.4,296.0
962.5,495,17.8,14.0,79,10.50,18,9.1,294.1,324.4,296.0
962.1,499,17.7,14.0,79,10.49,18,9.1,294.1,324.3,296.0
961.6,503,17.7,14.0,79,10.51,18,9.1,294.1,324.4,296.0
961.1,508,17.6,14.0,79,10.52,18,9.1,294.1,324.4,296.0
960.5,513,17.6,14.0,80,10.53,18,9.1,294.1,324.5,296.0
960.0,517,17.6,14.0,80,10.54,17,9.0,294.1,324.5,296.0
959.5,522,17.5,14.0,80,10.54,17,9.0,294.1,324.5,296.0
958.9,527,17.5,14.0,80,10.52,17,9.0,294.1,324.4,296.0
958.3,532,17.4,14.0,80,10.52,17,9.0,294.1,324.5,296.0
957.8,537,17.4,14.0,80,10.54,17,9.0,294.2,324.6,296.0
957.2,542,17.4,14.0,81,10.56,16,8.9,294.2,324.6,296.1
956.7,547,17.3,14.0,81,10.54,16,8.9,294.2,324.5,296.0
956.1,552,17.3,14.0,81,10.53,16,8.9,294.2,324.5,296.0
955.6,557,17.2,13.9,81,10.52,15,8.9,294.2,324.5,296.0
955.1,561,17.2,13.9,81,10.52,15,8.9,294.2,324.5,296.0
954.6,566,17.1,13.9,81,10.52,15,8.9,294.2,324.5,296.0
954.0,571,17.1,13.9,81,10.51,15,8.8,294.2,324.5,296.0
953.5,575,17.1,13.9,81,10.52,14,8.8,294.2,324.5,296.1
953.0,580,17.1,13.9,82,10.55,14,8.8,294.2,324.6,296.1
952.4,585,17.1,14.0,82,10.57,14,8.8,294.3,324.8,296.1
951.9,590,17.0,14.0,82,10.58,14,8.8,294.3,324.8,296.2
951.3,595,17.0,14.0,82,10.59,13,8.8,294.3,324.8,296.2
950.8,600,16.9,13.9,83,10.59,13,8.9,294.3,324.8,296.2
950.2,605,16.9,13.9,83,10.57,13,8.9,294.3,324.8,296.2
949.6,610,16.8,13.9,83,10.56,13,8.9,294.3,324.7,296.2
949.1,615,16.8,13.9,83,10.55,12,8.9,294.3,324.7,296.2
948.5,620,16.8,13.8,83,10.54,12,8.9,294.3,324.7,296.2
947.9,626,16.7,13.8,83,10.55,12,8.9,294.3,324.7,296.2
947.3,631,16.7,13.9,83,10.57,12,8.9,294.3,324.8,296.2
946.7,636,16.6,13.9,84,10.62,12,9.0,294.4,325.0,296.2
946.1,642,16.6,14.0,85,10.70,12,9.0,294.4,325.2,296.3
945.4,649,16.6,14.1,85,10.75,12,9.0,294.4,325.4,296.3
944.7,655,16.5,14.1,86,10.75,12,9.0,294.4,325.4,296.3
943.9,662,16.4,14.0,86,10.71,12,9.0,294.4,325.2,296.3
943.2,668,16.3,13.9,86,10.66,11,9.0,294.4,325.1,296.3
942.5,675,16.3,13.8,86,10.61,11,9.1,294.4,325.0,296.2
941.8,681,16.2,13.8,86,10.58,11,9.1,294.4,324.9,296.2
941.1,687,16.2,13.8,86,10.60,11,9.1,294.4,324.9,296.2
940.5,693,16.1,13.9,86,10.64,11,9.1,294.4,325.1,296.3
939.8,699,16.1,13.9,87,10.68,11,9.1,294.4,325.2,296.3
939.2,704,16.0,13.9,87,10.70,11,9.1,294.4,325.3,296.3
938.6,710,16.0,13.9,88,10.70,11,9.1,294.4,325.3,296.3
938.0,715,15.9,13.9,88,10.68,11,9.1,294.4,325.2,296.3
937.5,720,15.9,13.8,88,10.66,11,9.0,294.4,325.1,296.3
936.9,726,15.8,13.8,88,10.67,11,9.0,294.4,325.1,296.3
936.3,731,15.7,13.8,88,10.67,11,9.0,294.4,325.2,296.3
935.7,736,15.7,13.8,89,10.67,11,9.0,294.4,325.1,296.3
935.2,741,15.6,13.8,89,10.67,11,9.0,294.4,325.1,296.2
934.6,746,15.6,13.8,89,10.67,11,8.9,294.4,325.1,296.3
934.1,751,15.5,13.8,89,10.68,10,8.9,294.4,325.2,296.3
933.6,756,15.5,13.8,90,10.68,10,8.9,294.4,325.2,296.3
933.1,760,15.5,13.8,90,10.70,10,8.8,294.4,325.2,296.3
932.6,765,15.4,13.9,90,10.73,10,8.8,294.4,325.3,296.3
932.1,770,15.4,13.8,91,10.72,10,8.7,294.4,325.3,296.3
931.5,774,15.3,13.8,91,10.70,10,8.7,294.4,325.2,296.3
931.0,779,15.3,13.8,91,10.69,10,8.6,294.4,325.2,296.3
930.5,783,15.3,13.8,91,10.71,10,8.6,294.4,325.3,296.3
930.0,788,15.2,13.8,91,10.71,9,8.5,294.4,325.3,296.3
929.5,793,15.2,13.8,91,10.72,9,8.4,294.4,325.3,296.3
929.0,797,15.1,13.8,92,10.71,9,8.4,294.4,325.3,296.3
928.5,802,15.1,13.7,92,10.69,9,8.3,294.4,325.2,296.3
927.9,807,15.0,13.7,92,10.69,9,8.2,294.4,325.2,296.3
927.3,813,15.0,13.7,92,10.69,9,8.2,294.4,325.2,296.3
926.8,818,15.0,13.7,92,10.68,9,8.1,294.4,325.2,296.3
926.2,823,14.9,13.6,92,10.64,10,8.0,294.4,325.1,296.3
925.6,828,14.9,13.5,92,10.57,10,7.9,294.4,324.9,296.3
925.1,833,14.8,13.3,90,10.42,10,7.9,294.5,324.5,296.3
925.0,834,14.8,13.2,90,10.39,10,7.8,294.5,324.5,296.3
924.5,839,14.9,12.9,88,10.19,10,7.8,294.5,324.0,296.3
923.9,844,14.9,12.5,86,9.93,11,7.7,294.6,323.4,296.4
923.4,849,14.9,12.5,85,9.88,11,7.6,294.7,323.3,296.5
922.8,854,14.9,12.4,85,9.83,12,7.6,294.7,323.2,296.5
922.2,860,15.0,11.9,82,9.52,12,7.5,294.8,322.4,296.5
921.6,865,15.0,11.6,80,9.33,13,7.4,295.0,322.0,296.6
921.1,870,15.0,11.6,80,9.35,13,7.4,295.0,322.1,296.6
920.5,876,14.9,11.7,81,9.45,14,7.3,295.0,322.4,296.7
919.9,881,14.8,12.0,83,9.62,15,7.3,294.9,322.8,296.6
919.4,886,14.7,11.8,83,9.53,15,7.2,294.9,322.5,296.6
918.8,891,14.8,11.0,78,9.00,16,7.2,295.0,321.1,296.6
918.3,896,14.9,10.2,73,8.56,17,7.1,295.2,320.1,296.7
917.8,900,15.1,9.8,71,8.32,18,7.1,295.4,319.6,296.9
917.3,905,15.2,9.6,69,8.21,19,7.1,295.5,319.5,297.0
916.8,909,15.2,9.6,70,8.22,20,7.0,295.5,319.6,297.0
916.3,914,15.1,9.6,69,8.20,21,7.0,295.6,319.5,297.0
915.8,918,15.1,9.3,68,8.05,22,7.0,295.6,319.1,297.1
915.3,923,15.2,8.8,66,7.80,23,7.0,295.7,318.6,297.1
914.9,928,15.3,8.4,63,7.57,24,7.0,295.8,318.0,297.2
914.4,932,15.4,8.0,61,7.37,25,6.9,296.0,317.6,297.3
913.9,937,15.4,7.7,60,7.21,26,6.9,296.1,317.3,297.4
913.4,941,15.5,7.4,59,7.08,28,6.9,296.2,317.1,297.5
912.9,946,15.5,7.1,57,6.93,29,6.9,296.3,316.7,297.5
912.4,950,15.6,6.6,55,6.71,30,6.9,296.4,316.2,297.6
911.9,955,15.6,6.1,53,6.46,31,6.9,296.5,315.6,297.6
911.5,959,15.7,5.6,51,6.28,33,6.9,296.6,315.2,297.7
911.0,964,15.7,5.5,50,6.20,34,6.9,296.7,315.1,297.8
910.5,968,15.7,5.5,50,6.21,35,6.9,296.7,315.1,297.8
909.9,973,15.7,5.4,51,6.21,37,6.9,296.7,315.1,297.8
909.4,978,15.7,5.4,50,6.19,38,6.9,296.7,315.1,297.9
908.8,984,15.6,5.5,51,6.22,39,6.9,296.7,315.2,297.9
908.2,989,15.5,5.6,51,6.27,41,6.9,296.7,315.3,297.9
907.6,995,15.5,5.6,52,6.28,42,6.9,296.7,315.3,297.8
907.0,1000,15.4,5.4,51,6.20,43,6.9,296.7,315.1,297.8
906.5,1006,15.4,5.1,50,6.07,45,7.0,296.7,314.7,297.8
905.9,1011,15.4,4.5,48,5.85,46,7.0,296.8,314.2,297.8
905.4,1016,15.4,3.8,46,5.54,47,7.0,296.9,313.4,297.8
904.9,1021,15.4,3.2,44,5.33,49,7.1,296.9,312.9,297.9
904.3,1025,15.5,3.1,44,5.30,50,7.1,297.0,312.9,298.0
903.8,1030,15.4,3.4,45,5.42,51,7.2,297.0,313.2,298.0
903.3,1035,15.4,3.4,45,5.41,52,7.2,297.0,313.2,298.0
902.9,1040,15.4,2.4,42,5.06,53,7.3,297.1,312.2,298.0
902.4,1044,15.4,1.6,39,4.75,54,7.3,297.2,311.4,298.0
901.9,1049,15.4,1.1,38,4.60,55,7.4,297.2,311.1,298.1
901.4,1054,15.4,0.9,37,4.53,56,7.4,297.3,310.9,298.1
900.9,1058,15.4,0.9,37,4.53,56,7.5,297.3,311.0,298.1
900.4,1063,15.4,0.9,37,4.54,57,7.6,297.3,311.0,298.1
899.9,1067,15.3,0.9,37,4.53,58,7.6,297.3,311.0,298.1
899.4,1072,15.3,0.9,38,4.54,58,7.7,297.3,311.0,298.1
899.0,1076,15.2,0.9,38,4.54,59,7.8,297.3,311.0,298.1
898.5,1080,15.2,0.7,37,4.49,59,7.8,297.3,310.9,298.1
898.0,1085,15.2,0.3,36,4.36,60,7.9,297.3,310.5,298.1
897.6,1089,15.2,-0.3,35,4.18,60,8.0,297.4,310.0,298.1
897.1,1094,15.2,-0.8,34,4.04,60,8.0,297.4,309.7,298.1
896.6,1098,15.2,-0.9,33,4.01,61,8.1,297.5,309.6,298.2
896.2,1102,15.1,-0.9,33,4.00,61,8.2,297.5,309.6,298.2
895.7,1107,15.1,-1.0,33,3.96,61,8.2,297.5,309.5,298.2
895.2,1111,15.1,-1.2,33,3.92,61,8.3,297.5,309.4,298.2
894.7,1116,15.0,-1.5,32,3.83,62,8.4,297.5,309.2,298.2
894.3,1120,15.0,-1.9,31,3.71,62,8.4,297.5,308.8,298.2
893.8,1125,15.0,-2.6,30,3.54,62,8.5,297.6,308.4,298.2
893.3,1130,15.0,-3.3,28,3.36,62,8.6,297.6,307.9,298.2
892.7,1135,15.0,-3.7,27,3.25,62,8.7,297.6,307.6,298.2
892.2,1140,15.0,-3.9,27,3.21,63,8.8,297.7,307.5,298.2
891.7,1145,14.9,-3.8,27,3.23,63,8.8,297.7,307.6,298.3
891.1,1150,14.9,-4.0,27,3.19,63,8.9,297.7,307.5,298.3
890.6,1155,14.9,-4.6,26,3.05,63,9.0,297.7,307.1,298.3
890.1,1160,14.9,-5.3,24,2.90,63,9.1,297.8,306.7,298.3
889.6,1165,14.9,-6.0,23,2.76,63,9.2,297.8,306.3,298.3
889.1,1169,14.9,-6.9,22,2.57,64,9.3,297.8,305.8,298.3
888.6,1174,14.9,-8.4,19,2.29,64,9.4,297.9,305.1,298.3
888.1,1179,14.9,-10.4,16,1.95,64,9.5,298.0,304.2,298.4
887.5,1184,15.0,-12.6,14,1.64,64,9.6,298.1,303.4,298.4
887.0,1189,15.0,-15.1,11,1.34,64,9.7,298.2,302.6,298.5
886.6,1194,15.1,-18.9,8,0.97,64,9.8,298.3,301.5,298.5
886.1,1198,15.2,-24.6,5,0.59,65,9.9,298.5,300.5,298.6
885.6,1203,15.3,-29.7,3,0.37,65,10.0,298.6,299.9,298.7
885.1,1207,15.4,-31.7,2,0.30,65,10.1,298.7,299.8,298.8
884.7,1212,15.4,-32.4,2,0.29,65,10.1,298.8,299.8,298.8
884.2,1216,15.4,-33.1,2,0.27,65,10.2,298.8,299.8,298.9
883.7,1221,15.4,-34.5,2,0.23,65,10.3,298.9,299.7,298.9
883.2,1226,15.4,-35.0,2,0.22,65,10.4,298.9,299.7,299.0
882.7,1231,15.3,-33.9,2,0.25,66,10.5,298.9,299.8,299.0
882.2,1235,15.3,-32.2,2,0.29,66,10.6,299.0,300.0,299.0
881.7,1240,15.3,-30.8,3,0.33,66,10.6,299.0,300.2,299.1
881.2,1245,15.3,-29.4,3,0.38,66,10.7,299.0,300.4,299.1
880.7,1249,15.2,-27.7,4,0.45,66,10.8,299.0,300.6,299.1
880.2,1254,15.2,-26.4,4,0.50,66,10.9,299.0,300.8,299.1
879.8,1258,15.2,-26.0,4,0.52,66,10.9,299.0,300.8,299.1
879.3,1263,15.1,-26.1,4,0.52,66,11.0,299.1,300.8,299.2
878.9,1267,15.1,-26.1,4,0.52,66,11.0,299.1,300.8,299.2
878.4,1271,15.1,-26.2,4,0.52,67,11.1,299.1,300.8,299.2
878.0,1275,15.0,-26.1,4,0.52,67,11.2,299.1,300.9,299.2
877.6,1279,15.0,-26.0,4,0.53,67,11.2,299.1,300.9,299.2
877.1,1284,15.0,-25.8,4,0.53,67,11.3,299.1,300.9,299.2
876.7,1288,14.9,-25.7,4,0.54,67,11.3,299.1,301.0,299.2
876.2,1293,14.9,-25.8,4,0.53,66,11.3,299.1,301.0,299.2
875.7,1297,14.9,-26.3,4,0.51,66,11.4,299.2,300.9,299.2
875.2,1302,14.8,-26.8,4,0.49,66,11.4,299.2,300.8,299.2
874.7,1307,14.8,-27.3,4,0.47,66,11.5,299.2,300.8,299.3
874.3,1311,14.8,-28.2,4,0.43,66,11.5,299.2,300.7,299.3
873.8,1316,14.7,-29.0,3,0.40,65,11.5,299.2,300.6,299.3
873.3,1321,14.7,-29.4,3,0.38,65,11.6,299.2,300.6,299.3
872.8,1325,14.7,-29.4,3,0.38,65,11.6,299.3,300.6,299.3
872.3,1330,14.7,-29.6,3,0.38,64,11.6,299.3,300.6,299.3
871.8,1335,14.6,-30.5,3,0.35,64,11.6,299.3,300.5,299.3
871.3,1340,14.6,-32.9,2,0.28,63,11.7,299.3,300.3,299.4
870.7,1345,14.6,-35.4,2,0.22,63,11.7,299.3,300.1,299.4
870.2,1351,14.6,-36.8,2,0.19,62,11.7,299.4,300.0,299.4
869.7,1356,14.6,-36.8,2,0.19,62,11.7,299.4,300.1,299.5
869.1,1361,14.6,-35.1,2,0.22,61,11.8,299.5,300.3,299.5
868.6,1366,14.6,-32.9,2,0.28,60,11.8,299.5,300.5,299.6
868.1,1371,14.6,-31.6,3,0.31,60,11.8,299.6,300.7,299.7
867.6,1376,14.6,-30.8,3,0.34,59,11.8,299.6,300.8,299.7
867.1,1381,14.6,-30.4,3,0.35,58,11.8,299.7,300.9,299.7
866.6,1385,14.6,-30.2,3,0.36,58,11.8,299.7,301.0,299.8
866.2,1390,14.5,-30.2,3,0.36,57,11.8,299.7,301.0,299.8
865.7,1394,14.5,-30.1,3,0.36,57,11.8,299.7,301.0,299.8
865.3,1398,14.5,-30.0,3,0.37,56,11.8,299.8,301.0,299.8
864.9,1402,14.5,-29.9,3,0.37,55,11.8,299.8,301.1,299.8
864.5,1406,14.4,-29.9,3,0.37,55,11.8,299.8,301.1,299.9
864.1,1410,14.4,-29.9,3,0.37,55,11.8,299.8,301.1,299.9
863.7,1414,14.4,-29.8,3,0.37,54,11.8,299.9,301.2,300.0
863.3,1418,14.4,-29.8,3,0.37,54,11.8,299.9,301.2,300.0
862.9,1422,14.4,-29.8,3,0.38,54,11.8,300.0,301.3,300.0
862.4,1426,14.4,-29.6,3,0.38,54,11.7,300.0,301.3,300.1
861.9,1431,14.4,-29.5,3,0.39,53,11.7,300.0,301.4,300.1
861.4,1436,14.4,-29.5,3,0.39,53,11.7,300.1,301.4,300.1
860.9,1441,14.4,-29.7,3,0.38,53,11.7,300.1,301.4,300.2
860.3,1447,14.4,-30.1,3,0.36,54,11.7,300.2,301.4,300.2
859.7,1453,14.4,-30.8,3,0.34,54,11.6,300.2,301.4,300.3
859.2,1458,14.4,-31.2,3,0.33,54,11.6,300.3,301.4,300.4
858.6,1464,14.4,-31.3,3,0.33,54,11.6,300.3,301.5,300.4
858.0,1469,14.4,-31.4,3,0.32,54,11.6,300.4,301.5,300.4
857.5,1475,14.3,-31.5,3,0.32,55,11.5,300.4,301.5,300.4
856.9,1480,14.3,-31.6,3,0.32,55,11.5,300.4,301.5,300.4
856.4,1485,14.2,-31.8,3,0.31,56,11.5,300.4,301.5,300.4
855.9,1490,14.2,-32.2,3,0.30,56,11.5,300.4,301.5,300.4
855.4,1495,14.1,-32.7,2,0.29,56,11.5,300.4,301.4,300.4
855.0,1499,14.1,-33.2,2,0.27,57,11.5,300.4,301.4,300.4
854.5,1504,14.1,-33.5,2,0.27,57,11.5,300.4,301.3,300.4
854.1,1508,14.0,-33.7,2,0.26,58,11.5,300.4,301.3,300.5
853.6,1512,14.0,-34.0,2,0.25,58,11.5,300.4,301.3,300.5
853.2,1516,14.0,-34.2,2,0.25,58,11.5,300.4,301.3,300.5
852.8,1520,13.9,-34.3,2,0.25,59,11.5,300.4,301.3,300.5
852.4,1524,13.9,-34.3,2,0.24,59,11.5,300.4,301.3,300.5
852.0,1528,13.9,-34.4,2,0.24,59,11.5,300.4,301.3,300.5
851.6,1532,13.8,-34.4,2,0.24,60,11.5,300.4,301.3,300.5
851.2,1536,13.8,-34.5,2,0.24,60,11.5,300.5,301.3,300.5
850.8,1541,13.8,-34.6,2,0.24,60,11.5,300.5,301.3,300.5
850.3,1545,13.7,-34.7,2,0.24,60,11.5,300.5,301.3,300.5
850.0,1548,13.7,-34.8,2,0.24,60,11.5,300.5,301.3,300.5
849.8,1550,13.6,-34.8,2,0.23,60,11.5,300.4,301.3,300.5
849.3,1555,13.6,-35.1,2,0.23,60,11.5,300.4,301.3,300.5
848.8,1560,13.5,-35.4,2,0.22,61,11.6,300.4,301.2,300.5
848.3,1565,13.5,-35.8,2,0.21,61,11.5,300.4,301.2,300.5
847.8,1570,13.5,-36.1,2,0.21,61,11.5,300.5,301.2,300.5
847.3,1575,13.4,-36.4,2,0.20,61,11.5,300.5,301.2,300.5
846.9,1579,13.4,-36.5,2,0.20,61,11.5,300.5,301.2,300.5
846.4,1584,13.4,-36.6,2,0.20,61,11.5,300.5,301.2,300.5
846.0,1588,13.3,-36.9,2,0.19,61,11.5,300.5,301.2,300.5
845.5,1592,13.3,-37.4,2,0.18,61,11.5,300.5,301.2,300.5
845.1,1597,13.3,-37.8,2,0.17,61,11.5,300.5,301.2,300.6
844.7,1601,13.2,-38.3,1,0.17,60,11.5,300.5,301.1,300.6
844.2,1605,13.2,-38.7,1,0.16,60,11.4,300.6,301.1,300.6
843.8,1610,13.2,-38.9,1,0.16,60,11.4,300.6,301.1,300.6
843.3,1615,13.2,-38.9,1,0.16,60,11.4,300.6,301.2,300.6
842.8,1619,13.1,-38.8,1,0.16,60,11.4,300.6,301.2,300.6
842.4,1624,13.1,-38.8,1,0.16,60,11.3,300.6,301.2,300.7
841.9,1629,13.1,-39.0,1,0.16,60,11.3,300.6,301.2,300.7
841.4,1634,13.0,-39.2,1,0.15,60,11.2,300.7,301.2,300.7
840.9,1638,13.0,-39.5,1,0.15,60,11.2,300.7,301.2,300.7
840.4,1643,13.0,-39.9,1,0.14,60,11.1,300.7,301.2,300.7
840.0,1648,12.9,-40.2,1,0.14,60,11.0,300.7,301.2,300.7
839.5,1653,12.9,-40.7,1,0.13,60,11.0,300.7,301.2,300.7
839.0,1657,12.9,-41.2,1,0.12,60,10.9,300.7,301.2,300.8
838.6,1662,12.8,-41.6,1,0.12,60,10.8,300.7,301.2,300.8
838.1,1667,12.8,-41.8,1,0.12,60,10.7,300.8,301.2,300.8
837.6,1671,12.8,-41.9,1,0.12,60,10.6,300.8,301.2,300.8
837.2,1676,12.7,-42.0,1,0.11,60,10.4,300.8,301.2,300.8
836.7,1680,12.7,-41.9,1,0.11,59,10.3,300.8,301.2,300.8
836.3,1685,12.7,-41.8,1,0.12,59,10.2,300.8,301.2,300.8
835.8,1689,12.6,-41.7,1,0.12,59,10.0,300.8,301.2,300.8
835.3,1694,12.6,-41.6,1,0.12,59,9.8,300.8,301.3,300.8
834.8,1699,12.5,-41.7,1,0.12,58,9.7,300.8,301.3,300.8
834.3,1704,12.5,-42.1,1,0.11,58,9.5,300.8,301.2,300.8
833.8,1710,12.4,-42.7,1,0.11,58,9.3,300.8,301.2,300.8
833.2,1715,12.4,-43.4,1,0.10,57,9.1,300.8,301.2,300.9
832.7,1721,12.4,-44.1,1,0.09,57,8.9,300.8,301.2,300.9
832.2,1726,12.3,-44.6,1,0.09,56,8.7,300.9,301.2,300.9
831.6,1732,12.3,-45.0,1,0.08,55,8.5,300.9,301.2,300.9
831.0,1737,12.2,-45.5,1,0.08,55,8.3,300.9,301.2,300.9
830.5,1743,12.2,-46.5,1,0.07,54,8.1,300.9,301.2,300.9
829.9,1748,12.2,-47.8,1,0.06,53,7.9,300.9,301.2,301.0
829.4,1754,12.2,-49.0,0,0.05,52,7.7,301.0,301.2,301.0
828.8,1759,12.2,-49.0,0,0.05,51,7.6,301.1,301.3,301.1
828.3,1765,12.2,-49.0,0,0.05,51,7.4,301.1,301.3,301.1
827.8,1770,12.2,-48.4,1,0.06,50,7.2,301.2,301.4,301.2
827.3,1775,12.3,-47.9,1,0.06,49,7.0,301.3,301.5,301.3
826.9,1779,12.3,-47.7,1,0.06,48,6.9,301.3,301.6,301.3
826.4,1784,12.2,-47.8,1,0.06,47,6.7,301.3,301.6,301.4
825.9,1789,12.2,-48.1,1,0.06,46,6.5,301.3,301.6,301.4
