PRES,HGHT,TEMP,DWPT,RELH,MIXR,DRCT,SPED,THTA,THTE,THTV
1010.4,31,21.5,19.8,90,14.54,260,2.4,293.8,335.4,296.3
1009.7,36,22.0,20.2,89,14.93,249,1.3,294.4,337.2,297.0
1009.1,41,22.4,20.3,88,15.05,243,1.1,294.7,338.0,297.4
1008.6,46,23.2,20.7,86,15.40,240,1.0,295.6,340.0,298.3
1008.1,50,24.0,21.0,83,15.69,240,1.1,296.5,341.9,299.3
1007.6,55,24.4,21.0,81,15.70,239,1.1,296.9,342.5,299.7
1007.0,60,24.5,20.9,80,15.62,238,1.2,297.1,342.5,299.9
1006.4,66,24.5,20.9,80,15.61,237,1.2,297.1,342.5,299.9
1005.8,71,24.5,20.9,80,15.66,235,1.2,297.2,342.7,300.0
1005.2,75,24.5,21.0,81,15.74,233,1.2,297.2,343.0,300.0
1004.7,80,24.5,21.0,81,15.79,231,1.2,297.3,343.2,300.1
1004.2,85,24.5,21.0,81,15.80,229,1.2,297.3,343.2,300.1
1003.6,89,24.5,21.0,81,15.81,227,1.2,297.3,343.3,300.2
1003.1,94,24.5,21.0,81,15.83,224,1.1,297.4,343.4,300.2
1002.6,99,24.4,21.1,81,15.86,221,1.1,297.4,343.5,300.2
1002.0,104,24.4,21.1,82,15.90,218,1.1,297.4,343.6,300.2
1001.5,108,24.4,21.1,82,15.93,214,1.1,297.4,343.7,300.2
1000.9,113,24.4,21.1,82,15.93,210,1.0,297.4,343.7,300.3
1000.4,118,24.3,21.1,82,15.92,206,1.0,297.4,343.7,300.3
1000.0,121,24.3,21.1,82,15.91,206,1.0,297.4,343.7,300.3
999.8,123,24.3,21.1,82,15.92,201,1.0,297.5,343.7,300.3
999.3,127,24.3,21.0,82,15.91,196,0.9,297.5,343.7,300.3
998.8,132,24.2,21.0,82,15.90,190,0.9,297.5,343.7,300.3
998.3,137,24.2,21.0,82,15.89,184,0.9,297.5,343.7,300.3
997.7,141,24.1,21.0,83,15.89,178,0.9,297.5,343.7,300.3
997.2,146,24.1,21.0,83,15.89,172,0.9,297.5,343.7,300.3
996.6,151,24.0,21.0,83,15.91,166,0.9,297.5,343.7,300.3
996.0,157,24.0,21.0,83,15.91,161,1.0,297.5,343.7,300.3
995.4,162,23.9,21.0,84,15.92,155,1.0,297.5,343.8,300.3
994.8,167,23.9,21.0,84,15.95,150,1.0,297.5,343.9,300.3
994.2,173,23.8,21.0,84,15.95,146,1.1,297.5,343.8,300.3
993.6,178,23.8,21.0,84,15.93,142,1.1,297.5,343.8,300.3
992.9,184,23.7,20.9,85,15.90,138,1.2,297.4,343.7,300.3
992.4,189,23.6,20.9,85,15.89,135,1.2,297.4,343.6,300.3
991.8,194,23.6,20.9,85,15.93,133,1.3,297.5,343.8,300.3
991.3,199,23.6,21.0,85,15.97,131,1.3,297.5,343.9,300.3
990.7,203,23.5,21.0,86,15.99,129,1.4,297.5,344.0,300.3
990.2,208,23.5,21.0,86,16.00,127,1.4,297.5,344.0,300.3
989.6,213,23.5,21.0,86,16.02,126,1.4,297.5,344.1,300.3
989.0,218,23.4,21.0,86,16.02,125,1.5,297.5,344.1,300.3
988.4,223,23.3,20.9,86,15.98,125,1.5,297.5,344.0,300.3
987.8,229,23.3,20.9,87,15.96,125,1.6,297.5,343.9,300.3
987.2,234,23.2,20.9,87,15.96,125,1.6,297.5,343.9,300.3
986.6,239,23.2,20.9,87,15.98,125,1.6,297.5,344.0,300.3
986.0,245,23.2,20.9,87,15.99,125,1.7,297.5,344.0,300.3
985.4,250,23.1,20.9,87,15.98,126,1.7,297.5,344.0,300.3
984.8,256,23.1,20.9,87,15.96,127,1.7,297.5,343.9,300.4
984.2,261,23.0,20.8,87,15.94,128,1.7,297.5,343.9,300.4
983.6,266,23.0,20.8,87,15.92,129,1.8,297.5,343.8,300.4
983.1,271,23.0,20.7,87,15.87,130,1.8,297.6,343.7,300.4
982.5,276,22.9,20.7,87,15.79,132,1.8,297.6,343.5,300.4
981.9,281,22.9,20.6,87,15.74,133,1.8,297.6,343.4,300.4
981.4,286,22.9,20.6,87,15.74,135,1.9,297.7,343.4,300.5
980.9,291,22.9,20.7,87,15.82,137,1.9,297.7,343.7,300.5
980.3,296,22.8,20.7,88,15.91,138,1.9,297.7,344.0,300.5
979.8,300,22.8,20.8,88,15.96,140,1.9,297.7,344.1,300.5
979.3,305,22.7,20.8,89,15.95,141,2.0,297.7,344.1,300.5
978.7,310,22.7,20.7,89,15.94,143,2.0,297.7,344.1,300.5
978.1,315,22.7,20.8,89,15.96,144,2.0,297.7,344.1,300.5
977.6,320,22.6,20.8,89,15.99,146,2.0,297.7,344.2,300.5
977.0,325,22.6,20.8,90,16.03,147,2.1,297.7,344.3,300.5
976.4,330,22.5,20.8,90,16.06,149,2.1,297.7,344.4,300.5
975.9,335,22.5,20.8,91,16.08,150,2.1,297.7,344.5,300.5
975.3,341,22.4,20.8,91,16.09,151,2.1,297.7,344.5,300.5
974.7,346,22.4,20.8,91,16.08,152,2.1,297.7,344.5,300.5
974.1,351,22.3,20.8,91,16.07,153,2.1,297.7,344.4,300.5
973.6,356,22.3,20.8,91,16.08,154,2.2,297.7,344.5,300.5
973.0,361,22.2,20.8,92,16.09,155,2.2,297.7,344.5,300.5
972.4,366,22.2,20.8,92,16.08,156,2.2,297.7,344.5,300.5
971.9,371,22.1,20.8,92,16.07,157,2.2,297.7,344.4,300.5
971.3,377,22.1,20.8,92,16.08,157,2.2,297.7,344.5,300.5
970.7,382,22.0,20.8,93,16.10,158,2.2,297.7,344.5,300.6
970.1,387,22.0,20.8,93,16.10,159,2.2,297.7,344.5,300.6
969.6,392,21.9,20.7,93,16.09,159,2.2,297.7,344.5,300.5
969.0,397,21.9,20.7,93,16.07,160,2.2,297.7,344.4,300.5
968.5,402,21.8,20.7,93,16.07,161,2.2,297.7,344.4,300.5
967.9,407,21.8,20.7,94,16.08,162,2.2,297.7,344.5,300.5
967.3,412,21.7,20.7,94,16.09,162,2.2,297.7,344.5,300.5
966.7,418,21.7,20.7,94,16.08,163,2.2,297.7,344.5,300.5
966.1,423,21.6,20.6,94,16.04,164,2.2,297.7,344.4,300.6
965.5,428,21.6,20.5,94,15.94,165,2.2,297.7,344.1,300.6
964.9,434,21.6,20.5,93,15.88,166,2.2,297.7,344.0,300.6
964.4,439,21.5,20.4,93,15.86,166,2.2,297.8,343.9,300.6
963.8,444,21.5,20.4,94,15.87,167,2.2,297.8,344.0,300.6
963.2,449,21.5,20.4,94,15.86,168,2.2,297.8,343.9,300.6
962.7,454,21.4,20.4,94,15.85,169,2.2,297.8,343.9,300.6
962.2,459,21.4,20.4,94,15.86,169,2.2,297.8,343.9,300.6
961.6,463,21.3,20.4,94,15.85,170,2.2,297.8,343.9,300.6
961.1,468,21.3,20.3,94,15.82,171,2.2,297.8,343.9,300.6
960.6,473,21.3,20.3,94,15.79,172,2.2,297.8,343.8,300.6
960.0,478,21.2,20.3,94,15.79,172,2.3,297.8,343.8,300.7
959.5,483,21.2,20.3,94,15.79,173,2.3,297.8,343.8,300.7
959.0,488,21.2,20.3,95,15.78,173,2.3,297.8,343.8,300.7
958.4,492,21.1,20.2,94,15.74,174,2.3,297.9,343.7,300.7
957.9,497,21.1,20.1,94,15.67,174,2.3,297.9,343.5,300.7
957.4,502,21.1,20.0,94,15.59,174,2.3,297.9,343.3,300.7
956.9,507,21.1,20.0,93,15.52,174,2.3,297.9,343.1,300.7
956.3,511,21.0,19.9,93,15.50,174,2.3,297.9,343.1,300.7
955.8,516,21.0,19.9,94,15.50,174,2.2,298.0,343.1,300.7
955.3,521,21.0,19.9,94,15.49,174,2.2,298.0,343.1,300.7
954.7,526,20.9,19.9,94,15.48,174,2.2,298.0,343.1,300.8
954.2,531,20.9,19.9,94,15.47,174,2.2,298.0,343.1,300.8
953.6,536,20.9,19.8,94,15.45,174,2.2,298.0,343.0,300.8
953.1,541,20.8,19.8,94,15.44,174,2.2,298.0,343.0,300.8
952.5,546,20.8,19.8,94,15.46,174,2.2,298.0,343.1,300.8
952.0,551,20.7,19.8,94,15.47,174,2.2,298.0,343.1,300.8
951.4,557,20.7,19.8,95,15.49,174,2.1,298.1,343.2,300.8
950.8,562,20.7,19.8,95,15.47,175,2.1,298.1,343.2,300.8
950.3,567,20.6,19.7,95,15.42,175,2.1,298.1,343.0,300.8
949.7,572,20.6,19.7,94,15.35,175,2.1,298.1,342.8,300.8
949.2,577,20.6,19.6,94,15.30,176,2.1,298.1,342.7,300.9
948.7,581,20.5,19.6,94,15.26,177,2.0,298.1,342.6,300.9
948.2,586,20.5,19.5,94,15.25,177,2.0,298.2,342.6,300.9
947.7,591,20.5,19.5,94,15.22,178,2.0,298.2,342.6,300.9
947.1,596,20.5,19.5,94,15.21,180,2.0,298.2,342.6,300.9
946.6,601,20.4,19.5,94,15.21,181,2.0,298.2,342.6,300.9
946.0,606,20.4,19.5,94,15.22,183,1.9,298.2,342.6,300.9
945.5,611,20.3,19.4,95,15.20,185,1.9,298.2,342.5,300.9
944.9,616,20.3,19.4,94,15.13,188,1.9,298.2,342.4,300.9
944.3,622,20.3,19.2,94,15.04,190,1.9,298.2,342.1,300.9
943.7,627,20.2,19.1,93,14.88,193,2.0,298.3,341.7,300.9
943.1,632,20.2,18.8,92,14.64,196,2.0,298.3,341.0,300.9
942.5,638,20.2,18.4,89,14.31,198,2.0,298.4,340.2,300.9
942.0,643,20.3,18.1,87,14.00,201,2.1,298.5,339.4,301.0
941.4,648,20.3,17.7,85,13.70,204,2.1,298.6,338.6,301.0
940.9,653,20.4,17.4,83,13.37,206,2.2,298.7,337.8,301.1
940.4,658,20.4,17.0,80,13.05,209,2.2,298.8,337.0,301.1
939.8,662,20.5,16.7,79,12.87,211,2.3,298.9,336.6,301.2
939.3,667,20.5,16.6,78,12.77,213,2.4,299.0,336.4,301.3
938.8,672,20.5,16.5,78,12.67,215,2.5,299.0,336.2,301.3
938.3,677,20.5,16.3,77,12.53,217,2.6,299.1,335.8,301.3
937.7,682,20.6,16.1,76,12.36,218,2.7,299.1,335.4,301.4
937.2,687,20.6,15.9,75,12.19,220,2.8,299.2,335.0,301.4
936.6,692,20.5,15.6,73,11.98,221,2.9,299.2,334.4,301.4
936.1,697,20.6,15.2,72,11.71,222,3.0,299.3,333.7,301.4
935.6,702,20.6,14.9,70,11.47,222,3.1,299.3,333.1,301.4
935.1,707,20.6,14.6,69,11.27,223,3.2,299.4,332.6,301.4
934.6,711,20.6,14.4,68,11.07,223,3.3,299.4,332.1,301.4
934.1,716,20.6,14.1,66,10.89,224,3.4,299.5,331.6,301.4
933.6,721,20.6,13.8,65,10.66,224,3.4,299.5,331.0,301.5
933.1,725,20.6,13.3,63,10.36,224,3.5,299.6,330.2,301.5
932.6,730,20.6,12.8,61,10.02,224,3.6,299.7,329.3,301.5
932.1,734,20.7,12.4,59,9.73,224,3.6,299.8,328.6,301.5
931.5,739,20.7,12.0,58,9.52,224,3.6,299.9,328.1,301.6
931.0,744,20.7,11.8,57,9.37,223,3.7,299.9,327.7,301.6
930.4,750,20.8,11.7,56,9.35,223,3.7,300.1,327.8,301.7
929.9,755,20.8,11.9,57,9.48,223,3.7,300.1,328.2,301.8
929.3,760,20.8,12.2,58,9.66,222,3.7,300.1,328.8,301.9
928.8,765,20.7,12.5,59,9.83,222,3.7,300.1,329.3,301.9
928.2,770,20.7,12.7,60,10.02,221,3.7,300.1,329.8,301.9
927.7,775,20.6,13.0,62,10.18,220,3.7,300.1,330.3,302.0
927.2,780,20.6,13.2,63,10.31,220,3.6,300.1,330.6,302.0
926.7,785,20.5,13.3,63,10.39,219,3.6,300.1,330.9,302.0
926.2,789,20.5,13.4,64,10.47,218,3.5,300.1,331.1,302.0
925.7,794,20.4,13.5,65,10.57,217,3.5,300.1,331.4,302.0
925.2,798,20.4,13.6,65,10.66,216,3.5,300.1,331.6,302.0
925.0,800,20.3,13.6,65,10.67,215,3.4,300.1,331.6,302.0
924.7,803,20.3,13.7,66,10.68,215,3.4,300.1,331.7,302.0
924.3,807,20.3,13.7,66,10.69,214,3.3,300.1,331.7,302.0
923.8,812,20.2,13.7,66,10.71,213,3.3,300.1,331.8,302.0
923.3,816,20.2,13.7,66,10.76,212,3.2,300.1,331.9,302.0
922.8,821,20.1,13.8,67,10.82,211,3.2,300.1,332.1,302.1
922.3,825,20.1,13.9,68,10.90,210,3.2,300.1,332.3,302.1
921.8,830,20.0,14.1,69,11.04,209,3.1,300.1,332.7,302.1
921.4,834,20.0,14.4,70,11.27,208,3.1,300.0,333.3,302.1
920.9,839,19.9,14.7,72,11.53,208,3.1,300.0,334.0,302.1
920.4,843,19.8,15.0,74,11.72,207,3.0,300.0,334.6,302.1
919.9,848,19.8,15.1,75,11.84,206,3.0,300.0,334.9,302.1
919.5,852,19.7,15.2,75,11.90,206,3.0,300.0,335.1,302.1
919.0,856,19.7,15.3,76,11.94,206,3.0,300.0,335.2,302.1
918.5,861,19.6,15.3,76,12.01,206,3.0,300.0,335.4,302.1
918.0,866,19.6,15.4,77,12.11,206,3.0,300.0,335.7,302.2
917.5,870,19.5,15.6,78,12.21,206,3.0,300.0,336.0,302.2
917.0,875,19.5,15.7,79,12.30,207,3.0,300.0,336.2,302.2
916.5,880,19.5,15.8,79,12.38,207,3.0,300.0,336.5,302.2
916.0,885,19.4,15.9,80,12.47,208,3.1,300.0,336.7,302.2
915.5,890,19.4,15.9,81,12.54,209,3.1,300.0,336.9,302.2
914.9,895,19.3,16.0,81,12.60,210,3.2,300.0,337.1,302.3
914.4,900,19.3,16.0,81,12.61,211,3.2,300.0,337.2,302.3
913.8,905,19.3,15.9,81,12.51,212,3.3,300.1,336.9,302.3
913.3,910,19.3,15.7,80,12.37,213,3.3,300.1,336.6,302.4
912.8,915,19.3,15.6,79,12.27,215,3.4,300.2,336.4,302.4
912.3,920,19.3,15.5,79,12.24,216,3.5,300.2,336.3,302.4
911.8,925,19.3,15.5,79,12.25,217,3.5,300.2,336.4,302.4
911.3,929,19.2,15.5,79,12.25,218,3.6,300.2,336.4,302.4
910.8,934,19.2,15.5,79,12.29,220,3.7,300.2,336.5,302.5
910.3,938,19.1,15.6,80,12.34,221,3.8,300.2,336.6,302.5
909.9,942,19.1,15.7,80,12.40,222,3.9,300.3,336.8,302.5
909.4,947,19.1,15.7,81,12.45,222,4.0,300.3,337.0,302.5
909.0,951,19.0,15.7,81,12.46,223,4.1,300.3,337.0,302.5
908.5,955,19.0,15.7,81,12.48,224,4.2,300.3,337.1,302.5
908.1,960,19.0,15.7,81,12.48,224,4.3,300.3,337.1,302.6
907.6,964,19.0,15.7,81,12.48,225,4.3,300.3,337.1,302.6
907.1,969,18.9,15.7,81,12.43,225,4.4,300.3,337.0,302.6
906.6,974,18.9,15.6,81,12.37,226,4.5,300.3,336.8,302.6
906.1,978,18.9,15.5,81,12.33,226,4.6,300.4,336.8,302.6
905.6,983,18.8,15.5,81,12.32,226,4.6,300.4,336.7,302.6
905.0,988,18.8,15.5,81,12.32,226,4.7,300.4,336.7,302.6
904.5,993,18.7,15.5,81,12.31,226,4.7,300.4,336.7,302.6
904.0,998,18.7,15.4,81,12.27,226,4.7,300.4,336.6,302.6
903.5,1003,18.7,15.4,81,12.23,226,4.7,300.4,336.5,302.6
903.0,1008,18.6,15.3,81,12.20,226,4.7,300.4,336.4,302.6
902.5,1013,18.6,15.3,81,12.18,226,4.7,300.4,336.3,302.6
902.0,1017,18.6,15.2,81,12.17,226,4.7,300.4,336.3,302.6
901.5,1022,18.5,15.2,81,12.17,226,4.7,300.4,336.4,302.6
901.1,1026,18.5,15.2,81,12.16,226,4.7,300.5,336.4,302.7
900.6,1031,18.5,15.2,81,12.11,227,4.6,300.5,336.2,302.7
900.1,1035,18.4,15.0,81,12.03,227,4.6,300.5,336.0,302.7
899.6,1040,18.4,14.9,80,11.89,227,4.5,300.5,335.6,302.7
899.2,1044,18.4,14.7,79,11.75,227,4.5,300.5,335.3,302.7
898.7,1049,18.4,14.5,78,11.62,228,4.4,300.6,334.9,302.7
898.2,1054,18.4,14.4,78,11.55,229,4.3,300.6,334.8,302.7
897.7,1058,18.4,14.4,78,11.54,229,4.2,300.6,334.8,302.7
897.2,1063,18.3,14.4,78,11.59,230,4.2,300.7,334.9,302.7
896.7,1068,18.3,14.6,79,11.70,231,4.1,300.7,335.2,302.8
896.2,1073,18.2,14.7,80,11.83,233,4.0,300.6,335.6,302.8
895.7,1077,18.2,14.9,81,11.96,234,3.9,300.6,336.0,302.8
895.2,1082,18.1,15.0,82,12.08,236,3.9,300.6,336.3,302.8
894.8,1087,18.1,15.1,83,12.15,237,3.8,300.6,336.5,302.8
894.3,1091,18.0,15.1,83,12.19,239,3.7,300.6,336.7,302.8
893.8,1096,18.0,15.1,83,12.20,241,3.6,300.7,336.7,302.9
893.3,1100,18.0,15.2,83,12.21,243,3.6,300.7,336.8,302.9
892.9,1105,18.0,15.2,84,12.24,245,3.5,300.7,336.9,302.9
892.4,1109,18.0,15.2,84,12.26,247,3.5,300.7,337.0,302.9
891.9,1114,17.9,15.2,84,12.23,249,3.4,300.8,336.9,303.0
891.5,1118,17.9,15.1,84,12.22,251,3.4,300.8,336.9,303.0
891.0,1123,17.9,15.1,84,12.24,254,3.3,300.8,337.0,303.0
890.5,1127,17.9,15.2,84,12.25,256,3.3,300.8,337.1,303.0
890.0,1132,17.8,15.1,84,12.24,258,3.3,300.8,337.0,303.1
889.5,1137,17.8,15.0,84,12.18,260,3.2,300.9,336.9,303.1
889.0,1142,17.8,14.9,83,12.08,262,3.2,300.9,336.6,303.1
888.5,1147,17.8,14.7,82,11.92,264,3.2,300.9,336.2,303.1
887.9,1152,17.8,14.4,80,11.68,266,3.1,301.0,335.6,303.1
887.3,1158,17.8,13.9,78,11.31,267,3.1,301.1,334.6,303.1
886.8,1164,17.8,13.4,75,10.96,269,3.1,301.2,333.7,303.1
886.2,1169,17.9,13.0,73,10.67,270,3.0,301.2,332.9,303.2
885.6,1175,17.9,12.5,71,10.36,272,3.0,301.3,332.1,303.2
885.1,1180,17.9,12.0,69,10.03,273,2.9,301.4,331.2,303.2
884.5,1185,17.9,11.6,66,9.72,275,2.9,301.5,330.4,303.2
884.0,1191,17.9,11.1,64,9.44,276,2.8,301.5,329.7,303.2
883.5,1195,18.0,10.7,62,9.17,277,2.7,301.6,329.0,303.3
883.0,1200,18.0,10.3,61,8.96,278,2.6,301.7,328.5,303.3
882.5,1205,18.0,10.0,60,8.79,279,2.6,301.8,328.1,303.4
882.0,1210,18.0,9.7,58,8.60,279,2.5,301.8,327.6,303.4
881.5,1215,18.0,9.2,56,8.34,280,2.4,301.9,326.9,303.4
881.0,1220,18.1,8.8,54,8.07,281,2.3,302.0,326.2,303.4
880.5,1225,18.1,8.4,53,7.88,282,2.2,302.1,325.8,303.5
880.0,1230,18.1,8.2,52,7.80,282,2.1,302.1,325.6,303.5
879.5,1234,18.1,8.1,52,7.75,283,2.0,302.1,325.4,303.5
879.0,1239,18.1,8.0,52,7.68,284,1.9,302.2,325.3,303.6
878.5,1244,18.1,7.8,51,7.57,285,1.8,302.2,325.0,303.6
878.0,1248,18.1,7.6,50,7.49,286,1.7,302.3,324.8,303.6
877.6,1253,18.1,7.5,50,7.43,287,1.7,302.3,324.7,303.6
877.1,1257,18.0,7.4,50,7.36,289,1.6,302.3,324.5,303.7
876.7,1262,18.0,7.2,49,7.26,291,1.5,302.3,324.3,303.7
876.2,1266,18.1,7.0,48,7.18,293,1.4,302.4,324.1,303.7
875.8,1271,18.0,6.9,48,7.14,295,1.3,302.4,324.0,303.7
875.3,1275,18.0,6.8,48,7.11,298,1.3,302.5,324.0,303.8
874.8,1280,18.0,6.8,48,7.08,301,1.2,302.5,323.9,303.8
874.3,1285,18.0,6.7,47,7.05,304,1.2,302.5,323.9,303.8
873.8,1290,18.0,6.6,47,7.00,308,1.1,302.6,323.8,303.8
873.2,1296,17.9,6.5,47,6.96,311,1.1,302.6,323.7,303.8
872.6,1302,17.9,6.4,47,6.93,315,1.1,302.6,323.6,303.8
872.0,1307,17.8,6.3,47,6.89,319,1.1,302.6,323.4,303.8
871.4,1313,17.8,6.2,47,6.83,323,1.1,302.6,323.3,303.8
870.8,1319,17.8,6.0,46,6.75,326,1.1,302.6,323.1,303.9
870.2,1325,17.7,5.8,45,6.64,329,1.1,302.7,322.8,303.9
869.7,1330,17.7,5.4,44,6.49,332,1.2,302.7,322.4,303.9
869.1,1336,17.7,5.1,43,6.33,334,1.2,302.7,322.0,303.9
868.6,1341,17.7,4.8,43,6.22,336,1.2,302.8,321.7,303.9
868.1,1345,17.7,4.6,42,6.13,338,1.2,302.8,321.5,303.9
867.6,1350,17.6,4.3,41,6.02,340,1.2,302.8,321.2,303.9
867.2,1355,17.6,4.0,40,5.88,341,1.2,302.9,320.8,303.9
866.7,1359,17.7,3.5,39,5.69,342,1.2,302.9,320.3,304.0
866.3,1364,17.7,3.0,37,5.47,343,1.2,303.0,319.8,304.0
865.8,1368,17.8,2.6,36,5.33,344,1.2,303.1,319.5,304.1
865.4,1373,17.8,2.5,36,5.28,344,1.2,303.2,319.4,304.2
864.9,1377,17.8,2.5,36,5.30,345,1.2,303.2,319.5,304.2
864.5,1381,17.7,2.6,36,5.33,345,1.2,303.2,319.6,304.2
864.1,1386,17.7,2.7,37,5.37,346,1.2,303.3,319.7,304.2
863.6,1390,17.7,2.8,37,5.42,346,1.1,303.3,319.9,304.3
863.2,1394,17.6,2.9,37,5.47,346,1.1,303.3,320.0,304.3
862.8,1399,17.6,3.0,38,5.50,347,1.1,303.3,320.1,304.3
862.3,1403,17.6,3.0,38,5.52,347,1.1,303.3,320.2,304.3
861.9,1407,17.6,3.1,38,5.57,347,1.1,303.3,320.4,304.3
861.4,1412,17.5,3.4,39,5.66,347,1.1,303.3,320.7,304.4
860.9,1417,17.5,3.6,39,5.75,347,1.1,303.4,321.0,304.4
860.5,1421,17.5,3.7,40,5.81,347,1.1,303.4,321.2,304.4
860.0,1426,17.4,3.8,40,5.87,347,1.1,303.4,321.3,304.5
859.5,1431,17.4,4.0,41,5.95,347,1.2,303.4,321.6,304.5
859.0,1435,17.4,4.3,42,6.07,347,1.2,303.4,322.0,304.5
858.6,1440,17.3,4.6,43,6.21,347,1.3,303.4,322.4,304.5
858.1,1444,17.3,4.9,44,6.36,346,1.3,303.4,322.8,304.6
857.7,1449,17.2,5.3,45,6.54,345,1.4,303.4,323.3,304.6
857.2,1453,17.2,5.9,47,6.79,345,1.5,303.4,324.0,304.6
856.8,1458,17.1,6.5,50,7.11,344,1.6,303.4,324.9,304.7
856.3,1463,17.0,7.0,52,7.35,343,1.7,303.3,325.6,304.7
855.8,1467,17.0,7.1,52,7.43,343,1.8,303.3,325.8,304.7
855.4,1472,16.9,7.1,52,7.42,342,1.9,303.3,325.8,304.7
854.9,1477,16.9,7.1,52,7.43,341,2.1,303.3,325.8,304.7
854.4,1482,16.9,7.2,53,7.46,340,2.2,303.3,326.0,304.7
853.9,1487,16.8,7.2,53,7.50,339,2.3,303.4,326.1,304.7
853.3,1492,16.8,7.3,54,7.56,338,2.4,303.4,326.3,304.8
852.8,1498,16.7,7.6,55,7.71,337,2.6,303.4,326.7,304.8
852.2,1504,16.7,8.2,57,8.03,337,2.7,303.4,327.7,304.9
851.6,1510,16.6,8.8,60,8.40,336,2.8,303.4,328.7,304.9
851.0,1515,16.5,9.2,62,8.60,335,2.9,303.3,329.3,304.9
850.4,1521,16.5,9.3,62,8.66,334,3.0,303.3,329.4,304.9
850.0,1526,16.4,9.4,63,8.74,334,3.0,303.3,329.7,304.9
849.9,1527,16.4,9.4,63,8.76,333,3.1,303.3,329.7,304.9
849.4,1532,16.4,9.8,65,8.96,332,3.1,303.3,330.3,305.0
848.9,1536,16.3,10.0,66,9.12,331,3.2,303.3,330.8,305.0
848.5,1541,16.3,10.1,67,9.18,331,3.3,303.3,330.9,305.0
848.1,1545,16.2,10.1,67,9.21,330,3.3,303.3,331.0,305.0
847.7,1549,16.2,10.2,67,9.24,329,3.4,303.3,331.1,305.0
847.3,1553,16.2,10.2,67,9.23,328,3.4,303.4,331.1,305.0
846.9,1557,16.2,10.1,67,9.21,327,3.4,303.4,331.1,305.1
846.5,1561,16.1,10.1,67,9.19,327,3.4,303.4,331.0,305.1
846.1,1564,16.1,10.0,67,9.18,326,3.4,303.4,331.0,305.1
845.7,1568,16.1,10.0,67,9.15,326,3.4,303.4,330.9,305.1
845.3,1573,16.0,9.9,67,9.09,325,3.4,303.4,330.8,305.1
844.9,1577,16.0,9.8,66,9.02,325,3.4,303.4,330.6,305.1
844.4,1582,16.0,9.7,66,8.96,324,3.4,303.4,330.4,305.1
843.9,1587,16.0,9.6,66,8.90,324,3.4,303.5,330.3,305.1
843.5,1591,15.9,9.5,65,8.85,324,3.4,303.5,330.2,305.1
843.0,1596,15.9,9.4,65,8.80,324,3.3,303.5,330.0,305.1
842.5,1601,15.9,9.3,65,8.77,324,3.3,303.5,330.0,305.1
842.1,1605,15.9,9.2,65,8.72,324,3.3,303.5,329.8,305.1
841.6,1610,15.8,9.1,64,8.64,324,3.3,303.6,329.6,305.1
841.2,1614,15.8,8.9,64,8.55,325,3.3,303.6,329.4,305.2
840.7,1619,15.8,8.8,63,8.51,325,3.3,303.6,329.3,305.2
840.3,1623,15.8,8.9,63,8.53,326,3.3,303.7,329.4,305.2
839.9,1627,15.8,9.0,64,8.59,326,3.3,303.7,329.6,305.3
839.5,1632,15.8,9.0,64,8.61,326,3.3,303.7,329.7,305.3
839.1,1636,15.8,8.9,63,8.54,327,3.3,303.8,329.6,305.3
838.6,1640,15.8,8.6,62,8.40,327,3.4,303.9,329.2,305.4
838.2,1645,15.8,8.4,62,8.31,328,3.4,303.9,329.0,305.4
837.7,1649,15.8,8.4,61,8.31,328,3.4,304.0,329.1,305.5
837.3,1654,15.9,8.4,61,8.28,329,3.4,304.1,329.1,305.6
836.8,1658,15.9,8.3,61,8.24,329,3.5,304.1,329.1,305.6
836.4,1663,15.9,8.4,61,8.29,329,3.5,304.2,329.3,305.7
836.0,1667,15.9,8.5,62,8.37,329,3.5,304.2,329.6,305.7
835.5,1672,15.9,8.6,62,8.42,329,3.5,304.2,329.7,305.8
835.1,1676,15.8,8.5,62,8.40,329,3.6,304.2,329.7,305.8
834.7,1680,15.8,8.4,61,8.32,329,3.6,304.3,329.5,305.8
834.3,1685,15.8,8.2,61,8.21,329,3.6,304.3,329.2,305.8
833.8,1689,15.8,7.9,59,8.06,328,3.7,304.4,328.8,305.8
833.4,1693,15.8,7.7,59,7.96,328,3.7,304.4,328.6,305.9
833.0,1697,15.8,7.7,59,7.95,327,3.7,304.5,328.6,305.9
832.6,1702,15.8,7.8,59,7.98,326,3.7,304.5,328.7,306.0
832.2,1706,15.8,7.7,59,7.97,325,3.7,304.5,328.7,306.0
831.7,1710,15.8,7.7,59,7.95,325,3.7,304.6,328.7,306.0
831.3,1714,15.8,7.6,58,7.91,324,3.7,304.6,328.6,306.0
830.9,1719,15.7,7.5,58,7.86,323,3.7,304.6,328.5,306.0
830.5,1723,15.7,7.4,58,7.81,322,3.7,304.6,328.4,306.1
830.1,1727,15.7,7.4,58,7.80,321,3.7,304.7,328.4,306.1
829.7,1732,15.7,7.4,58,7.80,319,3.6,304.7,328.4,306.1
829.2,1736,15.7,7.4,58,7.80,318,3.6,304.7,328.4,306.1
828.7,1741,15.7,7.4,58,7.79,317,3.6,304.7,328.4,306.2
828.2,1747,15.6,7.3,58,7.79,316,3.5,304.7,328.4,306.2
827.7,1752,15.6,7.3,58,7.80,315,3.5,304.7,328.5,306.2
827.1,1757,15.5,7.4,58,7.83,315,3.4,304.7,328.6,306.2
826.6,1763,15.5,7.5,59,7.89,314,3.4,304.7,328.7,306.2
826.1,1768,15.4,7.6,60,7.94,313,3.3,304.7,328.9,306.2
