PRES,HGHT,TEMP,DWPT,RELH,MIXR,DRCT,SPED,THTA,THTE,THTV
1016.4,31,26.6,21.6,74,16.19,65,7.6,298.4,345.6,301.2
1015.6,38,26.0,21.3,75,15.92,67,5.6,297.8,344.2,300.7
1014.9,43,25.7,21.2,77,15.85,68,5.2,297.5,343.7,300.4
1014.5,47,25.5,21.2,77,15.85,68,5.3,297.4,343.5,300.2
1014.0,51,25.4,21.2,77,15.80,69,5.6,297.4,343.3,300.2
1013.4,57,25.3,21.0,77,15.66,69,6.0,297.4,342.9,300.1
1012.5,64,25.2,20.8,77,15.47,69,6.4,297.3,342.2,300.0
1011.9,69,25.0,20.6,77,15.25,70,6.7,297.1,341.4,299.8
1011.3,75,24.8,20.5,77,15.16,70,6.9,297.0,341.0,299.7
1010.6,81,24.7,20.4,77,15.14,71,7.2,297.0,340.9,299.7
1009.9,87,24.6,20.4,77,15.14,71,7.4,297.0,340.9,299.6
1009.2,94,24.6,20.5,78,15.17,72,7.6,297.0,341.0,299.7
1008.5,100,24.6,20.5,78,15.21,72,7.9,297.0,341.1,299.7
1007.8,106,24.5,20.4,78,15.17,73,8.0,297.0,341.0,299.7
1007.1,112,24.4,20.3,78,15.05,73,8.2,297.0,340.6,299.6
1006.4,118,24.4,20.2,78,14.97,74,8.4,297.0,340.4,299.6
1005.7,124,24.3,20.2,78,15.01,75,8.5,297.0,340.5,299.6
1005.0,130,24.2,20.3,79,15.05,75,8.6,297.0,340.6,299.6
1004.3,136,24.2,20.3,79,15.05,76,8.8,297.0,340.6,299.6
1003.6,142,24.1,20.2,79,15.04,76,8.9,297.0,340.6,299.6
1002.9,148,24.1,20.2,79,15.01,77,9.0,297.0,340.5,299.6
1002.2,154,24.0,20.2,79,14.99,77,9.1,297.0,340.5,299.6
1001.5,160,23.9,20.1,79,14.97,78,9.2,297.0,340.4,299.6
1000.9,166,23.9,20.1,79,14.97,78,9.3,296.9,340.4,299.6
1000.2,172,23.8,20.1,80,14.96,79,9.3,296.9,340.3,299.6
1000.0,174,23.8,20.1,80,14.96,79,9.4,296.9,340.4,299.6
999.6,177,23.8,20.1,80,14.95,79,9.4,296.9,340.3,299.6
999.0,183,23.7,20.1,80,14.96,79,9.5,296.9,340.4,299.6
998.4,188,23.7,20.1,81,15.02,79,9.6,296.9,340.5,299.6
997.8,193,23.6,20.2,81,15.14,79,9.6,297.0,340.9,299.6
997.2,198,23.6,20.3,82,15.23,79,9.7,297.0,341.2,299.7
996.6,203,23.5,20.4,82,15.27,79,9.8,297.0,341.3,299.7
996.0,208,23.5,20.4,83,15.28,79,9.9,297.0,341.3,299.7
995.5,213,23.4,20.4,83,15.29,79,9.9,297.0,341.3,299.7
994.9,218,23.4,20.4,83,15.30,78,10.0,297.0,341.4,299.7
994.4,223,23.4,20.3,83,15.28,78,10.1,297.0,341.3,299.7
993.8,228,23.3,20.3,83,15.23,78,10.1,297.0,341.2,299.7
993.2,233,23.2,20.2,83,15.13,77,10.2,297.0,340.9,299.6
992.6,239,23.2,20.1,83,15.09,77,10.3,296.9,340.7,299.6
992.0,244,23.1,20.0,83,15.02,76,10.3,296.9,340.5,299.6
991.4,249,23.1,19.9,83,14.95,76,10.4,296.9,340.3,299.6
990.8,255,23.0,19.9,82,14.89,75,10.4,296.9,340.2,299.6
990.2,260,23.0,19.8,82,14.85,75,10.5,297.0,340.1,299.6
989.6,265,22.9,19.8,83,14.86,74,10.5,297.0,340.1,299.6
989.0,271,22.9,19.9,83,14.91,74,10.6,297.0,340.2,299.6
988.3,276,22.8,19.9,84,14.98,73,10.6,297.0,340.4,299.6
987.7,282,22.8,20.0,84,15.02,73,10.7,296.9,340.5,299.6
987.1,288,22.7,19.9,84,15.01,72,10.7,296.9,340.5,299.6
986.4,293,22.6,19.9,85,15.01,72,10.7,296.9,340.5,299.6
985.8,299,22.6,19.9,85,15.01,71,10.8,297.0,340.5,299.6
985.2,304,22.5,19.9,85,15.00,71,10.8,297.0,340.5,299.6
984.5,310,22.5,19.8,85,14.97,70,10.8,297.0,340.4,299.6
983.9,315,22.4,19.8,85,14.95,70,10.9,297.0,340.3,299.6
983.3,321,22.4,19.8,85,14.95,70,10.9,296.9,340.3,299.6
982.7,326,22.3,19.8,86,14.97,70,10.9,296.9,340.4,299.6
982.1,331,22.3,19.8,86,14.99,69,11.0,296.9,340.4,299.6
981.5,337,22.2,19.8,86,14.97,69,11.0,297.0,340.4,299.6
980.9,342,22.2,19.8,86,14.95,69,11.0,297.0,340.3,299.6
980.4,347,22.1,19.7,86,14.91,69,11.1,296.9,340.2,299.6
979.8,352,22.1,19.6,86,14.83,69,11.1,296.9,340.0,299.6
979.2,357,22.0,19.5,86,14.73,69,11.2,297.0,339.7,299.6
978.7,362,22.0,19.4,85,14.65,69,11.2,297.0,339.5,299.6
978.1,367,22.0,19.4,86,14.69,69,11.3,297.0,339.6,299.6
977.6,372,21.9,19.6,87,14.82,70,11.4,297.0,340.0,299.6
977.1,377,21.8,19.7,87,14.92,70,11.4,296.9,340.2,299.6
976.5,381,21.8,19.7,88,14.91,70,11.5,297.0,340.2,299.6
975.9,387,21.7,19.6,88,14.89,70,11.5,297.0,340.1,299.6
975.3,392,21.7,19.6,88,14.89,70,11.6,297.0,340.2,299.6
974.8,397,21.6,19.6,88,14.91,71,11.7,296.9,340.2,299.6
974.2,402,21.6,19.6,88,14.89,71,11.7,296.9,340.1,299.6
973.6,408,21.5,19.5,88,14.86,71,11.8,296.9,340.0,299.6
973.0,413,21.5,19.5,89,14.84,72,11.8,296.9,340.0,299.6
972.4,418,21.4,19.5,89,14.86,72,11.9,296.9,340.0,299.6
971.9,423,21.4,19.6,89,14.90,72,11.9,296.9,340.2,299.6
971.4,427,21.3,19.6,90,14.94,72,11.9,296.9,340.3,299.6
970.9,432,21.3,19.5,90,14.90,73,12.0,296.9,340.1,299.6
970.4,436,21.2,19.5,90,14.84,73,12.0,296.9,340.0,299.6
969.9,440,21.2,19.4,89,14.78,73,12.0,296.9,339.8,299.6
969.5,444,21.2,19.4,89,14.75,74,12.0,296.9,339.7,299.6
969.0,449,21.2,19.3,89,14.70,74,12.0,297.0,339.6,299.6
968.5,453,21.1,19.2,89,14.61,74,12.0,297.0,339.4,299.6
968.0,457,21.1,19.1,88,14.52,74,12.0,297.0,339.2,299.6
967.6,461,21.1,19.0,88,14.47,74,11.9,297.0,339.0,299.6
967.1,466,21.1,19.0,88,14.43,74,11.9,297.0,338.9,299.6
966.6,470,21.0,18.9,88,14.40,75,11.8,297.1,338.9,299.6
966.0,475,21.0,19.0,88,14.42,75,11.8,297.1,338.9,299.6
965.5,480,20.9,19.0,89,14.47,75,11.7,297.1,339.1,299.6
965.0,485,20.9,19.1,89,14.55,75,11.7,297.0,339.3,299.6
964.4,490,20.8,19.1,90,14.59,75,11.6,297.0,339.4,299.6
963.9,495,20.8,19.0,90,14.52,75,11.5,297.0,339.2,299.6
963.3,500,20.7,19.0,90,14.46,74,11.5,297.0,339.0,299.6
962.8,505,20.7,19.0,90,14.49,74,11.4,297.0,339.1,299.6
962.2,509,20.6,19.1,91,14.58,74,11.3,297.0,339.3,299.6
961.7,514,20.6,19.1,91,14.60,74,11.3,297.0,339.4,299.6
961.2,519,20.6,19.0,91,14.50,74,11.2,297.0,339.1,299.6
960.7,524,20.5,18.9,90,14.42,74,11.2,297.1,338.9,299.6
960.1,529,20.5,18.8,90,14.38,74,11.1,297.1,338.8,299.6
959.6,534,20.4,18.8,90,14.35,74,11.1,297.1,338.7,299.6
959.0,539,20.4,18.7,90,14.31,73,11.0,297.1,338.6,299.6
958.4,544,20.4,18.7,90,14.28,73,11.0,297.1,338.6,299.6
957.8,550,20.3,18.7,90,14.29,73,11.0,297.1,338.6,299.6
957.1,556,20.3,18.7,91,14.32,73,10.9,297.1,338.7,299.7
956.4,562,20.2,18.7,91,14.36,73,10.9,297.1,338.8,299.7
955.7,568,20.1,18.7,92,14.36,73,10.9,297.1,338.8,299.6
955.1,574,20.1,18.6,92,14.30,73,10.9,297.1,338.6,299.6
954.4,581,20.0,18.5,91,14.22,73,10.9,297.1,338.4,299.6
953.7,586,19.9,18.5,91,14.16,73,10.9,297.1,338.2,299.6
953.1,592,19.9,18.4,91,14.11,73,10.8,297.1,338.0,299.6
952.5,598,19.8,18.4,91,14.09,73,10.8,297.1,338.0,299.6
951.9,603,19.8,18.4,91,14.09,73,10.8,297.1,338.0,299.6
951.4,607,19.8,18.3,91,14.09,73,10.8,297.1,338.0,299.6
950.9,612,19.7,18.3,92,14.08,73,10.8,297.1,338.0,299.6
950.4,617,19.7,18.3,92,14.08,73,10.8,297.1,338.0,299.6
949.9,621,19.7,18.4,92,14.12,73,10.8,297.1,338.1,299.7
949.4,626,19.6,18.4,92,14.14,73,10.8,297.1,338.2,299.7
948.9,630,19.6,18.4,93,14.14,74,10.8,297.1,338.2,299.7
948.4,635,19.6,18.3,93,14.11,74,10.8,297.2,338.1,299.7
947.9,639,19.5,18.3,92,14.07,74,10.7,297.2,338.0,299.7
947.4,644,19.5,18.2,93,14.05,74,10.7,297.2,338.0,299.7
946.9,649,19.4,18.2,93,14.04,74,10.7,297.2,338.0,299.7
946.4,653,19.4,18.2,93,14.03,75,10.7,297.2,337.9,299.7
945.8,658,19.3,18.2,93,14.02,75,10.7,297.2,337.9,299.7
945.3,663,19.3,18.2,93,14.01,75,10.7,297.2,337.9,299.7
944.7,668,19.3,18.1,93,14.00,75,10.6,297.2,337.9,299.7
944.2,673,19.2,18.1,93,13.97,76,10.6,297.2,337.8,299.7
943.6,679,19.2,18.1,93,13.95,76,10.6,297.2,337.8,299.7
943.0,684,19.1,18.0,93,13.94,76,10.6,297.2,337.7,299.7
942.3,690,19.1,18.1,94,13.97,76,10.6,297.2,337.8,299.7
941.6,696,19.0,18.1,94,14.00,77,10.6,297.2,337.9,299.7
940.9,703,18.9,18.1,95,13.99,77,10.6,297.2,337.9,299.7
940.2,710,18.9,18.0,94,13.92,77,10.6,297.2,337.7,299.7
939.5,716,18.8,17.8,94,13.81,78,10.6,297.2,337.4,299.7
938.8,723,18.8,17.7,93,13.70,78,10.6,297.3,337.1,299.7
938.1,729,18.8,17.6,93,13.64,78,10.6,297.3,336.9,299.7
937.4,735,18.7,17.6,93,13.63,79,10.6,297.3,336.9,299.7
936.8,741,18.7,17.6,93,13.62,79,10.7,297.3,336.9,299.7
936.1,747,18.6,17.5,93,13.59,79,10.7,297.3,336.9,299.8
935.6,752,18.6,17.5,93,13.56,80,10.7,297.3,336.7,299.7
935.0,758,18.5,17.4,93,13.50,80,10.7,297.3,336.6,299.8
934.4,763,18.5,17.3,92,13.39,80,10.8,297.4,336.3,299.8
933.9,768,18.5,17.1,92,13.26,80,10.8,297.4,336.0,299.8
933.3,773,18.5,17.0,91,13.18,81,10.8,297.5,335.8,299.8
932.8,778,18.5,16.8,90,13.02,81,10.8,297.5,335.4,299.8
932.3,782,18.5,16.7,89,12.92,81,10.9,297.5,335.2,299.8
931.8,787,18.5,16.6,89,12.89,81,10.9,297.6,335.1,299.9
931.3,792,18.4,16.6,89,12.85,81,10.9,297.6,335.0,299.9
930.7,797,18.4,16.5,89,12.77,81,11.0,297.6,334.8,299.9
930.2,801,18.4,16.3,88,12.64,81,11.0,297.6,334.5,299.9
929.7,806,18.4,16.2,87,12.52,81,11.0,297.7,334.2,299.9
929.2,811,18.4,16.0,86,12.44,81,11.0,297.7,334.0,299.9
928.7,816,18.4,15.9,86,12.35,81,11.0,297.8,333.8,300.0
928.2,821,18.4,15.8,85,12.25,81,11.1,297.8,333.6,300.0
927.6,826,18.4,15.7,84,12.19,81,11.1,297.9,333.4,300.0
927.0,831,18.4,15.6,84,12.15,81,11.1,297.9,333.4,300.1
926.5,836,18.4,15.6,84,12.10,81,11.1,297.9,333.3,300.1
925.9,842,18.3,15.5,83,12.02,81,11.1,298.0,333.1,300.1
925.3,847,18.3,15.3,83,11.92,81,11.1,298.0,332.8,300.1
925.0,850,18.3,15.3,82,11.87,81,11.1,298.0,332.7,300.1
924.7,853,18.3,15.2,82,11.83,81,11.1,298.0,332.6,300.2
924.1,858,18.3,15.2,82,11.82,81,11.1,298.1,332.6,300.2
923.5,864,18.2,15.2,83,11.85,81,11.1,298.1,332.7,300.2
923.0,869,18.2,15.2,83,11.88,81,11.1,298.1,332.8,300.2
922.4,874,18.1,15.3,83,11.91,81,11.1,298.1,332.9,300.2
921.8,879,18.1,15.3,84,11.93,81,11.1,298.1,332.9,300.2
921.3,885,18.0,15.3,84,11.92,81,11.1,298.0,332.9,300.2
920.7,890,18.0,15.2,84,11.84,81,11.1,298.1,332.7,300.2
920.2,895,18.0,15.0,83,11.77,81,11.1,298.1,332.5,300.2
919.7,899,17.9,14.9,83,11.70,81,11.1,298.1,332.3,300.2
919.2,904,17.9,14.8,82,11.62,81,11.1,298.2,332.2,300.2
918.7,909,17.9,14.8,82,11.59,82,11.1,298.2,332.1,300.3
918.2,913,17.9,14.8,82,11.63,82,11.0,298.2,332.3,300.3
917.7,918,17.8,14.9,83,11.72,82,11.0,298.2,332.5,300.3
917.2,923,17.8,15.1,84,11.82,82,11.0,298.2,332.8,300.3
916.7,928,17.7,15.1,84,11.83,82,11.0,298.2,332.8,300.3
916.2,932,17.7,15.0,84,11.77,83,11.0,298.2,332.6,300.3
915.6,937,17.6,14.9,84,11.69,83,11.0,298.2,332.4,300.3
915.1,942,17.6,14.8,84,11.64,83,11.0,298.2,332.2,300.3
914.6,947,17.5,14.8,84,11.63,83,11.0,298.2,332.2,300.3
914.0,952,17.5,14.8,84,11.65,84,11.0,298.2,332.3,300.3
913.5,957,17.5,14.8,84,11.66,84,11.1,298.2,332.4,300.3
913.0,962,17.4,14.8,84,11.67,84,11.1,298.2,332.4,300.3
912.4,968,17.4,14.9,85,11.73,84,11.1,298.2,332.6,300.3
911.8,973,17.3,15.0,86,11.85,85,11.1,298.2,332.9,300.3
911.3,978,17.2,15.1,87,11.91,85,11.1,298.2,333.0,300.3
910.7,984,17.1,15.0,87,11.87,85,11.1,298.2,332.9,300.3
910.1,989,17.1,14.9,87,11.77,85,11.1,298.2,332.6,300.3
909.6,994,17.1,14.7,86,11.62,86,11.1,298.2,332.2,300.3
909.0,999,17.1,14.5,84,11.46,86,11.1,298.3,331.8,300.3
908.5,1005,17.1,14.4,84,11.42,86,11.1,298.3,331.8,300.4
907.9,1010,17.1,14.5,85,11.50,86,11.1,298.3,332.0,300.4
907.4,1015,17.0,14.7,86,11.63,86,11.1,298.3,332.4,300.4
906.8,1020,16.9,14.8,87,11.72,86,11.1,298.3,332.6,300.4
906.3,1025,16.8,14.8,88,11.76,86,11.1,298.2,332.7,300.4
905.7,1030,16.8,14.8,88,11.77,86,11.1,298.2,332.7,300.3
905.2,1036,16.7,14.8,88,11.75,86,11.0,298.2,332.6,300.3
904.6,1041,16.7,14.7,88,11.67,86,11.0,298.2,332.4,300.3
904.1,1046,16.7,14.4,87,11.51,86,11.0,298.3,332.0,300.3
903.5,1051,16.7,14.2,85,11.31,86,10.9,298.4,331.5,300.4
903.0,1057,16.7,14.0,84,11.19,86,10.9,298.5,331.2,300.5
902.4,1062,16.7,13.9,84,11.16,85,10.9,298.5,331.2,300.5
901.8,1067,16.7,14.0,84,11.19,85,10.8,298.5,331.3,300.5
901.3,1073,16.6,14.0,84,11.21,85,10.8,298.5,331.4,300.5
900.7,1078,16.6,14.0,85,11.20,85,10.7,298.5,331.3,300.5
900.1,1083,16.5,13.9,85,11.19,85,10.7,298.5,331.3,300.5
899.6,1088,16.5,13.9,85,11.18,84,10.6,298.5,331.3,300.5
899.1,1093,16.4,13.9,85,11.17,84,10.6,298.5,331.2,300.5
898.5,1099,16.4,13.9,85,11.16,84,10.6,298.5,331.2,300.5
898.0,1104,16.3,13.9,85,11.17,84,10.5,298.5,331.2,300.5
897.5,1108,16.3,13.9,86,11.17,83,10.5,298.5,331.2,300.5
897.0,1113,16.2,13.8,86,11.13,83,10.5,298.5,331.1,300.5
896.4,1118,16.2,13.8,85,11.10,83,10.5,298.5,331.1,300.5
895.9,1123,16.2,13.7,85,11.05,83,10.5,298.6,331.0,300.6
895.4,1128,16.2,13.6,84,10.98,83,10.4,298.6,330.9,300.6
894.9,1133,16.2,13.5,84,10.95,82,10.4,298.7,330.8,300.7
894.4,1138,16.2,13.5,84,10.96,82,10.4,298.7,330.9,300.7
893.9,1143,16.2,13.5,84,10.96,82,10.5,298.8,331.0,300.7
893.4,1148,16.2,13.4,84,10.91,82,10.5,298.8,330.8,300.7
892.8,1153,16.2,13.3,83,10.82,82,10.5,298.8,330.6,300.8
892.3,1158,16.2,13.2,82,10.74,82,10.5,298.9,330.5,300.8
891.8,1163,16.2,13.1,82,10.68,82,10.5,298.9,330.3,300.9
891.3,1168,16.2,13.0,82,10.64,82,10.5,299.0,330.3,300.9
890.8,1173,16.2,13.0,81,10.61,82,10.5,299.0,330.3,300.9
890.2,1178,16.2,13.0,81,10.60,83,10.5,299.1,330.3,301.0
889.7,1182,16.1,12.9,81,10.59,83,10.5,299.1,330.3,301.0
889.2,1187,16.1,12.9,81,10.54,83,10.5,299.1,330.2,301.0
888.7,1192,16.1,12.7,80,10.47,83,10.5,299.2,330.0,301.1
888.2,1197,16.1,12.7,80,10.42,83,10.5,299.2,329.9,301.1
887.7,1202,16.1,12.7,80,10.42,83,10.5,299.2,329.9,301.1
887.2,1207,16.0,12.6,80,10.42,83,10.5,299.2,329.9,301.1
886.6,1212,16.0,12.7,81,10.43,83,10.5,299.2,330.0,301.1
886.1,1217,15.9,12.7,81,10.50,83,10.5,299.2,330.1,301.1
885.5,1223,15.8,12.8,83,10.58,83,10.4,299.2,330.3,301.1
884.9,1229,15.7,12.9,83,10.62,83,10.4,299.1,330.4,301.1
884.3,1234,15.7,12.8,83,10.59,83,10.4,299.2,330.4,301.1
883.7,1240,15.7,12.8,83,10.58,83,10.3,299.2,330.4,301.2
883.2,1245,15.7,12.8,83,10.57,83,10.3,299.3,330.4,301.2
882.6,1251,15.7,12.8,83,10.55,83,10.3,299.4,330.4,301.3
882.1,1256,15.7,12.8,83,10.56,83,10.3,299.4,330.5,301.3
881.6,1261,15.6,12.8,83,10.58,83,10.2,299.4,330.5,301.3
881.1,1265,15.6,12.8,83,10.58,83,10.2,299.4,330.5,301.3
880.6,1270,15.6,12.7,83,10.56,83,10.2,299.4,330.5,301.3
880.1,1275,15.5,12.7,83,10.56,83,10.2,299.4,330.5,301.3
879.7,1279,15.5,12.7,84,10.57,83,10.2,299.4,330.5,301.3
879.2,1284,15.4,12.7,84,10.57,83,10.2,299.4,330.6,301.3
878.7,1288,15.4,12.7,84,10.58,82,10.2,299.4,330.6,301.3
878.3,1293,15.3,12.7,84,10.57,82,10.2,299.4,330.5,301.3
877.8,1297,15.3,12.7,84,10.57,82,10.2,299.4,330.5,301.3
877.3,1302,15.3,12.7,85,10.55,82,10.2,299.4,330.5,301.3
876.8,1307,15.2,12.6,85,10.54,82,10.3,299.4,330.5,301.3
876.4,1311,15.2,12.7,85,10.56,82,10.3,299.4,330.5,301.3
875.9,1316,15.1,12.7,85,10.59,83,10.4,299.4,330.6,301.3
875.4,1320,15.1,12.7,86,10.60,83,10.5,299.4,330.7,301.3
875.0,1325,15.1,12.7,86,10.60,83,10.6,299.4,330.7,301.3
874.5,1330,15.0,12.6,86,10.57,83,10.6,299.4,330.6,301.3
874.0,1334,15.0,12.6,85,10.53,83,10.7,299.5,330.5,301.4
873.5,1339,15.0,12.5,85,10.49,83,10.8,299.5,330.4,301.4
873.0,1344,15.0,12.5,85,10.47,83,10.9,299.5,330.4,301.4
872.5,1349,14.9,12.4,85,10.46,84,11.0,299.5,330.4,301.4
871.9,1354,14.9,12.5,85,10.48,84,11.1,299.5,330.4,301.4
871.4,1360,14.8,12.5,86,10.48,84,11.2,299.5,330.5,301.4
870.8,1365,14.8,12.4,86,10.46,84,11.3,299.6,330.4,301.4
870.3,1370,14.8,12.3,85,10.39,84,11.4,299.6,330.3,301.5
869.8,1375,14.8,12.2,85,10.34,85,11.5,299.6,330.1,301.5
869.2,1380,14.8,12.2,85,10.32,85,11.6,299.7,330.1,301.5
868.8,1385,14.7,12.2,85,10.34,85,11.6,299.7,330.2,301.5
868.3,1390,14.7,12.3,85,10.38,85,11.7,299.7,330.3,301.6
867.9,1394,14.7,12.3,86,10.40,85,11.7,299.7,330.4,301.6
867.4,1398,14.6,12.3,86,10.40,85,11.8,299.7,330.4,301.6
867.1,1402,14.6,12.2,85,10.36,85,11.8,299.7,330.3,301.6
866.7,1406,14.6,12.1,85,10.31,85,11.9,299.8,330.2,301.6
866.3,1409,14.6,12.1,85,10.30,85,11.9,299.8,330.2,301.6
865.9,1413,14.6,12.1,85,10.29,85,11.9,299.8,330.2,301.7
865.5,1417,14.6,12.1,85,10.31,85,11.9,299.8,330.3,301.7
865.1,1421,14.5,12.1,85,10.30,84,11.9,299.8,330.3,301.7
864.7,1425,14.5,12.1,85,10.30,84,11.9,299.8,330.3,301.7
864.3,1429,14.5,12.1,86,10.31,84,11.9,299.9,330.3,301.7
863.9,1433,14.4,12.1,86,10.33,84,11.9,299.9,330.4,301.7
863.5,1437,14.4,12.1,86,10.32,83,11.9,299.9,330.4,301.7
863.0,1441,14.4,12.0,86,10.27,83,11.9,299.9,330.2,301.7
862.6,1446,14.4,11.9,85,10.20,83,11.8,299.9,330.1,301.8
862.1,1451,14.3,11.8,85,10.15,83,11.8,299.9,329.9,301.8
861.6,1456,14.3,11.8,85,10.13,82,11.8,299.9,329.9,301.8
861.0,1461,14.2,11.7,85,10.11,82,11.8,299.9,329.8,301.8
860.5,1466,14.2,11.6,84,10.03,82,11.8,300.0,329.6,301.8
859.9,1472,14.2,11.4,84,9.92,81,11.8,300.0,329.3,301.8
859.4,1477,14.2,11.3,83,9.84,81,11.8,300.0,329.2,301.8
858.8,1483,14.2,11.2,83,9.79,81,11.8,300.1,329.1,301.8
858.2,1489,14.1,11.2,82,9.75,80,11.8,300.1,329.0,301.9
857.6,1494,14.1,11.1,82,9.71,80,11.8,300.1,328.9,301.9
857.0,1500,14.0,11.0,82,9.67,80,11.8,300.1,328.8,301.9
856.5,1506,14.0,10.9,82,9.63,80,11.8,300.1,328.7,301.9
855.9,1511,14.0,10.9,82,9.62,80,11.8,300.2,328.6,301.9
855.4,1516,13.9,10.9,82,9.65,79,11.8,300.2,328.8,301.9
854.9,1521,13.9,11.0,83,9.72,79,11.8,300.2,329.0,301.9
854.4,1526,13.9,11.1,84,9.79,79,11.8,300.2,329.2,302.0
853.9,1531,13.8,11.3,85,9.90,79,11.8,300.2,329.5,302.0
853.4,1536,13.8,11.4,85,9.95,79,11.8,300.2,329.7,302.0
853.0,1540,13.8,11.3,85,9.89,79,11.8,300.3,329.6,302.1
852.5,1545,13.8,11.0,83,9.72,79,11.8,300.3,329.1,302.1
852.0,1550,13.8,10.7,82,9.55,79,11.8,300.4,328.7,302.1
851.5,1555,13.8,10.6,81,9.45,79,11.8,300.4,328.5,302.1
851.1,1559,13.8,10.6,81,9.46,80,11.7,300.5,328.5,302.2
850.6,1564,13.8,10.7,82,9.55,80,11.7,300.5,328.8,302.2
850.1,1569,13.7,10.8,83,9.62,80,11.7,300.5,329.0,302.2
850.0,1570,13.7,10.8,83,9.62,80,11.6,300.5,329.0,302.2
849.6,1574,13.6,10.8,83,9.61,80,11.6,300.5,329.0,302.2
849.1,1579,13.6,10.6,82,9.53,80,11.6,300.5,328.7,302.2
848.6,1584,13.6,10.6,82,9.47,80,11.6,300.5,328.6,302.2
848.1,1589,13.5,10.5,82,9.45,81,11.5,300.5,328.6,302.2
847.5,1594,13.5,10.5,82,9.47,81,11.5,300.5,328.6,302.2
847.0,1599,13.5,10.7,83,9.56,81,11.5,300.5,328.9,302.3
846.5,1605,13.4,11.0,85,9.79,81,11.4,300.5,329.6,302.3
846.0,1610,13.4,11.4,88,10.04,81,11.4,300.6,330.4,302.4
845.5,1615,13.4,11.4,88,10.08,82,11.3,300.6,330.5,302.5
844.9,1620,13.5,11.2,86,9.93,82,11.3,300.7,330.2,302.5
844.4,1625,13.5,11.0,85,9.81,82,11.3,300.8,329.9,302.6
843.9,1630,13.5,10.9,85,9.78,82,11.2,300.8,329.9,302.6
843.5,1635,13.4,10.9,85,9.75,82,11.2,300.9,329.8,302.6
843.0,1640,13.4,10.7,84,9.65,83,11.2,300.9,329.6,302.7
842.6,1644,13.4,10.5,82,9.50,83,11.1,301.0,329.2,302.7
842.1,1649,13.4,10.3,81,9.37,83,11.1,301.0,328.9,302.7
841.7,1653,13.4,10.3,81,9.37,83,11.1,301.0,328.9,302.7
841.2,1658,13.4,10.4,82,9.47,83,11.1,301.1,329.3,302.8
840.8,1662,13.4,10.6,84,9.61,83,11.1,301.1,329.7,302.8
840.3,1667,13.3,10.8,85,9.74,83,11.0,301.1,330.0,302.8
839.8,1671,13.3,11.0,86,9.85,83,11.0,301.1,330.4,302.9
839.4,1676,13.2,11.0,87,9.90,84,11.0,301.1,330.5,302.9
838.9,1681,13.2,11.0,87,9.88,84,11.0,301.1,330.4,302.8
838.5,1685,13.1,10.9,86,9.82,84,11.0,301.0,330.2,302.8
838.0,1689,13.1,10.7,86,9.72,84,11.1,301.1,330.0,302.8
837.6,1694,13.1,10.5,85,9.59,84,11.1,301.1,329.6,302.8
837.2,1697,13.1,10.3,83,9.46,84,11.1,301.1,329.3,302.8
836.9,1701,13.1,10.3,83,9.45,84,11.1,301.2,329.3,302.9
836.5,1705,13.0,10.4,84,9.53,84,11.1,301.2,329.5,302.9
836.2,1708,13.0,10.6,85,9.64,84,11.2,301.2,329.9,302.9
835.8,1712,13.0,10.7,86,9.74,84,11.2,301.2,330.2,302.9
835.5,1716,12.9,10.8,87,9.81,84,11.2,301.2,330.3,302.9
835.1,1719,12.9,10.9,88,9.87,84,11.3,301.2,330.5,303.0
834.7,1723,12.9,11.0,88,9.92,83,11.3,301.2,330.7,303.0
834.2,1728,12.8,11.1,89,10.00,83,11.3,301.2,330.9,303.0
833.8,1733,12.8,11.2,90,10.05,83,11.4,301.2,331.0,303.0
833.3,1738,12.7,11.2,90,10.06,83,11.4,301.2,331.1,303.0
832.8,1743,12.7,11.1,90,10.02,83,11.4,301.2,331.0,303.0
832.2,1748,12.7,11.0,90,9.95,82,11.5,301.2,330.8,303.0
831.7,1754,12.6,10.8,89,9.86,82,11.5,301.2,330.5,303.0
831.2,1759,12.6,10.7,88,9.78,82,11.5,301.2,330.3,303.0
830.6,1764,12.5,10.6,88,9.72,82,11.5,301.2,330.2,303.0
830.1,1770,12.5,10.5,88,9.67,81,11.5,301.2,330.0,303.0
829.6,1775,12.5,10.5,88,9.63,81,11.6,301.3,329.9,303.0
829.0,1780,12.4,10.4,88,9.63,81,11.6,301.3,330.0,303.0
828.5,1786,12.4,10.5,88,9.67,81,11.6,301.3,330.1,303.1
828.0,1791,12.4,10.5,89,9.71,80,11.5,301.3,330.2,303.1
827.5,1796,12.3,10.5,89,9.71,80,11.5,301.3,330.3,303.1
827.0,1801,12.3,10.5,89,9.71,80,11.5,301.4,330.3,303.1
826.6,1806,12.2,10.5,89,9.70,79,11.5,301.3,330.2,303.1
826.1,1810,12.2,10.5,89,9.69,79,11.5,301.4,330.2,303.1
825.7,1814,12.2,10.5,90,9.71,79,11.4,301.4,330.3,303.1
825.3,1818,12.1,10.5,90,9.74,79,11.4,301.4,330.4,303.1
824.9,1823,12.1,10.5,90,9.73,78,11.4,301.4,330.3,303.1
824.5,1827,12.1,10.5,90,9.69,78,11.4,301.4,330.2,303.1
824.1,1831,12.0,10.3,89,9.61,78,11.4,301.4,330.0,303.1
