PRES,HGHT,TEMP,DWPT,RELH,MIXR,DRCT,SPED,THTA,THTE,THTV
1012.8,31,22.1,20.4,90,15.06,14,4.4,294.2,337.3,296.8
1012.3,34,22.5,20.7,90,15.40,32,3.8,294.6,338.8,297.3
1011.9,38,22.1,20.5,91,15.19,38,3.9,294.2,337.7,296.9
1011.5,42,21.8,20.4,92,15.08,39,4.1,294.0,337.1,296.6
1010.9,47,21.7,20.4,93,15.09,39,4.4,293.9,337.1,296.5
1010.1,54,21.6,20.4,93,15.10,38,4.7,293.9,337.1,296.6
1009.5,59,21.6,20.3,93,15.02,37,4.9,293.9,336.9,296.5
1009.0,63,21.5,20.2,92,14.89,37,5.2,293.9,336.5,296.5
1008.4,68,21.5,20.0,91,14.75,37,5.4,293.9,336.1,296.5
1007.9,73,21.4,19.9,91,14.63,37,5.6,293.9,335.8,296.5
1007.4,77,21.4,19.8,91,14.58,37,5.8,293.9,335.6,296.5
1006.9,82,21.3,19.8,91,14.57,37,5.9,293.9,335.6,296.5
1006.4,86,21.3,19.8,91,14.58,36,6.1,293.9,335.7,296.5
1005.9,90,21.3,19.8,91,14.56,36,6.2,293.9,335.6,296.5
1005.4,94,21.2,19.7,91,14.53,36,6.3,293.9,335.5,296.5
1005.0,98,21.2,19.7,91,14.52,36,6.4,293.9,335.5,296.5
1004.5,102,21.2,19.7,91,14.53,36,6.5,294.0,335.6,296.5
1004.1,105,21.2,19.7,91,14.52,36,6.6,294.0,335.5,296.5
1003.7,109,21.1,19.7,91,14.52,36,6.6,294.0,335.6,296.5
1003.3,113,21.1,19.7,92,14.52,36,6.7,294.0,335.6,296.5
1002.9,116,21.1,19.7,92,14.53,35,6.7,294.0,335.6,296.6
1002.5,120,21.1,19.7,92,14.56,35,6.7,294.0,335.7,296.6
1002.1,123,21.1,19.7,92,14.59,35,6.7,294.1,335.9,296.6
1001.6,127,21.1,19.8,92,14.63,35,6.7,294.1,336.0,296.7
1001.2,131,21.0,19.8,93,14.66,35,6.7,294.1,336.1,296.7
1000.8,135,21.0,19.8,93,14.66,35,6.7,294.1,336.1,296.7
1000.3,138,21.0,19.8,93,14.68,35,6.8,294.1,336.2,296.7
1000.0,141,21.0,19.8,93,14.68,35,6.8,294.1,336.2,296.7
999.9,142,21.0,19.8,93,14.68,34,6.8,294.1,336.2,296.7
999.4,146,20.9,19.8,93,14.68,34,6.8,294.1,336.2,296.7
999.0,150,20.9,19.8,93,14.68,34,6.8,294.2,336.3,296.8
998.6,154,21.0,19.8,93,14.69,34,6.8,294.2,336.3,296.8
998.1,157,21.0,19.8,93,14.69,34,6.8,294.3,336.4,296.9
997.7,161,20.9,19.8,93,14.68,33,6.9,294.3,336.4,296.9
997.3,165,20.9,19.7,93,14.66,33,6.9,294.3,336.3,296.9
996.8,169,20.9,19.7,93,14.64,33,6.9,294.3,336.3,296.9
996.4,173,20.9,19.7,93,14.62,33,6.9,294.3,336.2,296.9
995.9,177,20.8,19.7,93,14.63,32,7.0,294.3,336.3,296.9
995.4,181,20.8,19.7,93,14.63,32,7.0,294.3,336.3,296.9
994.9,185,20.7,19.7,94,14.64,32,7.0,294.3,336.3,296.9
994.4,190,20.7,19.7,94,14.67,31,7.0,294.3,336.3,296.9
993.9,194,20.6,19.7,95,14.68,31,7.0,294.3,336.4,296.9
993.5,198,20.6,19.7,95,14.66,31,7.0,294.3,336.3,296.8
993.0,202,20.5,19.6,95,14.64,30,7.0,294.3,336.2,296.8
992.5,206,20.5,19.6,95,14.65,30,7.0,294.3,336.3,296.9
992.0,211,20.5,19.6,95,14.66,29,7.0,294.3,336.3,296.9
991.6,215,20.4,19.6,95,14.64,29,6.9,294.3,336.3,296.9
991.1,219,20.4,19.6,95,14.62,29,6.9,294.3,336.2,296.9
990.7,223,20.4,19.6,95,14.60,28,6.8,294.3,336.2,296.9
990.2,226,20.3,19.5,95,14.59,28,6.8,294.3,336.2,296.9
989.8,230,20.3,19.5,95,14.59,27,6.7,294.3,336.2,296.9
989.4,233,20.3,19.5,95,14.59,27,6.6,294.4,336.2,296.9
989.0,237,20.3,19.5,95,14.59,26,6.5,294.4,336.2,297.0
988.6,241,20.3,19.5,95,14.58,26,6.4,294.4,336.2,297.0
988.2,244,20.3,19.5,95,14.56,25,6.3,294.4,336.2,297.0
987.8,248,20.2,19.4,95,14.53,25,6.2,294.4,336.1,297.0
987.4,251,20.2,19.4,95,14.51,24,6.1,294.4,336.0,297.0
987.0,255,20.2,19.4,95,14.49,23,6.0,294.4,336.0,297.0
986.6,258,20.2,19.3,95,14.47,23,5.9,294.4,336.0,297.0
986.2,262,20.1,19.3,95,14.47,22,5.8,294.4,335.9,297.0
985.8,265,20.1,19.3,95,14.45,22,5.7,294.5,335.9,297.0
985.4,269,20.1,19.3,95,14.43,22,5.6,294.5,335.9,297.0
985.0,272,20.1,19.3,95,14.42,21,5.6,294.5,335.9,297.0
984.7,275,20.0,19.3,95,14.41,21,5.5,294.5,335.9,297.0
984.3,278,20.0,19.2,95,14.40,21,5.4,294.5,335.8,297.0
983.9,282,20.0,19.2,95,14.39,20,5.4,294.5,335.8,297.0
983.6,285,20.0,19.2,95,14.38,20,5.4,294.5,335.8,297.0
983.2,288,19.9,19.2,96,14.37,20,5.4,294.5,335.8,297.0
982.9,291,19.9,19.2,96,14.37,20,5.4,294.5,335.7,297.0
982.5,294,19.9,19.2,96,14.37,21,5.4,294.5,335.7,297.0
982.2,297,19.8,19.2,96,14.37,21,5.5,294.5,335.7,297.0
981.8,300,19.8,19.2,96,14.38,21,5.5,294.5,335.8,297.0
981.5,303,19.8,19.1,96,14.36,22,5.6,294.5,335.7,297.0
981.1,306,19.8,19.1,96,14.36,22,5.6,294.5,335.7,297.0
980.7,310,19.7,19.1,96,14.37,23,5.7,294.5,335.8,297.1
980.4,313,19.7,19.2,97,14.39,24,5.8,294.5,335.8,297.0
980.0,316,19.7,19.2,97,14.40,25,5.9,294.5,335.8,297.0
979.6,319,19.6,19.2,97,14.40,25,6.0,294.5,335.8,297.1
979.3,323,19.6,19.1,97,14.39,26,6.1,294.5,335.8,297.0
978.9,326,19.6,19.1,97,14.39,27,6.2,294.5,335.8,297.1
978.5,330,19.6,19.1,97,14.39,28,6.3,294.5,335.9,297.1
978.1,333,19.6,19.1,97,14.39,29,6.4,294.6,335.9,297.1
977.7,337,19.5,19.1,97,14.40,30,6.6,294.6,335.9,297.1
977.3,340,19.5,19.1,98,14.43,31,6.7,294.6,336.0,297.1
976.8,344,19.5,19.2,98,14.47,32,6.8,294.6,336.1,297.1
976.4,348,19.4,19.2,99,14.50,33,6.9,294.6,336.2,297.1
976.0,352,19.4,19.2,99,14.48,34,7.1,294.6,336.2,297.1
975.5,356,19.4,19.1,98,14.41,35,7.2,294.6,336.0,297.2
975.1,360,19.4,19.0,98,14.32,36,7.3,294.6,335.8,297.2
974.6,364,19.4,19.0,98,14.30,37,7.4,294.7,335.7,297.2
974.2,368,19.3,19.0,98,14.34,37,7.5,294.7,335.9,297.2
973.7,372,19.3,19.0,98,14.37,38,7.6,294.7,336.0,297.2
973.3,376,19.3,19.0,98,14.33,39,7.7,294.7,335.8,297.2
972.8,380,19.3,18.9,98,14.28,40,7.8,294.7,335.7,297.2
972.3,384,19.2,18.9,98,14.26,40,7.8,294.7,335.7,297.3
971.8,389,19.2,18.9,98,14.24,41,7.9,294.8,335.7,297.3
971.3,393,19.2,18.8,98,14.21,42,8.0,294.8,335.6,297.3
970.8,397,19.2,18.8,98,14.18,42,8.1,294.8,335.6,297.3
970.3,402,19.1,18.7,97,14.11,43,8.1,294.8,335.4,297.3
969.8,406,19.1,18.6,97,14.02,43,8.2,294.9,335.2,297.3
969.3,411,19.1,18.5,96,13.96,44,8.2,294.9,335.1,297.4
968.8,416,19.1,18.5,96,13.97,44,8.3,294.9,335.1,297.4
968.2,421,19.1,18.6,97,14.02,45,8.3,295.0,335.3,297.4
967.7,426,19.0,18.6,97,14.09,45,8.3,294.9,335.5,297.4
967.1,431,19.0,18.7,98,14.15,45,8.4,294.9,335.6,297.4
966.5,436,18.9,18.7,99,14.18,46,8.4,294.9,335.7,297.4
965.9,441,18.8,18.7,99,14.15,46,8.4,294.9,335.6,297.4
965.3,447,18.8,18.5,98,14.05,47,8.5,294.9,335.3,297.4
964.7,452,18.8,18.4,97,13.93,47,8.5,295.0,335.1,297.4
964.1,458,18.8,18.3,97,13.85,47,8.5,295.0,334.9,297.5
963.5,463,18.9,18.3,96,13.83,48,8.6,295.1,334.9,297.6
962.9,468,18.8,18.3,96,13.83,48,8.6,295.2,335.0,297.6
962.3,474,18.8,18.3,97,13.85,48,8.6,295.2,335.0,297.6
961.6,480,18.7,18.3,97,13.88,49,8.7,295.1,335.1,297.6
961.0,485,18.6,18.3,98,13.91,49,8.7,295.1,335.1,297.6
960.4,491,18.5,18.3,98,13.91,49,8.8,295.1,335.1,297.5
959.7,497,18.5,18.2,98,13.87,50,8.8,295.1,335.0,297.6
959.1,502,18.5,18.2,98,13.84,50,8.8,295.2,335.0,297.6
958.5,508,18.5,18.1,97,13.78,51,8.9,295.2,335.0,297.7
957.9,513,18.6,18.1,97,13.75,51,8.9,295.3,334.9,297.8
957.2,519,18.6,18.0,97,13.71,51,9.0,295.4,334.9,297.8
956.6,524,18.6,18.0,96,13.69,52,9.0,295.5,334.9,297.9
956.0,530,18.6,18.0,96,13.69,52,9.1,295.5,335.0,298.0
955.4,535,18.6,18.0,96,13.71,53,9.1,295.6,335.1,298.0
954.8,540,18.6,18.0,96,13.72,53,9.2,295.6,335.2,298.0
954.2,546,18.5,18.0,97,13.75,53,9.2,295.6,335.3,298.0
953.6,551,18.5,18.1,98,13.79,54,9.3,295.6,335.4,298.0
953.0,557,18.4,18.1,98,13.84,54,9.3,295.6,335.5,298.0
952.5,562,18.3,18.1,99,13.87,55,9.3,295.5,335.5,298.0
951.9,567,18.2,18.1,99,13.87,55,9.4,295.5,335.5,298.0
951.3,573,18.2,18.1,99,13.86,55,9.4,295.5,335.5,298.0
950.7,578,18.1,18.0,99,13.82,56,9.5,295.5,335.4,298.0
950.1,584,18.1,18.0,99,13.77,56,9.5,295.6,335.3,298.0
949.5,589,18.1,17.9,99,13.73,56,9.5,295.6,335.2,298.0
948.9,594,18.0,17.9,99,13.72,56,9.6,295.6,335.2,298.0
948.4,599,18.0,17.9,100,13.72,57,9.6,295.5,335.1,298.0
947.8,604,17.9,17.9,100,13.71,57,9.6,295.5,335.1,298.0
947.3,609,17.9,17.8,100,13.70,57,9.6,295.5,335.1,298.0
946.7,614,17.8,17.8,100,13.68,57,9.6,295.6,335.0,298.0
946.2,619,17.8,17.8,100,13.65,57,9.6,295.6,334.9,298.0
945.6,624,17.8,17.8,100,13.65,58,9.6,295.6,335.0,298.0
945.1,629,17.8,17.8,100,13.68,58,9.6,295.7,335.1,298.1
944.5,634,17.8,17.8,100,13.70,58,9.6,295.7,335.3,298.2
944.0,639,17.8,17.8,100,13.70,58,9.6,295.8,335.3,298.2
943.4,644,17.8,17.8,100,13.70,58,9.6,295.8,335.4,298.2
942.8,649,17.8,17.8,100,13.69,58,9.6,295.8,335.4,298.3
942.2,655,17.7,17.7,100,13.69,58,9.6,295.9,335.4,298.3
941.7,660,17.7,17.7,100,13.67,58,9.6,295.9,335.4,298.3
941.1,665,17.7,17.7,100,13.63,58,9.6,295.9,335.3,298.4
940.5,671,17.7,17.6,99,13.58,58,9.5,296.0,335.2,298.4
939.9,676,17.7,17.6,99,13.56,59,9.5,296.0,335.2,298.4
939.3,682,17.6,17.5,99,13.55,59,9.5,296.0,335.2,298.4
938.7,687,17.6,17.5,99,13.55,59,9.5,296.1,335.2,298.5
938.1,693,17.6,17.5,99,13.52,59,9.5,296.1,335.2,298.5
937.5,698,17.5,17.4,99,13.49,59,9.4,296.1,335.1,298.5
936.9,703,17.5,17.4,99,13.46,59,9.4,296.1,335.1,298.5
936.3,709,17.5,17.4,99,13.43,59,9.4,296.2,335.1,298.6
935.8,714,17.5,17.3,99,13.42,59,9.4,296.2,335.0,298.6
935.3,718,17.5,17.3,99,13.42,59,9.4,296.2,335.1,298.6
934.7,723,17.4,17.3,99,13.41,60,9.4,296.2,335.1,298.6
934.2,728,17.4,17.3,99,13.38,60,9.3,296.3,335.0,298.7
933.7,733,17.4,17.2,99,13.34,60,9.3,296.3,334.9,298.7
933.2,737,17.4,17.2,98,13.32,60,9.3,296.4,334.9,298.7
932.8,741,17.4,17.2,98,13.32,60,9.3,296.4,335.0,298.8
932.3,746,17.4,17.2,99,13.37,60,9.3,296.4,335.1,298.8
931.8,750,17.3,17.3,100,13.43,60,9.3,296.4,335.3,298.8
931.4,754,17.3,17.3,100,13.45,60,9.3,296.4,335.4,298.8
930.9,758,17.3,17.3,100,13.44,60,9.3,296.4,335.4,298.8
930.4,763,17.3,17.3,100,13.44,60,9.3,296.5,335.4,298.8
929.9,767,17.2,17.2,100,13.43,60,9.3,296.5,335.4,298.9
929.4,772,17.2,17.2,100,13.42,60,9.3,296.5,335.4,298.9
928.9,777,17.2,17.2,100,13.40,60,9.4,296.5,335.4,298.9
928.4,782,17.2,17.1,100,13.34,60,9.4,296.6,335.2,298.9
927.9,786,17.2,17.1,99,13.31,60,9.4,296.6,335.2,299.0
927.4,791,17.1,17.0,99,13.28,60,9.4,296.6,335.1,299.0
926.8,796,17.1,17.0,99,13.25,60,9.4,296.6,335.1,299.0
926.3,801,17.1,17.0,99,13.24,60,9.4,296.7,335.1,299.0
925.8,805,17.1,16.9,99,13.22,60,9.4,296.7,335.0,299.0
925.3,810,17.0,16.9,99,13.22,60,9.4,296.7,335.0,299.1
925.0,813,17.0,16.9,99,13.22,60,9.4,296.7,335.1,299.1
924.7,816,17.0,16.9,99,13.23,60,9.4,296.7,335.1,299.1
924.1,821,17.0,16.9,99,13.23,60,9.4,296.8,335.1,299.1
923.6,826,17.0,16.9,99,13.22,60,9.4,296.8,335.2,299.1
923.0,832,16.9,16.9,100,13.22,60,9.4,296.8,335.2,299.2
922.4,838,16.9,16.9,100,13.21,60,9.4,296.8,335.2,299.2
921.8,843,16.9,16.8,100,13.21,60,9.4,296.9,335.2,299.2
921.2,849,16.9,16.8,100,13.21,60,9.4,296.9,335.2,299.2
920.6,854,16.8,16.8,100,13.18,60,9.4,296.9,335.2,299.3
920.0,859,16.8,16.8,100,13.16,60,9.4,296.9,335.1,299.3
919.5,864,16.8,16.7,100,13.13,60,9.3,297.0,335.1,299.3
918.9,869,16.8,16.7,99,13.10,61,9.3,297.0,335.1,299.3
918.4,874,16.7,16.7,99,13.10,61,9.3,297.0,335.1,299.4
917.9,879,16.7,16.7,100,13.10,61,9.3,297.0,335.1,299.4
917.4,883,16.7,16.6,100,13.09,61,9.2,297.1,335.1,299.4
916.9,888,16.7,16.6,99,13.06,61,9.2,297.1,335.0,299.4
916.4,893,16.7,16.5,99,13.02,61,9.1,297.1,335.0,299.5
915.9,897,16.6,16.5,99,13.01,61,9.1,297.2,335.0,299.5
915.4,902,16.6,16.5,99,13.02,62,9.1,297.2,335.0,299.5
914.9,907,16.6,16.5,99,13.03,62,9.0,297.2,335.1,299.5
914.4,911,16.6,16.5,100,13.04,62,9.0,297.2,335.2,299.6
913.9,917,16.6,16.5,100,13.05,62,8.9,297.3,335.2,299.6
913.3,922,16.5,16.5,100,13.06,62,8.9,297.3,335.3,299.6
912.7,927,16.5,16.5,100,13.05,63,8.8,297.3,335.3,299.6
912.1,933,16.5,16.5,100,13.03,63,8.8,297.3,335.3,299.7
911.5,939,16.5,16.4,100,13.02,63,8.8,297.4,335.2,299.7
910.9,945,16.4,16.4,100,13.00,63,8.8,297.4,335.2,299.7
910.3,950,16.4,16.4,100,12.98,63,8.7,297.4,335.2,299.7
909.7,956,16.4,16.3,100,12.93,64,8.7,297.5,335.1,299.8
909.1,962,16.4,16.3,99,12.90,64,8.7,297.5,335.1,299.8
908.5,967,16.3,16.2,99,12.88,64,8.7,297.5,335.0,299.8
907.9,973,16.3,16.2,99,12.87,64,8.7,297.6,335.1,299.9
907.3,978,16.3,16.2,99,12.86,64,8.7,297.6,335.1,299.9
906.7,984,16.3,16.2,99,12.87,65,8.7,297.6,335.1,299.9
906.1,989,16.3,16.2,100,12.89,65,8.7,297.7,335.2,300.0
905.5,995,16.2,16.2,100,12.90,65,8.7,297.7,335.3,300.0
904.9,1001,16.2,16.2,100,12.88,65,8.7,297.7,335.3,300.0
904.3,1007,16.2,16.1,99,12.83,65,8.8,297.8,335.2,300.1
903.7,1012,16.2,16.0,99,12.78,66,8.8,297.8,335.1,300.1
903.1,1018,16.2,16.0,99,12.74,66,8.8,297.8,335.0,300.1
902.6,1023,16.1,16.0,99,12.74,66,8.8,297.9,335.0,300.2
902.0,1028,16.1,16.0,99,12.78,66,8.9,297.9,335.2,300.2
901.5,1033,16.1,16.0,100,12.80,66,8.9,297.9,335.3,300.2
900.9,1038,16.1,16.0,100,12.81,67,8.9,298.0,335.4,300.3
900.4,1043,16.1,16.0,100,12.82,67,9.0,298.0,335.4,300.3
899.8,1049,16.0,16.0,100,12.83,67,9.0,298.0,335.5,300.3
899.3,1054,16.0,16.0,100,12.83,67,9.0,298.1,335.5,300.3
898.7,1059,16.0,16.0,100,12.81,67,9.0,298.1,335.5,300.4
898.2,1065,16.0,15.9,100,12.78,68,9.1,298.1,335.4,300.4
897.6,1070,15.9,15.9,100,12.76,68,9.1,298.2,335.4,300.4
897.1,1075,15.9,15.9,100,12.74,68,9.1,298.2,335.4,300.5
896.5,1080,15.9,15.8,100,12.72,68,9.1,298.2,335.4,300.5
896.0,1085,15.9,15.8,100,12.71,68,9.1,298.2,335.3,300.5
895.5,1090,15.8,15.8,100,12.70,69,9.2,298.2,335.3,300.5
895.0,1095,15.8,15.8,100,12.68,69,9.2,298.3,335.3,300.5
894.5,1100,15.8,15.7,100,12.67,69,9.2,298.3,335.3,300.6
893.9,1105,15.8,15.7,100,12.65,69,9.2,298.3,335.3,300.6
893.4,1110,15.8,15.7,100,12.64,70,9.2,298.4,335.3,300.6
892.8,1115,15.7,15.7,100,12.64,70,9.2,298.4,335.4,300.7
892.3,1120,15.7,15.7,100,12.64,70,9.2,298.4,335.4,300.7
891.8,1125,15.7,15.7,100,12.65,70,9.2,298.4,335.4,300.7
891.2,1130,15.7,15.7,100,12.66,71,9.3,298.5,335.5,300.8
890.7,1135,15.7,15.7,100,12.66,71,9.3,298.5,335.5,300.8
890.2,1140,15.6,15.6,100,12.65,71,9.3,298.5,335.5,300.8
889.7,1145,15.6,15.6,100,12.64,71,9.3,298.6,335.5,300.8
889.1,1151,15.6,15.6,100,12.62,71,9.3,298.6,335.5,300.9
888.6,1156,15.6,15.5,100,12.60,71,9.3,298.6,335.5,300.9
888.0,1161,15.5,15.5,100,12.57,72,9.3,298.6,335.4,300.9
887.5,1167,15.5,15.4,100,12.52,72,9.3,298.7,335.3,300.9
886.9,1172,15.5,15.4,99,12.48,72,9.3,298.7,335.2,300.9
886.4,1177,15.5,15.4,99,12.47,72,9.3,298.7,335.2,301.0
885.8,1182,15.4,15.4,99,12.48,72,9.2,298.8,335.3,301.0
885.3,1187,15.4,15.4,100,12.50,72,9.2,298.8,335.4,301.0
884.8,1193,15.4,15.4,100,12.51,72,9.2,298.8,335.5,301.0
884.2,1198,15.4,15.4,100,12.51,72,9.2,298.8,335.5,301.1
883.7,1203,15.3,15.3,100,12.50,72,9.2,298.9,335.5,301.1
883.2,1208,15.3,15.3,100,12.48,72,9.1,298.9,335.4,301.1
882.6,1213,15.3,15.3,100,12.47,72,9.1,298.9,335.5,301.1
882.1,1219,15.3,15.3,100,12.46,72,9.1,298.9,335.5,301.2
881.5,1224,15.2,15.2,100,12.45,72,9.0,299.0,335.5,301.2
880.9,1230,15.2,15.2,100,12.45,72,9.0,299.0,335.5,301.2
880.3,1236,15.2,15.2,100,12.43,72,9.0,299.0,335.5,301.3
879.7,1241,15.2,15.2,100,12.43,72,8.9,299.1,335.5,301.3
879.1,1247,15.2,15.2,100,12.43,72,8.9,299.1,335.6,301.4
878.6,1253,15.2,15.2,100,12.42,72,8.8,299.2,335.6,301.4
878.0,1258,15.1,15.1,100,12.42,72,8.7,299.2,335.6,301.4
877.4,1264,15.1,15.1,100,12.42,72,8.7,299.2,335.7,301.5
876.8,1269,15.1,15.1,100,12.41,71,8.6,299.3,335.7,301.5
876.3,1274,15.1,15.1,100,12.40,71,8.6,299.3,335.7,301.5
875.7,1280,15.1,15.1,100,12.38,71,8.5,299.3,335.7,301.6
875.2,1285,15.0,15.0,100,12.37,71,8.4,299.4,335.7,301.6
874.6,1291,15.0,15.0,100,12.36,71,8.3,299.4,335.7,301.6
874.0,1296,15.0,15.0,100,12.35,71,8.3,299.4,335.7,301.7
873.5,1302,15.0,14.9,100,12.33,71,8.2,299.5,335.7,301.7
872.9,1307,14.9,14.9,100,12.29,71,8.1,299.5,335.6,301.7
872.3,1313,14.9,14.8,100,12.26,71,8.0,299.5,335.5,301.7
871.8,1318,14.9,14.8,100,12.24,71,7.9,299.5,335.5,301.7
871.2,1324,14.9,14.8,99,12.22,71,7.8,299.6,335.5,301.8
870.7,1329,14.8,14.8,100,12.21,71,7.7,299.6,335.5,301.8
870.2,1334,14.8,14.7,99,12.20,71,7.6,299.6,335.5,301.8
869.6,1339,14.8,14.7,99,12.17,71,7.5,299.7,335.5,301.8
869.1,1345,14.8,14.7,99,12.16,72,7.4,299.7,335.4,301.9
868.5,1350,14.7,14.6,99,12.15,72,7.3,299.7,335.5,301.9
868.0,1356,14.7,14.6,100,12.16,72,7.2,299.7,335.5,301.9
867.4,1362,14.7,14.6,100,12.17,73,7.1,299.7,335.6,301.9
866.7,1368,14.6,14.6,100,12.17,74,6.9,299.8,335.6,302.0
866.1,1374,14.6,14.6,100,12.15,75,6.8,299.8,335.6,302.0
865.4,1380,14.6,14.6,100,12.13,75,6.7,299.8,335.5,302.0
864.8,1387,14.5,14.5,100,12.11,76,6.6,299.9,335.5,302.1
864.1,1394,14.5,14.5,100,12.08,77,6.5,299.9,335.5,302.1
863.4,1400,14.5,14.4,100,12.05,79,6.4,300.0,335.4,302.1
862.8,1406,14.5,14.4,99,12.01,80,6.3,300.0,335.4,302.1
862.2,1412,14.4,14.3,99,11.98,81,6.2,300.0,335.3,302.2
861.6,1418,14.4,14.3,99,11.97,82,6.1,300.1,335.3,302.2
861.0,1424,14.4,14.3,99,11.97,84,6.0,300.1,335.4,302.3
860.5,1429,14.4,14.3,99,11.96,85,5.9,300.1,335.4,302.3
860.0,1433,14.4,14.2,99,11.96,86,5.8,300.2,335.4,302.3
859.6,1438,14.3,14.3,99,11.97,88,5.7,300.2,335.5,302.3
859.1,1442,14.3,14.3,100,11.99,89,5.7,300.2,335.6,302.4
858.7,1447,14.3,14.3,100,12.00,90,5.6,300.2,335.6,302.4
858.2,1451,14.3,14.3,100,12.00,92,5.5,300.3,335.7,302.5
857.8,1455,14.3,14.3,100,12.01,93,5.5,300.3,335.7,302.5
857.3,1460,14.3,14.3,100,12.01,94,5.4,300.3,335.8,302.5
856.9,1464,14.3,14.2,100,11.99,95,5.4,300.4,335.7,302.5
856.4,1469,14.2,14.2,100,11.96,96,5.4,300.4,335.7,302.6
856.0,1474,14.2,14.1,99,11.92,96,5.3,300.4,335.6,302.6
855.5,1478,14.2,14.1,99,11.90,97,5.3,300.4,335.6,302.6
855.0,1483,14.2,14.0,99,11.87,97,5.2,300.5,335.5,302.6
854.6,1487,14.2,14.0,99,11.85,98,5.2,300.5,335.5,302.6
854.2,1491,14.1,14.0,99,11.82,98,5.2,300.5,335.4,302.7
853.7,1496,14.1,14.0,99,11.82,98,5.2,300.6,335.5,302.7
853.3,1500,14.1,14.0,99,11.83,98,5.1,300.6,335.5,302.7
852.8,1505,14.1,13.9,99,11.82,98,5.1,300.6,335.5,302.7
852.4,1509,14.1,13.9,99,11.76,98,5.1,300.6,335.4,302.7
851.9,1514,14.0,13.8,98,11.69,98,5.1,300.6,335.2,302.7
851.5,1518,14.0,13.7,98,11.65,98,5.1,300.6,335.1,302.8
851.1,1522,14.0,13.7,98,11.64,98,5.1,300.7,335.1,302.8
850.6,1527,13.9,13.7,98,11.63,98,5.1,300.7,335.0,302.8
850.2,1531,13.9,13.6,98,11.60,98,5.1,300.7,335.0,302.8
850.0,1533,13.9,13.6,98,11.57,97,5.1,300.7,334.9,302.8
849.7,1535,13.9,13.5,98,11.54,97,5.1,300.7,334.8,302.8
849.3,1540,13.8,13.4,97,11.47,97,5.1,300.7,334.6,302.8
848.9,1544,13.8,13.3,97,11.41,97,5.1,300.7,334.5,302.8
848.4,1548,13.8,13.3,96,11.37,97,5.1,300.8,334.4,302.8
848.0,1553,13.8,13.2,96,11.35,97,5.1,300.8,334.4,302.9
847.6,1557,13.8,13.2,96,11.34,97,5.2,300.8,334.4,302.9
847.2,1561,13.8,13.2,96,11.33,97,5.2,300.8,334.4,302.9
846.8,1565,13.8,13.2,96,11.33,97,5.2,300.9,334.4,302.9
846.3,1569,13.7,13.2,97,11.35,98,5.2,300.9,334.5,302.9
845.9,1573,13.7,13.2,97,11.36,98,5.2,300.9,334.5,302.9
845.5,1577,13.7,13.2,97,11.36,98,5.2,300.9,334.5,302.9
845.1,1582,13.6,13.2,97,11.36,98,5.2,300.9,334.5,303.0
844.7,1586,13.6,13.2,98,11.39,99,5.2,300.9,334.6,303.0
844.2,1590,13.6,13.3,98,11.42,99,5.2,300.9,334.7,303.0
843.8,1595,13.5,13.3,99,11.45,99,5.2,300.9,334.8,303.0
843.4,1599,13.5,13.3,99,11.48,99,5.2,300.9,334.9,303.0
843.0,1603,13.4,13.3,99,11.47,100,5.2,300.9,334.9,303.0
842.5,1607,13.4,13.3,99,11.44,100,5.2,300.9,334.8,303.0
842.1,1612,13.4,13.2,99,11.40,100,5.2,300.9,334.7,303.0
841.7,1616,13.3,13.2,99,11.40,100,5.2,300.9,334.7,303.0
841.3,1619,13.3,13.2,99,11.42,100,5.2,301.0,334.8,303.0
840.9,1623,13.3,13.2,99,11.44,100,5.1,301.0,334.9,303.1
840.6,1627,13.3,13.2,100,11.46,100,5.1,301.0,334.9,303.1
840.2,1631,13.3,13.2,100,11.45,99,5.1,301.0,335.0,303.1
839.8,1635,13.3,13.2,100,11.44,99,5.0,301.1,335.0,303.1
839.4,1638,13.3,13.2,99,11.43,99,5.0,301.1,335.0,303.2
839.1,1642,13.3,13.2,99,11.41,98,5.0,301.1,334.9,303.2
838.7,1646,13.2,13.2,99,11.41,98,4.9,301.1,335.0,303.2
838.3,1650,13.2,13.2,100,11.43,97,4.9,301.2,335.0,303.2
837.9,1654,13.2,13.1,100,11.42,96,4.9,301.2,335.0,303.2
837.5,1658,13.2,13.1,99,11.38,95,4.8,301.2,334.9,303.3
837.1,1662,13.2,13.0,99,11.34,95,4.8,301.2,334.9,303.3
836.7,1666,13.1,13.0,99,11.34,94,4.8,301.3,334.9,303.3
836.3,1670,13.2,13.0,99,11.33,93,4.8,301.3,334.9,303.4
835.9,1674,13.2,13.0,99,11.32,92,4.8,301.3,334.9,303.4
835.6,1677,13.2,12.9,99,11.29,91,4.7,301.4,334.9,303.4
835.2,1681,13.1,12.9,99,11.28,90,4.7,301.4,334.9,303.4
834.9,1685,13.1,12.9,99,11.28,89,4.7,301.4,334.9,303.5
834.5,1688,13.1,12.9,99,11.29,88,4.7,301.5,335.0,303.5
834.1,1692,13.1,12.9,99,11.30,87,4.7,301.5,335.0,303.6
833.8,1696,13.1,12.9,99,11.32,86,4.7,301.5,335.1,303.6
833.4,1699,13.1,13.0,99,11.34,84,4.7,301.6,335.2,303.6
833.0,1704,13.1,13.0,99,11.34,83,4.7,301.6,335.3,303.6
832.6,1708,13.1,12.9,99,11.34,82,4.7,301.6,335.3,303.7
832.1,1712,13.1,12.9,99,11.30,81,4.7,301.6,335.2,303.7
