PRES,HGHT,TEMP,DWPT,RELH,MIXR,DRCT,SPED,THTA,THTE,THTV
1007.1,31,21.4,19.3,88,14.17,238,3.8,294.0,334.5,296.5
1006.5,36,21.6,19.6,88,14.40,231,2.9,294.2,335.5,296.7
1005.9,41,21.5,19.6,89,14.39,230,3.0,294.2,335.5,296.7
1005.3,46,21.5,19.5,88,14.30,230,3.2,294.2,335.2,296.7
1004.6,52,21.5,19.3,87,14.16,231,3.5,294.3,334.9,296.8
1004.0,58,21.6,19.2,86,14.05,232,3.7,294.4,334.8,296.9
1003.3,63,21.6,19.1,85,14.00,232,4.0,294.5,334.7,297.0
1002.7,69,21.6,19.0,85,13.96,233,4.3,294.5,334.6,297.0
1002.0,74,21.6,19.0,85,13.95,234,4.5,294.5,334.6,297.0
1001.4,80,21.5,19.0,86,13.90,234,4.8,294.5,334.4,297.0
1000.8,86,21.5,18.9,85,13.87,235,5.0,294.6,334.4,297.0
1000.1,91,21.5,18.9,85,13.86,235,5.3,294.6,334.5,297.1
1000.0,92,21.5,18.9,85,13.85,236,5.5,294.7,334.5,297.1
999.5,97,21.5,18.8,85,13.81,236,5.5,294.7,334.4,297.1
998.8,102,21.5,18.8,85,13.79,236,5.7,294.8,334.4,297.2
998.2,108,21.6,18.8,84,13.79,237,5.9,294.9,334.5,297.3
997.6,113,21.6,18.7,84,13.76,237,6.1,294.9,334.5,297.4
997.0,118,21.6,18.7,83,13.71,238,6.3,295.0,334.4,297.4
996.4,123,21.6,18.6,83,13.70,238,6.5,295.1,334.5,297.5
995.9,128,21.6,18.6,83,13.70,238,6.7,295.1,334.6,297.5
995.3,133,21.6,18.6,83,13.71,239,6.8,295.1,334.6,297.5
994.8,138,21.5,18.6,84,13.70,239,7.0,295.1,334.6,297.5
994.2,142,21.5,18.6,84,13.71,239,7.1,295.1,334.6,297.6
993.7,147,21.5,18.6,84,13.70,240,7.2,295.2,334.6,297.6
993.1,152,21.5,18.6,83,13.70,240,7.4,295.3,334.7,297.7
992.6,157,21.6,18.6,83,13.72,240,7.5,295.3,334.9,297.8
992.0,162,21.5,18.6,83,13.72,240,7.6,295.3,334.9,297.8
991.4,167,21.5,18.6,84,13.72,241,7.7,295.4,334.9,297.8
990.8,172,21.5,18.6,83,13.74,241,7.8,295.4,335.1,297.9
990.2,178,21.5,18.6,83,13.74,241,7.8,295.5,335.2,297.9
989.6,183,21.5,18.5,83,13.71,241,7.9,295.5,335.1,298.0
989.1,188,21.5,18.5,83,13.70,241,8.0,295.6,335.1,298.0
988.5,192,21.5,18.5,83,13.69,242,8.1,295.6,335.1,298.0
988.0,197,21.5,18.5,83,13.68,242,8.1,295.6,335.2,298.1
987.4,202,21.5,18.5,83,13.68,242,8.2,295.7,335.2,298.1
986.8,207,21.5,18.5,83,13.70,242,8.3,295.7,335.3,298.2
986.3,212,21.4,18.5,83,13.71,242,8.3,295.7,335.3,298.2
985.7,218,21.4,18.5,83,13.70,242,8.4,295.8,335.3,298.2
985.1,223,21.4,18.5,83,13.70,243,8.5,295.8,335.4,298.2
984.5,228,21.3,18.4,83,13.66,243,8.5,295.8,335.3,298.2
983.9,233,21.4,18.4,83,13.66,243,8.6,295.9,335.4,298.3
983.3,239,21.4,18.4,83,13.65,243,8.7,295.9,335.4,298.4
982.7,244,21.3,18.4,83,13.64,243,8.7,295.9,335.3,298.3
982.1,249,21.2,18.4,84,13.65,244,8.8,295.9,335.3,298.3
981.5,254,21.2,18.4,84,13.66,244,8.9,295.9,335.4,298.3
980.9,260,21.2,18.4,84,13.72,244,8.9,296.0,335.6,298.4
980.3,265,21.1,18.5,85,13.77,244,9.0,296.0,335.8,298.4
979.6,271,21.1,18.4,85,13.76,245,9.1,296.0,335.7,298.4
979.0,277,21.0,18.4,85,13.74,245,9.2,295.9,335.7,298.4
978.4,282,20.9,18.4,85,13.72,245,9.2,295.9,335.6,298.3
977.7,288,20.9,18.4,86,13.72,245,9.3,295.9,335.6,298.4
977.1,293,20.8,18.4,86,13.73,246,9.4,295.9,335.6,298.4
976.5,298,20.8,18.3,86,13.70,246,9.5,295.9,335.5,298.4
976.0,303,20.7,18.2,86,13.61,246,9.5,295.9,335.2,298.3
975.4,308,20.7,18.1,85,13.54,246,9.6,295.9,335.1,298.3
974.8,313,20.7,18.1,85,13.56,246,9.7,296.0,335.2,298.4
974.3,318,20.6,18.2,86,13.62,246,9.7,295.9,335.3,298.4
973.8,323,20.5,18.2,87,13.66,246,9.8,295.9,335.4,298.4
973.2,328,20.5,18.3,87,13.69,246,9.8,295.9,335.5,298.4
972.7,333,20.4,18.3,88,13.73,246,9.9,295.9,335.6,298.3
972.2,337,20.4,18.3,88,13.73,246,9.9,295.9,335.6,298.3
971.7,342,20.3,18.3,88,13.72,246,10.0,295.9,335.5,298.3
971.2,346,20.3,18.2,88,13.69,246,10.0,295.9,335.5,298.3
970.7,351,20.3,18.1,88,13.62,246,10.0,295.9,335.3,298.3
970.2,355,20.3,18.0,87,13.54,245,10.1,296.0,335.1,298.4
969.7,359,20.2,17.9,86,13.40,245,10.1,296.0,334.7,298.3
969.3,363,20.2,17.7,86,13.28,245,10.1,296.0,334.4,298.3
968.8,367,20.1,17.7,86,13.27,244,10.1,296.0,334.3,298.3
968.4,371,20.1,17.8,87,13.37,244,10.1,296.0,334.6,298.3
967.9,375,20.1,17.8,87,13.40,243,10.1,296.0,334.7,298.3
967.4,379,20.0,17.7,86,13.27,243,10.1,296.0,334.4,298.3
967.0,384,20.0,17.6,86,13.17,242,10.2,296.0,334.1,298.3
966.5,388,19.9,17.5,86,13.15,242,10.2,296.0,334.0,298.3
966.1,392,19.9,17.5,86,13.16,241,10.2,295.9,334.0,298.3
965.6,396,19.9,17.5,86,13.15,241,10.2,296.0,334.0,298.3
965.2,399,19.8,17.4,86,13.07,240,10.2,296.0,333.8,298.3
964.8,403,19.8,17.3,85,12.98,240,10.2,296.0,333.5,298.3
964.4,407,19.9,17.3,85,12.97,239,10.2,296.1,333.6,298.4
964.0,410,19.9,17.3,85,12.99,239,10.2,296.1,333.7,298.4
963.6,414,19.9,17.3,85,13.01,238,10.3,296.2,333.8,298.5
963.2,417,19.9,17.3,85,13.03,238,10.3,296.2,334.0,298.6
962.8,421,20.0,17.3,84,13.01,238,10.3,296.4,334.1,298.7
962.4,425,20.1,17.2,84,12.96,238,10.3,296.4,334.0,298.7
961.9,429,20.1,17.2,84,12.94,238,10.3,296.5,334.0,298.8
961.5,433,20.0,17.2,84,12.96,237,10.3,296.5,334.1,298.8
960.9,438,20.0,17.2,84,12.99,237,10.4,296.5,334.2,298.8
960.4,443,20.0,17.3,84,13.02,237,10.4,296.5,334.3,298.8
959.9,448,19.9,17.3,85,13.03,237,10.4,296.5,334.3,298.8
959.3,453,19.8,17.2,85,13.00,237,10.4,296.5,334.2,298.8
958.7,458,19.8,17.1,85,12.93,238,10.4,296.5,334.0,298.8
958.2,463,19.8,17.0,84,12.84,238,10.4,296.5,333.7,298.8
957.6,468,19.8,16.9,84,12.78,238,10.4,296.6,333.6,298.8
957.1,473,19.8,16.9,83,12.74,238,10.5,296.6,333.6,298.9
956.5,478,19.8,16.9,83,12.74,238,10.5,296.6,333.6,298.9
956.0,483,19.7,16.9,84,12.74,238,10.5,296.6,333.6,298.9
955.4,487,19.7,16.8,84,12.72,238,10.5,296.6,333.6,298.9
954.9,492,19.6,16.8,84,12.69,239,10.5,296.6,333.5,298.9
954.4,497,19.6,16.8,84,12.68,239,10.5,296.6,333.4,298.9
953.9,502,19.5,16.7,84,12.67,239,10.5,296.6,333.4,298.9
953.4,506,19.5,16.7,84,12.64,239,10.5,296.6,333.3,298.9
952.9,511,19.5,16.6,84,12.57,239,10.5,296.7,333.2,298.9
952.4,515,19.4,16.5,83,12.46,239,10.5,296.7,332.9,298.9
951.9,519,19.4,16.4,82,12.38,239,10.5,296.7,332.7,298.9
951.4,524,19.4,16.3,82,12.32,239,10.5,296.8,332.6,299.0
951.0,528,19.4,16.2,81,12.24,239,10.4,296.8,332.4,299.0
950.5,532,19.4,16.1,81,12.18,238,10.4,296.8,332.2,299.0
950.0,537,19.4,16.0,81,12.16,238,10.4,296.8,332.2,299.0
949.5,541,19.4,16.0,81,12.13,238,10.4,296.9,332.1,299.0
949.0,545,19.4,16.0,81,12.13,238,10.4,296.9,332.2,299.1
948.5,550,19.3,16.0,81,12.15,238,10.4,296.9,332.3,299.1
948.0,554,19.3,16.0,81,12.16,237,10.4,297.0,332.3,299.1
947.5,559,19.3,16.0,82,12.18,237,10.4,297.0,332.4,299.1
947.0,564,19.2,16.0,82,12.20,237,10.4,296.9,332.4,299.1
946.5,568,19.1,16.0,82,12.20,236,10.4,296.9,332.4,299.1
946.0,573,19.1,16.0,82,12.18,236,10.4,296.9,332.3,299.1
945.5,577,19.1,16.0,82,12.17,235,10.4,296.9,332.3,299.1
945.0,582,19.0,16.0,83,12.17,235,10.5,296.9,332.3,299.1
944.6,586,19.0,15.9,82,12.13,234,10.5,296.9,332.2,299.1
944.1,591,18.9,15.8,82,12.05,234,10.5,296.9,332.0,299.1
943.6,595,18.9,15.7,82,11.97,234,10.5,296.9,331.8,299.1
943.1,600,18.9,15.6,81,11.90,233,10.5,297.0,331.6,299.1
942.5,605,18.9,15.5,81,11.82,233,10.6,297.0,331.4,299.1
942.0,610,18.9,15.3,80,11.72,232,10.6,297.0,331.1,299.1
941.5,615,18.9,15.2,79,11.63,232,10.6,297.1,330.9,299.1
940.9,620,18.8,15.1,79,11.58,231,10.7,297.1,330.8,299.2
940.4,625,18.8,15.1,79,11.52,231,10.7,297.1,330.7,299.2
939.8,630,18.8,15.0,79,11.49,231,10.7,297.1,330.6,299.2
939.2,635,18.7,15.0,79,11.49,230,10.8,297.1,330.6,299.2
938.6,640,18.7,14.9,79,11.44,230,10.8,297.2,330.5,299.2
938.1,646,18.7,14.8,78,11.36,229,10.8,297.2,330.3,299.2
937.5,651,18.7,14.7,78,11.29,229,10.9,297.2,330.2,299.3
936.9,656,18.6,14.6,78,11.25,229,10.9,297.3,330.1,299.3
936.4,661,18.6,14.6,78,11.24,229,11.0,297.3,330.0,299.3
935.9,666,18.6,14.6,78,11.24,228,11.0,297.3,330.0,299.3
935.4,670,18.5,14.6,78,11.23,228,11.0,297.3,330.0,299.3
934.9,675,18.5,14.5,78,11.20,228,11.1,297.3,329.9,299.3
934.4,679,18.4,14.4,78,11.12,228,11.1,297.3,329.7,299.3
933.9,684,18.4,14.3,77,11.01,227,11.1,297.3,329.4,299.3
933.4,689,18.4,14.1,76,10.88,227,11.1,297.3,329.1,299.3
932.9,693,18.4,14.0,75,10.81,227,11.1,297.4,329.0,299.3
932.3,698,18.4,14.0,76,10.83,227,11.1,297.4,329.0,299.4
931.8,703,18.3,14.0,76,10.86,227,11.1,297.4,329.1,299.4
931.3,708,18.3,14.0,76,10.85,227,11.1,297.4,329.1,299.4
930.7,713,18.2,13.9,76,10.75,227,11.1,297.4,328.8,299.3
930.2,718,18.2,13.6,74,10.56,227,11.1,297.4,328.3,299.3
929.6,723,18.2,13.3,73,10.36,227,11.1,297.5,327.8,299.4
929.1,728,18.2,13.2,72,10.29,227,11.0,297.5,327.6,299.4
928.6,733,18.2,13.2,73,10.31,227,11.0,297.5,327.7,299.4
928.1,738,18.1,13.2,73,10.35,227,10.9,297.6,327.8,299.4
927.5,743,18.1,13.3,73,10.38,227,10.9,297.6,328.0,299.5
927.0,747,18.1,13.3,74,10.43,227,10.8,297.6,328.1,299.5
926.5,752,18.1,13.4,74,10.47,227,10.8,297.6,328.2,299.5
926.0,757,18.0,13.4,75,10.49,227,10.7,297.6,328.3,299.5
925.5,762,17.9,13.4,75,10.51,228,10.6,297.6,328.4,299.5
925.0,766,17.9,13.5,75,10.55,228,10.6,297.6,328.5,299.5
924.9,767,17.9,13.5,75,10.56,228,10.6,297.6,328.5,299.5
924.4,771,17.8,13.5,76,10.60,228,10.5,297.6,328.6,299.5
923.9,776,17.8,13.5,76,10.59,228,10.4,297.6,328.6,299.5
923.4,781,17.8,13.5,76,10.57,228,10.3,297.6,328.5,299.5
922.9,786,17.7,13.5,76,10.56,228,10.3,297.6,328.5,299.5
922.4,790,17.7,13.5,77,10.62,229,10.2,297.6,328.7,299.5
921.8,795,17.7,13.7,78,10.75,229,10.1,297.7,329.1,299.6
921.3,800,17.6,13.9,79,10.89,229,10.0,297.7,329.5,299.6
920.8,805,17.6,14.0,80,11.01,229,10.0,297.7,329.9,299.7
920.2,810,17.6,14.1,80,11.04,229,9.9,297.7,330.0,299.7
919.7,815,17.5,14.0,80,11.01,229,9.9,297.7,329.9,299.7
919.2,820,17.5,14.0,80,11.00,230,9.8,297.7,329.8,299.6
918.7,825,17.4,14.1,81,11.05,230,9.8,297.7,330.0,299.7
918.2,830,17.4,14.2,81,11.13,230,9.8,297.7,330.2,299.7
917.6,834,17.4,14.2,82,11.19,230,9.7,297.7,330.4,299.7
917.1,839,17.3,14.3,82,11.22,230,9.7,297.7,330.5,299.7
916.6,844,17.3,14.3,82,11.21,230,9.7,297.8,330.5,299.8
916.1,849,17.3,14.2,82,11.18,230,9.7,297.8,330.5,299.8
915.5,854,17.2,14.2,82,11.15,230,9.7,297.8,330.4,299.8
915.0,860,17.2,14.1,82,11.13,230,9.7,297.8,330.4,299.8
914.4,865,17.2,14.1,82,11.11,231,9.7,297.8,330.3,299.8
913.8,870,17.1,14.0,82,11.04,231,9.8,297.9,330.1,299.8
913.2,876,17.1,13.8,81,10.91,231,9.8,297.9,329.8,299.8
912.6,882,17.1,13.6,80,10.78,231,9.8,298.0,329.5,299.9
912.0,887,17.2,13.5,79,10.73,231,9.8,298.0,329.5,300.0
911.4,893,17.1,13.5,79,10.74,231,9.8,298.1,329.5,300.0
910.8,899,17.1,13.6,80,10.80,231,9.8,298.1,329.7,300.0
910.2,904,17.1,13.7,80,10.90,231,9.9,298.2,330.1,300.1
909.6,910,17.1,13.8,81,10.94,231,9.9,298.2,330.3,300.2
909.0,916,17.1,13.7,80,10.92,231,9.9,298.3,330.3,300.2
908.4,921,17.1,13.7,81,10.91,231,9.9,298.3,330.3,300.3
907.8,927,17.0,13.7,81,10.90,232,9.9,298.3,330.3,300.3
907.3,932,17.0,13.6,81,10.88,232,9.9,298.3,330.2,300.2
906.8,936,16.9,13.6,81,10.89,232,9.8,298.3,330.2,300.2
906.3,941,16.9,13.7,81,10.92,232,9.8,298.3,330.3,300.2
905.8,945,16.9,13.7,82,10.96,232,9.8,298.3,330.4,300.3
905.3,950,16.8,13.8,82,11.00,232,9.7,298.3,330.6,300.3
904.9,954,16.7,13.8,83,11.02,232,9.7,298.3,330.6,300.3
904.4,959,16.7,13.8,83,11.03,233,9.6,298.3,330.6,300.3
903.9,963,16.7,13.8,83,11.01,233,9.6,298.3,330.6,300.3
903.4,968,16.6,13.7,83,10.98,233,9.5,298.3,330.5,300.3
902.9,973,16.6,13.6,83,10.93,233,9.5,298.4,330.4,300.3
902.3,978,16.6,13.6,82,10.89,233,9.4,298.4,330.3,300.4
901.8,983,16.6,13.5,82,10.86,233,9.3,298.4,330.3,300.3
901.2,989,16.5,13.5,82,10.84,233,9.2,298.4,330.2,300.4
900.6,994,16.5,13.4,82,10.79,233,9.2,298.4,330.1,300.4
900.0,1000,16.5,13.3,81,10.71,233,9.1,298.5,329.9,300.4
899.4,1006,16.5,13.1,80,10.57,233,9.0,298.5,329.6,300.4
898.8,1011,16.6,12.9,79,10.48,234,9.0,298.7,329.5,300.6
898.2,1017,16.6,12.9,79,10.45,234,8.9,298.8,329.5,300.7
897.7,1023,16.6,12.8,79,10.43,234,8.9,298.8,329.5,300.7
897.1,1028,16.5,12.8,79,10.43,234,8.8,298.8,329.5,300.7
896.6,1033,16.5,12.8,79,10.45,234,8.8,298.8,329.5,300.7
896.0,1038,16.4,12.9,80,10.50,234,8.7,298.8,329.7,300.7
895.5,1043,16.4,13.0,80,10.56,234,8.7,298.8,329.8,300.7
895.0,1048,16.3,13.1,81,10.61,234,8.6,298.8,330.0,300.7
894.4,1053,16.3,13.0,81,10.61,234,8.6,298.8,330.0,300.7
893.9,1058,16.2,13.0,81,10.56,234,8.6,298.8,329.8,300.7
893.4,1063,16.2,12.8,81,10.47,234,8.6,298.8,329.6,300.7
892.9,1068,16.2,12.7,80,10.38,234,8.6,298.8,329.4,300.7
892.3,1073,16.2,12.6,79,10.32,234,8.6,298.9,329.3,300.8
891.8,1078,16.2,12.6,79,10.30,234,8.6,299.0,329.3,300.8
891.3,1084,16.2,12.5,79,10.30,234,8.6,299.0,329.4,300.9
890.7,1089,16.2,12.5,79,10.29,234,8.7,299.1,329.4,300.9
890.2,1094,16.2,12.5,79,10.27,235,8.7,299.1,329.3,301.0
889.6,1100,16.2,12.4,78,10.25,235,8.7,299.2,329.3,301.0
889.0,1105,16.1,12.3,78,10.18,235,8.8,299.2,329.2,301.0
888.5,1110,16.1,12.2,78,10.10,235,8.8,299.2,329.0,301.0
888.0,1115,16.1,12.1,77,10.02,235,8.9,299.2,328.8,301.0
887.5,1120,16.0,12.0,77,9.98,235,8.9,299.2,328.6,301.0
887.0,1124,16.0,12.0,77,9.97,235,9.0,299.2,328.6,301.0
886.6,1129,16.0,11.9,77,9.95,235,9.0,299.3,328.6,301.1
886.1,1133,16.0,11.9,77,9.94,235,9.1,299.3,328.6,301.1
885.7,1137,16.0,11.9,77,9.93,235,9.1,299.3,328.6,301.1
885.2,1141,16.0,11.9,77,9.95,235,9.1,299.4,328.7,301.2
884.8,1145,15.9,12.0,78,10.02,235,9.2,299.4,328.9,301.2
884.4,1149,15.9,12.1,78,10.06,235,9.2,299.4,329.0,301.2
884.0,1154,15.8,12.1,78,10.07,235,9.2,299.4,329.1,301.2
883.5,1158,15.8,12.1,79,10.09,234,9.2,299.4,329.1,301.2
883.1,1162,15.8,12.1,79,10.10,234,9.3,299.3,329.2,301.2
882.7,1166,15.7,12.1,79,10.12,234,9.3,299.4,329.2,301.2
882.3,1170,15.7,12.1,79,10.11,233,9.3,299.4,329.2,301.2
881.8,1174,15.7,12.1,79,10.11,233,9.2,299.4,329.2,301.2
881.4,1178,15.6,12.1,79,10.11,233,9.2,299.4,329.2,301.2
881.0,1182,15.6,12.1,80,10.12,232,9.2,299.4,329.2,301.2
880.6,1186,15.5,12.1,80,10.11,232,9.2,299.4,329.2,301.2
880.1,1190,15.5,12.0,80,10.08,231,9.1,299.4,329.1,301.2
879.7,1194,15.5,11.9,79,10.02,231,9.1,299.4,328.9,301.2
879.3,1198,15.5,11.8,79,9.95,230,9.0,299.4,328.8,301.2
878.9,1202,15.5,11.8,79,9.92,230,9.0,299.4,328.7,301.2
878.5,1207,15.5,11.8,79,9.93,230,8.9,299.5,328.8,301.3
878.1,1211,15.5,11.8,79,9.97,229,8.8,299.5,329.0,301.3
877.6,1215,15.5,11.9,79,10.02,229,8.8,299.6,329.2,301.4
877.2,1219,15.5,11.9,79,10.06,229,8.7,299.6,329.4,301.5
876.7,1223,15.5,11.9,79,10.05,228,8.6,299.7,329.4,301.5
876.3,1228,15.4,11.9,79,10.03,228,8.6,299.7,329.3,301.5
875.8,1233,15.4,11.8,79,10.00,228,8.5,299.7,329.3,301.5
875.3,1237,15.4,11.8,79,10.00,228,8.4,299.8,329.3,301.6
874.8,1242,15.4,11.8,79,10.01,228,8.4,299.8,329.4,301.6
874.3,1247,15.4,11.8,79,10.01,229,8.3,299.8,329.4,301.6
873.8,1252,15.3,11.8,80,10.00,229,8.3,299.8,329.3,301.6
873.3,1257,15.3,11.8,80,9.98,229,8.2,299.8,329.3,301.6
872.8,1262,15.2,11.7,79,9.94,230,8.2,299.8,329.2,301.6
872.3,1267,15.2,11.6,79,9.91,230,8.1,299.8,329.1,301.6
871.8,1271,15.2,11.6,79,9.91,230,8.1,299.9,329.2,301.7
871.4,1276,15.2,11.7,80,9.93,231,8.1,299.9,329.2,301.7
870.9,1280,15.1,11.7,80,9.96,231,8.1,299.9,329.3,301.7
870.4,1285,15.1,11.8,80,10.01,232,8.1,299.9,329.5,301.7
870.0,1289,15.1,11.8,81,10.04,232,8.1,299.9,329.6,301.7
869.5,1293,15.0,11.8,81,10.05,233,8.1,299.9,329.7,301.7
869.1,1298,15.0,11.8,81,10.04,233,8.1,299.9,329.6,301.7
868.6,1303,14.9,11.7,81,10.01,233,8.1,299.9,329.5,301.7
868.1,1308,14.9,11.7,81,9.99,234,8.1,299.9,329.5,301.7
867.6,1312,14.9,11.7,81,10.00,234,8.1,299.9,329.5,301.7
867.1,1317,14.8,11.7,82,10.03,234,8.1,299.9,329.6,301.7
866.6,1322,14.7,11.7,82,10.04,234,8.1,299.9,329.6,301.7
866.1,1327,14.7,11.7,82,10.05,234,8.1,299.9,329.6,301.7
865.7,1331,14.7,11.8,83,10.07,234,8.0,299.9,329.7,301.7
865.2,1336,14.6,11.8,83,10.10,234,8.0,299.9,329.8,301.7
864.8,1340,14.6,11.8,83,10.10,234,8.0,299.9,329.8,301.7
864.4,1344,14.6,11.8,84,10.11,234,8.0,299.9,329.8,301.8
863.9,1348,14.5,11.8,84,10.14,234,7.9,300.0,329.9,301.8
863.5,1352,14.5,11.9,84,10.18,233,7.9,299.9,330.0,301.8
863.1,1356,14.4,12.0,85,10.23,233,7.9,299.9,330.2,301.8
862.7,1361,14.4,12.0,86,10.28,233,7.8,299.9,330.3,301.8
862.2,1365,14.4,12.1,86,10.36,233,7.8,299.9,330.6,301.8
861.8,1369,14.3,12.3,88,10.50,233,7.7,299.9,331.0,301.8
861.4,1373,14.3,12.5,89,10.62,233,7.7,300.0,331.3,301.9
861.0,1377,14.3,12.6,90,10.71,233,7.7,300.0,331.6,301.9
860.5,1382,14.3,12.7,90,10.76,233,7.6,300.0,331.8,302.0
860.1,1386,14.2,12.6,90,10.74,233,7.6,300.0,331.8,302.0
859.7,1390,14.2,12.6,90,10.71,233,7.6,300.0,331.7,302.0
859.2,1395,14.2,12.5,90,10.68,233,7.6,300.1,331.6,302.0
858.7,1399,14.2,12.4,89,10.59,234,7.6,300.1,331.4,302.0
858.3,1404,14.2,12.2,88,10.44,234,7.6,300.2,331.0,302.0
857.8,1408,14.3,11.9,86,10.29,234,7.6,300.3,330.8,302.2
857.4,1413,14.3,11.8,85,10.23,235,7.6,300.4,330.7,302.2
856.9,1417,14.3,11.8,85,10.22,235,7.6,300.4,330.7,302.2
856.5,1422,14.3,11.8,85,10.23,236,7.6,300.4,330.7,302.3
856.0,1426,14.3,11.9,85,10.25,236,7.7,300.5,330.8,302.3
855.6,1431,14.2,11.9,86,10.25,236,7.7,300.5,330.9,302.3
855.1,1435,14.2,11.8,85,10.21,237,7.8,300.5,330.8,302.4
854.6,1440,14.2,11.8,85,10.20,237,7.8,300.6,330.8,302.4
854.1,1445,14.2,11.8,85,10.24,237,7.9,300.6,331.0,302.5
853.6,1450,14.2,11.8,86,10.25,238,8.0,300.6,331.0,302.5
853.1,1456,14.1,11.6,85,10.13,238,8.0,300.6,330.6,302.4
852.5,1461,14.1,11.4,84,9.96,238,8.1,300.6,330.2,302.4
852.1,1465,14.0,11.2,83,9.84,238,8.1,300.6,329.8,302.4
851.6,1470,14.0,11.1,83,9.81,238,8.2,300.6,329.8,302.4
851.1,1475,14.0,11.1,83,9.78,238,8.2,300.6,329.7,302.4
850.7,1479,13.9,11.1,83,9.77,237,8.3,300.7,329.7,302.4
850.2,1484,13.9,11.1,83,9.81,237,8.3,300.6,329.8,302.4
850.0,1486,13.8,11.1,83,9.79,237,8.3,300.6,329.7,302.4
849.8,1488,13.8,11.0,83,9.77,237,8.3,300.6,329.6,302.4
849.4,1492,13.8,10.8,82,9.60,236,8.3,300.6,329.1,302.4
848.9,1497,13.8,10.3,80,9.32,236,8.3,300.7,328.4,302.4
848.5,1501,13.8,10.0,77,9.10,235,8.3,300.8,327.9,302.4
848.0,1506,13.9,9.8,77,9.03,235,8.3,300.8,327.7,302.5
847.5,1510,13.8,9.9,77,9.07,234,8.3,300.9,327.9,302.5
847.1,1515,13.8,10.0,78,9.14,234,8.2,300.9,328.1,302.5
846.6,1520,13.7,10.1,79,9.21,233,8.2,300.8,328.3,302.5
846.1,1525,13.7,10.2,79,9.27,233,8.2,300.9,328.4,302.5
845.6,1529,13.6,10.3,80,9.34,232,8.1,300.9,328.7,302.6
845.2,1534,13.6,10.3,81,9.36,231,8.0,300.9,328.7,302.6
844.7,1539,13.6,10.3,81,9.36,231,8.0,300.9,328.7,302.6
844.2,1543,13.5,10.3,81,9.33,231,7.9,300.9,328.6,302.6
843.8,1548,13.5,10.2,81,9.32,230,7.8,300.9,328.6,302.6
843.3,1552,13.4,10.2,81,9.32,230,7.7,300.9,328.6,302.6
842.9,1557,13.4,10.2,81,9.33,230,7.7,300.9,328.6,302.6
842.5,1561,13.4,10.2,81,9.34,229,7.6,300.9,328.7,302.6
842.0,1566,13.3,10.2,81,9.34,229,7.5,300.9,328.7,302.6
841.6,1570,13.3,10.2,81,9.33,229,7.4,300.9,328.7,302.6
841.1,1575,13.3,10.2,81,9.31,229,7.3,300.9,328.7,302.6
840.7,1579,13.3,10.1,81,9.28,229,7.2,301.0,328.6,302.6
840.2,1583,13.3,10.1,81,9.29,230,7.2,301.0,328.7,302.7
839.8,1588,13.3,10.2,81,9.32,230,7.1,301.1,328.8,302.8
839.4,1592,13.3,10.2,82,9.37,230,7.0,301.1,329.0,302.8
838.9,1597,13.2,10.3,83,9.43,230,7.0,301.1,329.2,302.8
838.5,1601,13.2,10.4,83,9.50,231,6.9,301.1,329.4,302.9
838.0,1606,13.2,10.6,84,9.63,231,6.9,301.2,329.8,302.9
837.4,1612,13.2,10.8,85,9.74,231,6.8,301.2,330.2,303.0
836.9,1617,13.1,10.8,86,9.78,232,6.8,301.2,330.3,303.0
836.3,1622,13.1,10.8,86,9.80,232,6.8,301.2,330.4,303.0
835.8,1628,13.0,10.9,87,9.84,232,6.8,301.2,330.5,303.0
835.2,1634,13.0,10.9,87,9.86,232,6.8,301.2,330.6,303.0
834.7,1639,12.9,10.9,88,9.88,233,6.8,301.2,330.6,303.0
834.1,1645,12.9,10.9,88,9.88,233,6.8,301.2,330.6,303.0
833.6,1651,12.8,10.9,88,9.84,233,6.8,301.2,330.5,303.0
833.0,1656,12.8,10.7,87,9.76,233,6.8,301.2,330.3,303.0
832.4,1662,12.8,10.7,87,9.75,233,6.8,301.3,330.3,303.1
831.9,1668,12.7,10.7,88,9.78,233,6.9,301.3,330.4,303.1
831.3,1673,12.7,10.7,88,9.79,233,6.9,301.3,330.5,303.1
830.8,1679,12.7,10.7,88,9.77,233,6.9,301.3,330.4,303.1
830.2,1684,12.6,10.7,88,9.76,233,6.9,301.4,330.4,303.2
829.7,1689,12.6,10.6,88,9.75,233,7.0,301.4,330.4,303.2
829.2,1695,12.6,10.6,88,9.73,233,7.0,301.4,330.4,303.2
828.7,1700,12.5,10.6,88,9.71,233,7.0,301.4,330.4,303.2
828.2,1705,12.5,10.5,88,9.69,233,7.0,301.5,330.3,303.2
827.6,1711,12.5,10.5,88,9.68,233,7.0,301.5,330.3,303.3
827.1,1716,12.5,10.4,87,9.64,232,7.0,301.5,330.2,303.3
826.6,1721,12.4,10.3,87,9.58,232,7.0,301.5,330.1,303.2
826.1,1727,12.3,10.2,87,9.51,232,7.0,301.5,329.8,303.2
825.6,1732,12.3,10.1,86,9.43,232,7.0,301.5,329.6,303.2
825.1,1737,12.3,10.0,86,9.38,231,7.0,301.5,329.5,303.2
