PRES,HGHT,TEMP,DWPT,RELH,MIXR,DRCT,SPED,THTA,THTE,THTV
1010.2,31,26.8,20.4,68,15.14,187,7.3,299.1,343.4,301.8
1009.0,41,25.8,20.2,71,14.95,188,6.2,298.2,341.9,300.9
1008.4,46,25.4,20.1,72,14.87,189,6.0,297.9,341.2,300.5
1008.0,50,25.2,20.1,73,14.83,189,6.2,297.6,340.8,300.3
1007.7,53,25.0,20.0,74,14.76,189,6.5,297.5,340.4,300.1
1007.1,57,25.0,20.0,74,14.74,189,6.9,297.5,340.4,300.1
1006.9,59,24.9,19.9,74,14.69,189,7.3,297.5,340.2,300.1
1006.1,67,24.9,19.9,74,14.67,189,7.7,297.6,340.2,300.2
1005.5,72,25.0,19.9,73,14.70,189,8.0,297.7,340.4,300.3
1004.8,77,25.1,19.9,73,14.75,189,8.3,297.9,340.8,300.5
1004.1,83,25.1,19.9,73,14.74,189,8.6,297.9,340.9,300.6
1003.4,90,25.2,20.0,73,14.84,189,8.8,298.1,341.4,300.7
1002.6,97,25.1,20.0,73,14.82,188,9.1,298.0,341.2,300.6
1001.8,104,24.7,19.8,74,14.65,188,9.3,297.6,340.3,300.3
1001.0,111,24.5,19.9,76,14.80,188,9.5,297.6,340.7,300.2
1000.2,119,24.5,20.0,76,14.90,188,9.7,297.6,341.0,300.3
1000.0,120,24.5,20.0,76,14.88,187,9.9,297.6,341.0,300.3
999.4,125,24.4,19.9,76,14.80,187,9.9,297.6,340.6,300.2
998.6,132,24.3,19.9,76,14.81,187,10.0,297.6,340.7,300.2
997.9,138,24.3,20.0,77,14.88,187,10.2,297.6,340.9,300.3
997.3,144,24.1,19.9,77,14.82,186,10.3,297.5,340.6,300.1
996.6,150,24.0,19.8,78,14.78,186,10.4,297.4,340.4,300.1
996.0,156,23.9,19.8,78,14.75,186,10.5,297.4,340.3,300.0
995.3,161,23.9,19.8,78,14.76,186,10.6,297.4,340.3,300.1
994.7,167,23.8,19.8,78,14.80,185,10.7,297.4,340.5,300.1
994.0,172,23.8,19.8,79,14.81,185,10.8,297.4,340.5,300.1
993.4,178,23.7,19.8,79,14.79,185,10.9,297.4,340.4,300.0
992.7,184,23.6,19.8,79,14.79,184,11.0,297.4,340.4,300.0
992.1,190,23.6,19.8,79,14.81,184,11.0,297.4,340.5,300.1
991.4,196,23.6,19.8,79,14.82,184,11.1,297.5,340.6,300.1
990.7,202,23.6,19.8,79,14.80,183,11.2,297.5,340.6,300.2
990.1,207,23.5,19.7,79,14.75,183,11.3,297.5,340.5,300.2
989.4,213,23.5,19.7,79,14.75,183,11.4,297.5,340.5,300.2
988.7,219,23.3,19.5,79,14.61,183,11.5,297.5,340.0,300.1
988.1,225,23.1,19.3,79,14.43,183,11.6,297.2,339.2,299.8
987.4,231,23.0,19.3,80,14.41,183,11.7,297.2,339.0,299.7
986.8,237,22.9,19.2,80,14.34,182,11.7,297.2,338.8,299.7
986.1,243,22.8,19.2,80,14.35,182,11.8,297.1,338.8,299.7
985.5,248,22.7,19.2,81,14.37,182,11.9,297.1,338.8,299.7
984.9,254,22.6,19.1,80,14.27,182,12.0,297.1,338.5,299.6
984.3,259,22.6,19.0,80,14.17,182,12.1,297.1,338.2,299.6
983.7,264,22.5,19.0,80,14.18,182,12.2,297.1,338.3,299.6
983.1,269,22.5,19.0,81,14.25,182,12.3,297.1,338.5,299.6
982.5,275,22.4,19.0,81,14.26,182,12.4,297.1,338.5,299.6
981.9,280,22.4,19.1,81,14.30,182,12.5,297.1,338.6,299.6
981.3,285,22.4,19.1,82,14.36,182,12.5,297.1,338.8,299.7
980.7,290,22.3,19.1,82,14.32,182,12.6,297.1,338.7,299.7
980.1,296,22.2,18.9,82,14.19,182,12.6,297.1,338.3,299.6
979.5,301,22.2,18.8,81,14.11,182,12.7,297.1,338.1,299.6
978.9,307,22.1,18.8,81,14.08,181,12.7,297.1,338.0,299.6
978.3,312,22.1,18.8,81,14.06,181,12.8,297.1,337.9,299.6
977.7,317,22.0,18.7,82,14.05,181,12.8,297.1,337.9,299.6
977.1,323,22.0,18.7,82,14.05,181,12.9,297.1,337.9,299.6
976.5,328,21.9,18.8,82,14.12,181,12.9,297.1,338.1,299.6
975.9,333,21.8,18.9,83,14.19,181,12.9,297.1,338.3,299.6
975.3,339,21.8,18.9,84,14.22,181,12.9,297.0,338.3,299.6
974.7,344,21.7,18.8,84,14.19,181,12.9,297.0,338.2,299.6
974.1,349,21.7,18.8,84,14.16,181,12.9,297.0,338.2,299.6
973.6,354,21.6,18.8,84,14.14,181,12.9,297.0,338.1,299.5
973.0,359,21.6,18.8,84,14.13,181,12.9,297.0,338.1,299.6
972.4,364,21.5,18.7,84,14.13,181,12.9,297.1,338.1,299.6
971.8,370,21.5,18.8,85,14.16,181,12.9,297.0,338.2,299.6
971.3,375,21.4,18.8,85,14.18,181,12.8,297.1,338.2,299.6
970.7,380,21.4,18.7,85,14.16,181,12.8,297.1,338.2,299.6
970.1,385,21.3,18.7,85,14.11,181,12.8,297.1,338.0,299.6
969.6,390,21.3,18.6,84,14.01,181,12.8,297.0,337.7,299.5
969.1,395,21.3,18.4,84,13.91,182,12.7,297.1,337.5,299.6
968.5,399,21.3,18.4,84,13.91,182,12.7,297.1,337.5,299.6
968.0,404,21.2,18.5,85,14.00,182,12.7,297.1,337.8,299.6
967.5,409,21.2,18.6,85,14.04,182,12.7,297.1,337.9,299.6
966.9,414,21.1,18.5,85,14.03,182,12.7,297.1,337.8,299.6
966.4,418,21.1,18.5,85,14.00,182,12.7,297.1,337.8,299.6
965.9,423,21.0,18.4,85,13.96,183,12.6,297.1,337.7,299.6
965.3,428,21.0,18.4,85,13.96,183,12.6,297.1,337.7,299.6
964.8,433,20.9,18.5,86,13.99,183,12.6,297.1,337.8,299.6
964.3,437,20.9,18.5,86,14.02,183,12.6,297.1,337.8,299.6
963.8,441,20.9,18.5,86,14.02,183,12.6,297.1,337.8,299.6
963.4,446,20.8,18.4,86,14.00,184,12.6,297.1,337.8,299.6
962.9,450,20.8,18.4,86,13.99,184,12.6,297.1,337.7,299.6
962.5,454,20.7,18.4,87,14.00,184,12.6,297.1,337.8,299.6
962.0,458,20.7,18.4,87,14.00,184,12.6,297.1,337.8,299.6
961.6,462,20.7,18.4,87,13.99,184,12.6,297.1,337.7,299.6
961.1,466,20.6,18.4,87,13.96,185,12.7,297.1,337.7,299.6
960.7,470,20.6,18.3,87,13.92,185,12.7,297.1,337.6,299.6
960.3,474,20.6,18.3,87,13.90,185,12.7,297.1,337.5,299.6
959.8,478,20.5,18.3,87,13.93,185,12.7,297.1,337.6,299.6
959.4,481,20.5,18.4,88,14.01,185,12.7,297.1,337.8,299.6
959.0,485,20.4,18.4,88,14.04,185,12.8,297.1,337.9,299.6
958.6,489,20.4,18.4,88,14.02,186,12.8,297.1,337.9,299.6
958.2,493,20.4,18.4,89,14.06,186,12.8,297.1,337.9,299.6
957.7,497,20.3,18.5,89,14.15,186,12.8,297.1,338.2,299.6
957.3,501,20.3,18.6,90,14.26,186,12.9,297.1,338.5,299.6
956.8,505,20.2,18.7,91,14.30,186,12.9,297.1,338.6,299.6
956.3,509,20.2,18.6,91,14.24,186,12.9,297.1,338.4,299.6
955.9,513,20.1,18.5,90,14.15,186,12.9,297.1,338.2,299.6
955.4,518,20.1,18.4,90,14.10,186,13.0,297.1,338.0,299.6
954.9,522,20.1,18.4,90,14.05,186,13.0,297.1,337.9,299.6
954.4,526,20.0,18.3,90,13.98,186,13.0,297.1,337.7,299.6
953.9,531,20.0,18.2,89,13.93,186,13.0,297.1,337.6,299.6
953.5,535,20.0,18.2,90,13.95,187,13.1,297.1,337.6,299.6
953.0,540,19.9,18.3,90,13.98,187,13.1,297.1,337.7,299.6
952.5,544,19.9,18.3,91,14.01,187,13.1,297.1,337.8,299.6
952.0,548,19.8,18.3,91,14.03,187,13.1,297.1,337.9,299.6
951.6,552,19.8,18.4,92,14.09,187,13.2,297.1,338.0,299.6
951.1,556,19.7,18.4,92,14.12,187,13.2,297.1,338.1,299.6
950.7,561,19.7,18.3,92,14.08,186,13.2,297.1,338.0,299.6
950.2,565,19.7,18.2,91,13.97,186,13.2,297.1,337.7,299.6
949.8,569,19.6,18.1,91,13.90,186,13.3,297.1,337.5,299.6
949.3,573,19.6,18.1,91,13.88,186,13.3,297.1,337.4,299.6
948.8,577,19.6,18.1,91,13.92,186,13.3,297.1,337.6,299.6
948.4,582,19.5,18.1,92,13.95,186,13.3,297.1,337.6,299.6
947.9,586,19.5,18.1,92,13.89,186,13.3,297.1,337.5,299.6
947.4,590,19.4,18.0,91,13.82,186,13.4,297.1,337.3,299.6
946.9,595,19.4,17.9,91,13.76,186,13.4,297.1,337.1,299.6
946.5,599,19.4,17.8,91,13.71,186,13.4,297.2,337.0,299.6
946.0,603,19.3,17.8,91,13.69,185,13.4,297.2,337.0,299.6
945.5,607,19.3,17.8,91,13.69,185,13.5,297.2,337.0,299.6
945.1,611,19.3,17.8,91,13.69,185,13.5,297.2,337.0,299.6
944.6,616,19.2,17.8,91,13.70,185,13.5,297.2,337.0,299.6
944.2,620,19.2,17.8,92,13.69,185,13.5,297.2,337.0,299.6
943.7,624,19.2,17.8,92,13.71,185,13.5,297.2,337.0,299.6
943.2,628,19.1,17.8,92,13.73,185,13.5,297.2,337.1,299.6
942.8,633,19.1,17.8,92,13.71,185,13.5,297.2,337.0,299.6
942.3,637,19.0,17.7,92,13.65,185,13.5,297.2,336.8,299.6
941.8,641,19.0,17.6,92,13.59,185,13.5,297.2,336.7,299.6
941.3,646,19.0,17.6,92,13.55,185,13.5,297.2,336.6,299.6
940.9,650,18.9,17.5,92,13.52,185,13.6,297.2,336.5,299.6
940.4,654,18.9,17.5,92,13.49,185,13.6,297.2,336.4,299.6
940.0,658,18.9,17.5,92,13.47,185,13.6,297.2,336.4,299.6
939.5,662,18.8,17.4,92,13.46,185,13.6,297.2,336.3,299.6
939.1,666,18.8,17.4,92,13.44,185,13.6,297.2,336.3,299.6
938.6,671,18.7,17.4,92,13.41,185,13.5,297.2,336.2,299.6
938.2,675,18.7,17.3,91,13.35,185,13.5,297.2,336.0,299.6
937.7,679,18.7,17.2,91,13.27,185,13.5,297.3,335.8,299.6
937.2,684,18.7,17.1,91,13.21,185,13.5,297.3,335.7,299.6
936.7,688,18.7,17.1,90,13.19,185,13.5,297.3,335.7,299.7
936.2,693,18.7,17.1,90,13.20,185,13.5,297.4,335.8,299.7
935.7,697,18.6,17.1,91,13.25,185,13.5,297.4,335.9,299.7
935.2,702,18.6,17.1,91,13.27,185,13.5,297.4,336.0,299.7
934.7,707,18.6,17.1,91,13.25,185,13.5,297.4,335.9,299.7
934.2,712,18.5,17.1,91,13.22,185,13.6,297.4,335.8,299.7
933.7,716,18.5,17.0,91,13.14,185,13.6,297.4,335.6,299.7
933.1,721,18.5,16.9,90,13.05,185,13.6,297.4,335.4,299.8
932.6,726,18.4,16.8,90,12.98,185,13.6,297.5,335.3,299.8
932.1,730,18.4,16.7,90,12.97,185,13.6,297.5,335.2,299.8
931.6,735,18.4,16.8,90,12.99,185,13.6,297.5,335.3,299.8
931.1,740,18.4,16.8,90,13.01,185,13.6,297.5,335.4,299.8
930.6,744,18.3,16.8,91,13.01,185,13.6,297.5,335.4,299.8
930.2,749,18.3,16.8,91,13.01,186,13.7,297.5,335.4,299.8
929.7,753,18.2,16.7,91,12.97,186,13.7,297.5,335.3,299.8
929.2,758,18.2,16.6,91,12.92,186,13.7,297.5,335.2,299.8
928.7,762,18.2,16.5,90,12.84,186,13.7,297.6,334.9,299.8
928.2,767,18.2,16.3,89,12.68,186,13.7,297.6,334.5,299.9
927.7,772,18.2,16.0,87,12.41,186,13.7,297.7,333.8,299.9
927.2,776,18.3,15.7,85,12.21,186,13.7,297.8,333.4,299.9
926.7,781,18.3,15.6,85,12.15,186,13.7,297.8,333.3,300.0
926.2,786,18.3,15.6,85,12.15,186,13.7,297.9,333.3,300.0
925.7,790,18.3,15.6,84,12.11,186,13.7,297.9,333.3,300.1
925.2,795,18.3,15.4,84,12.01,186,13.7,297.9,333.0,300.1
925.0,796,18.3,15.4,83,11.98,186,13.7,298.0,333.0,300.1
924.7,799,18.2,15.3,83,11.94,186,13.7,298.0,332.9,300.1
924.2,804,18.2,15.3,83,11.91,186,13.6,298.0,332.8,300.2
923.7,808,18.2,15.3,83,11.92,186,13.6,298.0,332.9,300.2
923.2,813,18.2,15.3,83,11.93,186,13.6,298.0,332.9,300.2
922.7,818,18.1,15.3,83,11.90,186,13.5,298.0,332.8,300.2
922.2,823,18.1,15.1,83,11.78,186,13.5,298.1,332.5,300.2
921.6,828,18.1,14.9,82,11.62,186,13.5,298.1,332.1,300.2
921.1,833,18.1,14.8,81,11.56,186,13.4,298.1,332.0,300.2
920.6,837,18.0,14.8,81,11.55,187,13.4,298.2,331.9,300.2
920.1,842,18.0,14.8,81,11.55,187,13.3,298.2,331.9,300.2
919.6,846,18.0,14.7,81,11.53,187,13.3,298.2,331.9,300.2
919.2,851,17.9,14.7,81,11.51,187,13.2,298.2,331.9,300.2
918.7,855,17.9,14.7,81,11.51,187,13.2,298.2,331.9,300.3
918.2,859,17.9,14.7,81,11.49,187,13.1,298.2,331.9,300.3
917.8,864,17.9,14.6,81,11.48,187,13.1,298.2,331.8,300.3
917.3,868,17.8,14.6,81,11.47,187,13.0,298.2,331.8,300.3
916.9,872,17.8,14.6,81,11.45,187,13.0,298.2,331.8,300.3
916.4,876,17.8,14.5,81,11.41,187,12.9,298.3,331.7,300.3
915.9,881,17.7,14.4,81,11.34,187,12.9,298.3,331.5,300.3
915.5,885,17.7,14.3,80,11.23,187,12.8,298.3,331.2,300.3
915.0,890,17.7,14.1,79,11.09,188,12.8,298.3,330.8,300.3
914.5,895,17.7,13.9,78,10.96,188,12.7,298.4,330.5,300.4
913.9,900,17.7,13.7,77,10.85,188,12.7,298.4,330.3,300.4
913.4,905,17.7,13.6,77,10.80,188,12.6,298.5,330.2,300.4
912.9,910,17.7,13.6,77,10.77,188,12.6,298.5,330.1,300.4
912.3,915,17.6,13.6,77,10.76,188,12.5,298.5,330.1,300.4
911.8,920,17.6,13.5,77,10.74,188,12.5,298.5,330.0,300.4
911.3,925,17.5,13.5,77,10.73,188,12.5,298.5,330.0,300.4
910.8,929,17.5,13.5,78,10.73,188,12.4,298.5,330.0,300.4
910.2,934,17.4,13.5,78,10.78,188,12.4,298.5,330.1,300.4
909.7,939,17.4,13.6,78,10.80,188,12.4,298.5,330.2,300.4
909.2,944,17.3,13.6,79,10.80,188,12.4,298.5,330.2,300.4
908.7,949,17.3,13.5,79,10.78,188,12.3,298.5,330.1,300.4
908.2,954,17.2,13.5,79,10.78,188,12.3,298.5,330.1,300.4
907.7,958,17.2,13.5,79,10.78,188,12.3,298.5,330.1,300.4
907.2,963,17.1,13.5,79,10.77,188,12.3,298.5,330.1,300.4
906.7,968,17.1,13.5,79,10.77,188,12.3,298.5,330.1,300.4
906.2,972,17.0,13.4,79,10.73,188,12.3,298.5,330.0,300.4
905.7,977,17.0,13.3,78,10.63,188,12.3,298.5,329.7,300.4
905.2,982,17.0,13.0,77,10.42,187,12.3,298.5,329.2,300.4
904.7,987,17.0,12.6,75,10.21,187,12.3,298.6,328.6,300.4
904.2,992,17.1,12.5,75,10.13,187,12.3,298.7,328.5,300.5
903.6,997,17.0,12.5,74,10.11,187,12.3,298.7,328.5,300.5
903.1,1001,17.0,12.4,74,10.07,186,12.3,298.7,328.4,300.5
902.6,1006,17.0,12.2,74,9.96,186,12.3,298.8,328.1,300.5
902.1,1011,17.0,12.0,73,9.83,186,12.3,298.8,327.7,300.5
901.6,1016,17.0,11.7,71,9.64,185,12.3,298.8,327.2,300.6
901.1,1021,17.0,11.4,70,9.45,185,12.3,298.9,326.8,300.6
900.6,1026,17.0,11.2,69,9.34,185,12.2,299.0,326.5,300.6
900.1,1030,17.0,11.2,69,9.30,185,12.2,299.0,326.5,300.7
899.6,1035,17.0,11.2,69,9.30,185,12.2,299.0,326.5,300.7
899.1,1040,16.9,11.1,69,9.29,185,12.2,299.0,326.5,300.7
898.6,1045,16.9,11.0,68,9.21,184,12.1,299.1,326.3,300.7
898.1,1049,16.9,10.9,68,9.18,184,12.1,299.1,326.3,300.8
897.6,1054,16.9,11.0,68,9.19,184,12.1,299.1,326.3,300.8
897.0,1059,16.8,10.9,68,9.14,184,12.0,299.1,326.1,300.8
896.5,1065,16.8,10.6,67,8.98,184,12.0,299.2,325.7,300.8
895.9,1070,16.8,10.1,65,8.70,184,11.9,299.2,325.0,300.8
895.3,1075,16.8,9.6,62,8.39,184,11.9,299.3,324.2,300.8
894.8,1081,16.8,9.3,61,8.25,185,11.9,299.3,323.8,300.8
894.2,1086,16.8,9.3,61,8.27,185,11.8,299.4,323.9,300.9
893.6,1092,16.8,9.4,62,8.30,185,11.8,299.4,324.0,300.9
893.1,1097,16.7,9.4,62,8.32,185,11.8,299.4,324.1,300.9
892.6,1102,16.7,9.4,62,8.32,185,11.7,299.4,324.1,300.9
892.1,1106,16.7,9.4,62,8.31,186,11.7,299.4,324.1,300.9
891.6,1111,16.6,9.3,62,8.30,186,11.7,299.4,324.1,300.9
891.1,1116,16.6,9.3,62,8.30,186,11.7,299.4,324.1,300.9
890.7,1120,16.5,9.3,62,8.30,186,11.7,299.4,324.1,300.9
890.2,1125,16.5,9.3,63,8.30,186,11.7,299.4,324.0,300.9
889.7,1129,16.4,9.3,63,8.28,187,11.7,299.4,324.0,300.9
889.2,1134,16.4,9.2,62,8.24,187,11.8,299.4,323.9,300.9
888.7,1139,16.4,9.1,62,8.20,187,11.8,299.4,323.8,300.9
888.2,1143,16.3,9.1,62,8.17,187,11.8,299.4,323.7,300.9
887.7,1148,16.3,9.0,62,8.13,187,11.9,299.4,323.6,300.9
887.2,1153,16.2,8.9,62,8.09,187,11.9,299.5,323.5,300.9
886.7,1158,16.2,8.8,61,8.04,187,12.0,299.5,323.4,300.9
886.3,1162,16.2,8.7,61,8.01,187,12.0,299.5,323.3,300.9
885.8,1167,16.2,8.8,62,8.03,188,12.1,299.5,323.4,301.0
885.3,1172,16.1,8.9,62,8.10,188,12.1,299.5,323.6,301.0
884.8,1176,16.1,9.0,63,8.19,188,12.2,299.6,323.9,301.0
884.3,1181,16.1,9.2,64,8.27,188,12.2,299.6,324.1,301.1
883.8,1186,16.1,9.3,64,8.33,188,12.3,299.6,324.3,301.1
883.2,1191,16.0,9.2,64,8.32,188,12.4,299.6,324.3,301.1
882.7,1197,16.0,9.1,64,8.26,188,12.4,299.7,324.2,301.2
882.1,1202,16.0,9.0,63,8.19,188,12.5,299.7,324.0,301.2
881.6,1207,16.0,8.9,63,8.15,188,12.5,299.7,323.9,301.2
881.0,1213,15.9,8.9,63,8.14,188,12.5,299.7,323.9,301.2
880.4,1219,15.9,8.9,63,8.14,188,12.6,299.7,323.9,301.2
879.8,1224,15.8,8.8,63,8.11,188,12.6,299.7,323.9,301.2
879.2,1230,15.8,8.7,63,8.07,188,12.6,299.7,323.8,301.2
878.6,1236,15.7,8.7,63,8.06,188,12.7,299.8,323.7,301.2
878.0,1242,15.7,8.7,63,8.05,189,12.7,299.8,323.7,301.2
877.4,1248,15.6,8.7,63,8.06,189,12.7,299.8,323.8,301.2
876.8,1253,15.6,8.7,64,8.09,189,12.7,299.8,323.9,301.3
876.2,1259,15.6,8.7,64,8.10,189,12.7,299.8,324.0,301.3
875.7,1265,15.5,8.7,64,8.11,190,12.7,299.8,324.0,301.3
875.1,1270,15.5,8.8,64,8.12,190,12.7,299.8,324.0,301.3
874.5,1276,15.4,8.8,64,8.13,190,12.7,299.8,324.0,301.3
873.8,1282,15.4,8.8,65,8.14,190,12.7,299.8,324.0,301.3
873.3,1288,15.3,8.7,65,8.12,191,12.7,299.8,324.0,301.3
872.7,1293,15.2,8.7,65,8.10,191,12.7,299.8,323.9,301.3
872.1,1299,15.2,8.6,65,8.07,191,12.7,299.8,323.9,301.3
871.6,1304,15.2,8.6,65,8.08,192,12.6,299.8,323.9,301.3
871.1,1309,15.1,8.7,65,8.11,192,12.6,299.8,324.0,301.3
870.6,1314,15.0,8.7,66,8.14,192,12.6,299.8,324.0,301.3
870.1,1319,15.0,8.7,66,8.14,192,12.5,299.8,324.1,301.3
869.6,1323,15.0,8.7,66,8.14,193,12.4,299.8,324.1,301.3
869.1,1328,14.9,8.7,66,8.14,193,12.4,299.8,324.0,301.3
868.6,1333,14.9,8.7,66,8.14,193,12.3,299.8,324.1,301.3
868.0,1339,14.8,8.7,67,8.14,193,12.2,299.9,324.1,301.3
867.5,1344,14.8,8.6,67,8.13,193,12.1,299.9,324.1,301.3
866.9,1349,14.8,8.6,67,8.12,194,12.0,299.9,324.1,301.4
866.3,1355,14.7,8.6,67,8.13,194,11.9,299.9,324.1,301.4
865.7,1361,14.7,8.6,67,8.15,194,11.8,299.9,324.2,301.4
865.1,1367,14.6,8.7,68,8.16,194,11.7,299.9,324.2,301.4
864.5,1374,14.5,8.6,68,8.16,194,11.5,299.9,324.2,301.4
863.9,1380,14.5,8.6,68,8.16,194,11.4,299.9,324.2,301.4
863.3,1385,14.4,8.6,68,8.17,194,11.3,299.9,324.2,301.4
862.7,1391,14.4,8.6,68,8.17,194,11.2,299.9,324.3,301.4
862.2,1396,14.4,8.7,69,8.20,194,11.1,300.0,324.4,301.4
861.7,1401,14.3,8.7,69,8.25,194,11.0,300.0,324.5,301.5
861.2,1405,14.3,8.8,69,8.27,194,10.9,300.0,324.6,301.5
860.8,1410,14.3,8.8,70,8.29,194,10.8,300.0,324.7,301.5
860.3,1414,14.2,8.9,70,8.34,194,10.8,300.0,324.8,301.5
859.9,1419,14.2,9.0,71,8.43,193,10.7,300.0,325.1,301.5
859.4,1423,14.1,9.2,72,8.52,193,10.7,300.0,325.3,301.5
858.9,1428,14.1,9.2,72,8.55,193,10.6,300.0,325.4,301.6
858.5,1433,14.1,9.1,72,8.49,193,10.6,300.0,325.3,301.6
858.0,1437,14.0,8.9,71,8.36,193,10.6,300.0,324.9,301.5
857.4,1443,14.0,8.6,70,8.21,193,10.6,300.1,324.5,301.6
856.9,1448,14.0,8.3,68,8.03,193,10.6,300.1,324.0,301.6
856.4,1453,14.0,8.1,67,7.92,193,10.7,300.2,323.8,301.6
855.8,1459,14.0,8.3,68,8.05,193,10.7,300.2,324.2,301.7
855.2,1464,14.0,8.9,72,8.42,193,10.7,300.3,325.3,301.8
854.6,1470,13.9,9.3,74,8.66,192,10.8,300.3,326.0,301.8
854.0,1476,13.9,9.3,74,8.66,192,10.8,300.3,326.0,301.8
853.4,1482,13.8,9.2,74,8.60,192,10.9,300.3,325.8,301.8
852.8,1488,13.8,9.0,73,8.51,192,11.0,300.3,325.6,301.8
852.2,1494,13.7,8.7,72,8.32,192,11.0,300.3,325.1,301.8
851.6,1500,13.7,8.3,70,8.07,192,11.1,300.3,324.4,301.8
851.1,1505,13.7,7.9,68,7.86,192,11.1,300.4,323.8,301.8
850.6,1510,13.7,7.6,66,7.71,192,11.2,300.4,323.5,301.8
850.1,1515,13.7,7.3,65,7.54,192,11.2,300.5,323.0,301.8
850.0,1516,13.7,7.2,65,7.52,191,11.3,300.5,323.0,301.8
849.6,1520,13.7,6.9,64,7.39,191,11.3,300.5,322.6,301.9
849.1,1525,13.7,6.7,63,7.28,191,11.3,300.6,322.4,301.9
848.7,1529,13.7,6.6,62,7.22,191,11.4,300.6,322.2,301.9
848.2,1534,13.7,6.5,62,7.20,191,11.4,300.6,322.2,301.9
847.7,1539,13.6,6.6,62,7.21,191,11.4,300.6,322.3,302.0
847.2,1544,13.6,6.6,63,7.24,191,11.4,300.6,322.3,301.9
846.7,1549,13.5,6.6,63,7.23,190,11.4,300.6,322.3,301.9
846.2,1554,13.5,6.5,63,7.18,190,11.4,300.6,322.2,301.9
845.7,1559,13.4,6.4,62,7.12,190,11.5,300.6,322.0,301.9
845.1,1565,13.4,6.3,62,7.08,190,11.5,300.6,321.9,301.9
844.6,1570,13.3,6.2,62,7.03,190,11.4,300.6,321.8,301.9
844.0,1576,13.3,6.0,61,6.98,190,11.4,300.6,321.6,301.9
843.5,1581,13.2,6.0,62,6.97,189,11.4,300.6,321.5,301.9
842.9,1587,13.2,6.1,62,7.01,189,11.4,300.6,321.7,301.9
842.3,1593,13.1,6.1,62,7.01,189,11.4,300.6,321.7,301.9
841.8,1598,13.1,6.0,62,6.96,189,11.4,300.7,321.6,301.9
841.2,1604,13.0,5.8,61,6.87,189,11.4,300.7,321.3,301.9
840.7,1609,13.0,5.6,61,6.78,189,11.4,300.7,321.1,301.9
840.1,1615,13.0,5.3,60,6.68,188,11.4,300.7,320.8,301.9
839.6,1620,13.0,5.1,59,6.58,188,11.4,300.8,320.6,302.0
839.0,1626,12.9,4.9,58,6.50,188,11.4,300.8,320.4,302.0
838.5,1631,12.9,4.8,58,6.46,188,11.3,300.8,320.3,302.0
837.9,1636,12.9,4.9,58,6.48,188,11.3,300.8,320.4,302.0
837.4,1642,12.8,4.9,59,6.51,188,11.3,300.8,320.4,302.0
836.9,1647,12.8,5.0,59,6.53,188,11.3,300.8,320.5,302.0
836.4,1651,12.7,5.0,59,6.55,188,11.3,300.8,320.6,302.0
836.0,1656,12.7,5.1,60,6.60,188,11.3,300.8,320.7,302.0
835.5,1661,12.6,5.5,62,6.80,188,11.3,300.8,321.3,302.1
835.0,1666,12.6,5.9,64,6.99,188,11.3,300.8,321.8,302.1
834.5,1671,12.5,6.0,64,7.04,188,11.3,300.8,322.0,302.1
834.0,1676,12.5,5.9,64,7.02,188,11.3,300.8,321.9,302.1
833.4,1682,12.4,5.9,65,7.03,188,11.3,300.8,321.9,302.1
832.9,1687,12.4,6.0,65,7.05,188,11.3,300.8,322.0,302.1
832.4,1693,12.4,6.0,65,7.04,188,11.3,300.9,322.0,302.2
831.8,1698,12.3,5.9,65,7.01,188,11.3,300.9,322.0,302.2
831.2,1704,12.3,5.8,64,6.96,188,11.3,300.9,321.9,302.2
830.7,1710,12.3,5.6,64,6.90,188,11.3,301.0,321.7,302.2
830.1,1715,12.2,5.6,64,6.87,188,11.4,301.0,321.6,302.2
829.5,1721,12.2,5.6,64,6.87,188,11.4,301.0,321.7,302.3
828.9,1727,12.2,5.6,64,6.89,188,11.4,301.0,321.7,302.3
828.4,1733,12.1,5.7,65,6.94,188,11.5,301.0,321.9,302.3
827.8,1739,12.0,5.7,65,6.96,189,11.5,301.0,321.9,302.3
827.2,1745,12.0,5.6,65,6.93,189,11.5,301.0,321.8,302.3
826.6,1751,11.9,5.5,65,6.88,189,11.6,301.0,321.7,302.3
826.0,1757,11.9,5.5,65,6.85,189,11.6,301.1,321.7,302.3
825.5,1762,11.9,5.4,65,6.83,189,11.7,301.1,321.6,302.3
825.0,1768,11.8,5.4,65,6.83,190,11.8,301.1,321.6,302.3
824.4,1773,11.8,5.4,65,6.83,190,11.8,301.1,321.6,302.3
823.9,1778,11.7,5.3,65,6.79,190,11.9,301.1,321.5,302.3
823.4,1783,11.7,5.1,64,6.72,190,12.0,301.1,321.3,302.3
822.9,1789,11.6,5.0,64,6.66,191,12.1,301.1,321.2,302.3
822.4,1794,11.6,4.9,64,6.63,191,12.1,301.1,321.1,302.3
821.9,1798,11.6,4.9,64,6.62,191,12.2,301.1,321.1,302.3
821.5,1803,11.5,4.9,64,6.61,192,12.3,301.1,321.0,302.3
