PRES,HGHT,TEMP,DWPT,RELH,MIXR,DRCT,SPED,THTA,THTE,THTV
1012.3,31,18.3,16.1,87,11.45,299,2.6,290.4,322.8,292.4
1011.7,35,19.4,15.8,80,11.23,330,1.7,291.5,323.5,293.5
1011.0,42,20.6,16.2,76,11.53,339,1.8,292.8,325.8,294.8
1010.2,48,21.2,16.2,73,11.50,342,2.0,293.5,326.5,295.6
1009.9,51,21.4,16.0,71,11.37,343,2.2,293.7,326.4,295.7
1009.3,56,21.7,16.1,71,11.45,344,2.4,294.0,326.9,296.0
1008.6,62,21.7,16.1,70,11.48,345,2.6,294.2,327.2,296.2
1008.0,67,21.7,16.1,70,11.49,346,2.9,294.2,327.3,296.3
1007.4,73,21.8,16.2,70,11.57,347,3.1,294.4,327.7,296.4
1006.8,78,21.9,16.3,70,11.63,348,3.3,294.5,328.0,296.5
1006.2,83,21.9,16.2,70,11.60,349,3.6,294.5,328.0,296.6
1005.6,88,22.0,16.2,70,11.62,350,3.8,294.7,328.2,296.7
1005.0,93,22.2,16.3,69,11.66,351,4.1,294.9,328.5,297.0
1004.4,98,22.3,16.3,69,11.68,352,4.3,295.0,328.8,297.1
1003.8,103,22.3,16.3,69,11.68,352,4.5,295.1,328.8,297.2
1003.2,109,22.3,16.3,69,11.68,353,4.8,295.1,328.9,297.2
1002.6,114,22.3,16.3,69,11.71,354,5.0,295.2,329.0,297.3
1002.0,119,22.3,16.3,69,11.72,354,5.2,295.3,329.2,297.4
1001.4,125,22.4,16.3,69,11.73,355,5.4,295.4,329.3,297.5
1000.7,131,22.4,16.3,69,11.74,356,5.6,295.5,329.4,297.6
1000.0,137,22.3,16.3,69,11.74,357,6.0,295.5,329.4,297.6
999.4,142,22.3,16.3,69,11.73,357,6.0,295.5,329.4,297.6
998.7,148,22.2,16.3,69,11.74,357,6.2,295.5,329.4,297.6
998.0,154,22.2,16.3,69,11.75,358,6.3,295.5,329.5,297.6
997.4,160,22.1,16.3,69,11.74,358,6.5,295.5,329.5,297.6
996.7,166,22.1,16.3,70,11.75,359,6.6,295.5,329.5,297.6
996.0,171,22.1,16.3,70,11.78,359,6.7,295.6,329.7,297.7
995.4,177,22.1,16.3,70,11.80,360,6.8,295.6,329.8,297.7
994.7,183,22.1,16.3,70,11.81,360,6.9,295.6,329.8,297.7
994.1,189,22.0,16.3,70,11.81,1,7.0,295.6,329.8,297.7
993.4,194,22.0,16.3,70,11.81,1,7.1,295.7,329.8,297.8
992.8,200,21.9,16.3,70,11.80,2,7.2,295.7,329.9,297.8
992.2,205,21.9,16.3,70,11.81,2,7.2,295.7,329.9,297.8
991.6,210,21.9,16.3,71,11.81,3,7.3,295.7,329.9,297.8
991.0,216,21.8,16.3,71,11.81,3,7.3,295.7,329.9,297.8
990.4,221,21.8,16.2,71,11.81,4,7.3,295.7,329.9,297.8
989.8,226,21.8,16.3,71,11.84,4,7.4,295.8,330.1,297.9
989.2,231,21.8,16.3,71,11.86,5,7.4,295.8,330.2,297.9
988.6,236,21.7,16.3,71,11.84,5,7.4,295.8,330.1,298.0
988.0,241,21.7,16.2,71,11.82,6,7.4,295.8,330.1,297.9
987.4,247,21.6,16.2,71,11.80,6,7.4,295.8,330.0,297.9
986.9,252,21.6,16.2,71,11.78,7,7.5,295.8,330.0,297.9
986.3,257,21.5,16.1,71,11.78,7,7.5,295.8,330.0,297.9
985.8,261,21.5,16.2,72,11.80,8,7.5,295.9,330.0,298.0
985.3,266,21.5,16.2,72,11.81,8,7.5,295.9,330.1,298.0
984.8,270,21.4,16.2,72,11.81,9,7.5,295.9,330.1,298.0
984.2,275,21.4,16.2,72,11.83,9,7.5,295.9,330.2,298.0
983.7,280,21.4,16.2,73,11.86,9,7.6,295.9,330.3,298.0
983.1,285,21.3,16.2,73,11.90,10,7.6,295.9,330.3,298.0
982.6,290,21.2,16.3,73,11.91,10,7.6,295.9,330.4,298.0
982.0,295,21.2,16.2,73,11.91,10,7.6,295.9,330.4,298.0
981.4,300,21.1,16.2,73,11.89,10,7.7,295.9,330.3,298.0
980.9,305,21.1,16.2,74,11.88,11,7.7,295.8,330.3,298.0
980.3,310,21.0,16.2,74,11.87,11,7.7,295.9,330.2,298.0
979.7,315,21.0,16.1,74,11.86,11,7.7,295.9,330.2,298.0
979.2,320,21.0,16.1,74,11.84,11,7.8,295.9,330.2,298.0
978.6,325,20.9,16.1,74,11.80,11,7.8,295.9,330.1,298.0
978.0,330,20.9,16.0,74,11.77,11,7.8,295.9,330.0,298.0
977.5,335,20.8,16.0,74,11.75,11,7.9,295.9,330.0,298.0
976.9,340,20.8,16.0,74,11.76,12,7.9,295.9,330.0,298.0
976.3,345,20.7,15.9,74,11.75,12,7.9,295.9,330.0,298.0
975.8,350,20.7,16.0,74,11.77,12,8.0,295.9,330.1,298.0
975.3,354,20.7,16.0,74,11.81,12,8.0,296.0,330.2,298.1
974.7,359,20.7,16.0,74,11.82,12,8.0,296.0,330.3,298.1
974.2,364,20.7,16.0,75,11.84,12,8.1,296.0,330.4,298.1
973.7,369,20.6,16.0,75,11.83,12,8.1,296.0,330.3,298.1
973.1,373,20.6,16.0,75,11.81,12,8.2,296.0,330.3,298.1
972.6,378,20.5,15.9,75,11.79,12,8.2,296.0,330.2,298.1
972.0,383,20.5,15.9,75,11.80,12,8.2,296.0,330.2,298.1
971.5,388,20.4,15.9,75,11.81,12,8.3,296.0,330.3,298.1
970.9,393,20.4,15.9,76,11.80,12,8.3,296.0,330.2,298.1
970.3,398,20.4,15.9,76,11.78,12,8.4,296.0,330.2,298.1
969.8,403,20.3,15.9,76,11.78,12,8.4,296.0,330.2,298.1
969.2,408,20.3,15.9,76,11.80,12,8.4,296.0,330.2,298.1
968.6,414,20.2,15.9,76,11.81,12,8.5,296.0,330.3,298.1
968.0,419,20.2,15.9,76,11.81,12,8.5,296.0,330.3,298.1
967.5,424,20.1,15.9,77,11.82,12,8.6,296.0,330.3,298.1
966.9,429,20.1,15.9,77,11.84,12,8.6,296.0,330.4,298.1
966.3,434,20.0,15.9,77,11.86,12,8.6,296.0,330.4,298.2
965.8,439,20.0,15.9,78,11.88,12,8.7,296.0,330.5,298.2
965.2,444,19.9,15.9,78,11.89,12,8.7,296.1,330.5,298.2
964.7,449,19.9,15.9,78,11.87,12,8.7,296.0,330.4,298.2
964.1,454,19.8,15.9,78,11.87,12,8.7,296.1,330.5,298.2
963.6,458,19.8,15.9,78,11.89,12,8.8,296.1,330.5,298.2
963.1,463,19.8,15.9,79,11.91,12,8.8,296.1,330.6,298.2
962.5,468,19.7,16.0,79,11.96,12,8.8,296.1,330.7,298.2
961.9,473,19.7,16.0,80,12.00,12,8.8,296.1,330.9,298.2
961.4,478,19.6,16.0,80,11.98,12,8.8,296.1,330.8,298.2
960.8,484,19.6,15.9,79,11.93,12,8.8,296.1,330.7,298.2
960.2,489,19.6,15.9,79,11.89,12,8.8,296.1,330.6,298.2
959.7,494,19.5,15.8,79,11.85,12,8.8,296.1,330.5,298.2
959.1,499,19.5,15.7,79,11.80,12,8.8,296.2,330.4,298.3
958.6,504,19.5,15.6,78,11.71,12,8.8,296.2,330.2,298.3
958.0,509,19.5,15.4,77,11.59,12,8.8,296.2,329.9,298.3
957.4,514,19.5,15.2,76,11.40,13,8.8,296.3,329.4,298.3
956.8,520,19.5,14.9,75,11.23,13,8.8,296.4,329.0,298.4
956.2,525,19.5,14.8,74,11.13,13,8.8,296.4,328.8,298.4
955.5,531,19.5,14.7,74,11.10,13,8.7,296.4,328.7,298.4
954.9,537,19.4,14.7,74,11.08,13,8.7,296.4,328.7,298.4
954.3,542,19.4,14.7,74,11.07,13,8.6,296.5,328.6,298.4
953.7,548,19.3,14.7,74,11.07,14,8.6,296.5,328.7,298.4
953.0,553,19.3,14.7,75,11.10,14,8.5,296.5,328.8,298.4
952.4,559,19.2,14.7,75,11.10,14,8.5,296.5,328.8,298.5
951.8,565,19.2,14.7,75,11.10,14,8.4,296.5,328.8,298.5
951.2,570,19.1,14.7,75,11.10,15,8.3,296.5,328.8,298.5
950.6,576,19.1,14.7,75,11.09,15,8.2,296.5,328.8,298.5
949.9,582,19.0,14.6,75,11.07,15,8.1,296.5,328.7,298.5
949.3,587,19.0,14.6,75,11.05,16,8.0,296.5,328.7,298.5
948.8,592,19.0,14.5,75,11.04,16,7.9,296.6,328.7,298.5
948.2,597,19.0,14.5,75,11.02,16,7.8,296.6,328.7,298.6
947.6,602,18.9,14.5,76,11.04,17,7.7,296.6,328.8,298.6
947.1,607,18.9,14.6,76,11.08,17,7.6,296.6,328.9,298.6
946.6,612,18.9,14.6,76,11.12,18,7.5,296.6,329.0,298.6
946.0,617,18.8,14.7,77,11.19,18,7.4,296.6,329.2,298.6
945.5,622,18.8,14.8,78,11.26,19,7.3,296.6,329.4,298.6
944.9,627,18.7,14.9,78,11.32,19,7.2,296.6,329.6,298.7
944.4,632,18.7,14.9,78,11.33,20,7.1,296.7,329.6,298.7
943.8,637,18.7,14.9,79,11.32,20,6.9,296.7,329.6,298.7
943.3,642,18.6,14.8,79,11.32,20,6.8,296.7,329.6,298.7
942.7,647,18.6,14.8,79,11.29,21,6.7,296.7,329.5,298.7
942.2,652,18.6,14.8,79,11.29,21,6.6,296.7,329.6,298.7
941.7,656,18.6,14.8,79,11.29,21,6.5,296.7,329.6,298.8
941.3,661,18.6,14.8,79,11.30,21,6.5,296.8,329.7,298.8
940.8,665,18.6,14.8,79,11.32,21,6.4,296.8,329.8,298.9
940.3,669,18.6,14.8,79,11.32,21,6.3,296.9,329.8,298.9
939.9,673,18.5,14.8,79,11.31,21,6.2,296.9,329.8,298.9
939.5,677,18.5,14.7,79,11.29,21,6.2,296.9,329.8,298.9
939.0,681,18.5,14.7,78,11.24,21,6.1,296.9,329.7,298.9
938.6,685,18.5,14.6,78,11.19,21,6.1,297.0,329.6,299.0
938.1,689,18.5,14.5,78,11.15,20,6.1,297.0,329.5,299.0
937.7,694,18.4,14.5,78,11.14,20,6.1,297.0,329.4,299.0
937.2,698,18.4,14.5,78,11.15,19,6.1,297.0,329.5,299.0
936.7,702,18.4,14.5,78,11.15,19,6.1,297.0,329.5,299.0
936.2,706,18.3,14.5,78,11.14,18,6.1,297.0,329.5,299.0
935.8,711,18.3,14.4,78,11.11,18,6.1,297.0,329.4,299.0
935.2,716,18.2,14.4,78,11.07,17,6.2,297.0,329.3,299.0
934.7,721,18.2,14.3,78,11.04,17,6.3,297.0,329.2,299.0
934.1,726,18.2,14.3,78,11.03,17,6.3,297.0,329.2,299.0
933.5,732,18.1,14.3,78,11.04,16,6.4,297.1,329.3,299.0
932.9,737,18.1,14.3,78,11.02,16,6.5,297.1,329.2,299.1
932.2,743,18.1,14.2,78,10.97,16,6.6,297.1,329.1,299.1
931.6,749,18.0,14.1,78,10.93,16,6.7,297.1,329.0,299.1
930.9,755,18.0,14.1,78,10.92,16,6.8,297.2,329.0,299.1
930.3,761,18.0,14.1,78,10.90,16,6.8,297.2,329.0,299.1
929.6,767,17.9,14.0,78,10.87,17,6.9,297.2,328.9,299.1
929.0,773,17.9,13.9,77,10.82,17,7.0,297.2,328.8,299.2
928.4,779,17.9,13.8,77,10.77,17,7.1,297.3,328.8,299.2
927.8,784,17.9,13.8,77,10.75,18,7.2,297.3,328.7,299.2
927.2,789,17.8,13.8,77,10.75,18,7.3,297.3,328.7,299.3
926.7,794,17.8,13.8,77,10.74,19,7.4,297.3,328.7,299.2
926.2,799,17.7,13.8,77,10.74,20,7.4,297.3,328.7,299.3
925.7,804,17.7,13.8,78,10.76,20,7.5,297.3,328.8,299.3
925.2,809,17.7,13.8,78,10.78,21,7.5,297.3,328.8,299.3
925.0,810,17.7,13.8,78,10.79,22,7.6,297.4,328.9,299.3
924.7,813,17.6,13.8,78,10.80,22,7.6,297.3,328.9,299.3
924.2,818,17.6,13.8,78,10.77,22,7.6,297.4,328.8,299.3
923.7,822,17.6,13.7,78,10.75,23,7.6,297.4,328.8,299.3
923.2,827,17.5,13.7,78,10.74,24,7.6,297.4,328.7,299.3
922.7,831,17.5,13.7,78,10.71,24,7.6,297.4,328.7,299.3
922.3,836,17.5,13.6,78,10.69,25,7.6,297.4,328.6,299.3
921.8,840,17.5,13.6,78,10.68,25,7.6,297.4,328.7,299.4
921.3,844,17.4,13.6,78,10.70,26,7.5,297.5,328.7,299.4
920.8,849,17.4,13.7,79,10.74,26,7.5,297.5,328.9,299.4
920.4,853,17.4,13.7,79,10.77,26,7.4,297.5,329.0,299.4
919.9,857,17.4,13.7,79,10.80,26,7.3,297.5,329.1,299.5
919.4,862,17.3,13.8,79,10.82,26,7.2,297.5,329.2,299.5
919.0,866,17.3,13.7,80,10.81,25,7.1,297.5,329.2,299.5
918.5,871,17.3,13.7,80,10.79,25,7.0,297.5,329.1,299.5
918.0,875,17.2,13.7,80,10.78,24,6.9,297.6,329.1,299.5
917.5,880,17.2,13.7,80,10.78,24,6.8,297.6,329.1,299.5
917.0,884,17.2,13.7,80,10.77,23,6.7,297.6,329.1,299.5
916.5,889,17.1,13.6,80,10.77,22,6.6,297.6,329.1,299.5
916.1,893,17.1,13.6,80,10.75,21,6.5,297.6,329.0,299.5
915.6,898,17.0,13.6,80,10.72,20,6.4,297.6,328.9,299.5
915.1,902,17.0,13.5,80,10.68,18,6.3,297.6,328.8,299.5
914.6,907,17.0,13.4,80,10.65,17,6.2,297.6,328.8,299.5
914.1,912,17.0,13.4,80,10.63,15,6.1,297.6,328.7,299.5
913.6,917,16.9,13.4,80,10.61,14,6.1,297.7,328.7,299.6
913.0,922,16.9,13.3,79,10.58,12,6.0,297.7,328.7,299.6
912.4,927,16.9,13.2,79,10.52,11,5.9,297.7,328.5,299.6
911.8,933,16.9,13.1,78,10.41,10,5.9,297.8,328.3,299.7
911.2,939,17.0,12.8,77,10.28,8,5.8,297.9,328.0,299.8
910.5,945,17.0,12.7,76,10.16,7,5.8,298.0,327.8,299.8
909.8,952,16.9,12.5,75,10.04,6,5.7,298.0,327.4,299.8
909.1,958,16.9,12.2,74,9.88,5,5.7,298.1,327.1,299.8
908.4,965,16.9,12.0,73,9.74,4,5.6,298.1,326.7,299.9
907.8,971,16.9,11.8,72,9.65,3,5.6,298.1,326.5,299.9
907.2,977,16.9,11.8,72,9.61,3,5.5,298.2,326.4,299.9
906.6,982,16.8,11.8,72,9.66,2,5.5,298.2,326.6,299.9
906.0,988,16.8,12.0,74,9.78,2,5.4,298.2,326.9,299.9
905.5,993,16.7,12.2,75,9.94,1,5.4,298.2,327.4,300.0
904.9,998,16.6,12.5,77,10.14,1,5.3,298.2,327.9,300.0
904.4,1002,16.6,12.8,78,10.33,1,5.2,298.2,328.5,300.0
903.9,1007,16.5,12.9,79,10.37,1,5.2,298.2,328.6,300.0
903.5,1012,16.5,12.8,79,10.33,1,5.1,298.1,328.4,300.0
903.0,1016,16.4,12.8,79,10.31,1,5.0,298.1,328.4,300.0
902.5,1021,16.4,12.8,79,10.31,1,4.9,298.2,328.4,300.0
902.0,1025,16.4,12.8,79,10.33,1,4.8,298.2,328.5,300.0
901.5,1030,16.3,12.8,80,10.34,1,4.7,298.2,328.5,300.0
901.0,1034,16.3,12.7,80,10.32,1,4.6,298.2,328.4,300.0
900.5,1039,16.2,12.7,79,10.28,1,4.6,298.2,328.3,300.0
900.1,1044,16.2,12.6,79,10.23,1,4.5,298.2,328.2,300.0
899.6,1048,16.2,12.5,79,10.18,1,4.4,298.2,328.1,300.1
899.1,1052,16.2,12.3,78,10.07,1,4.3,298.2,327.8,300.1
898.7,1057,16.2,12.1,77,9.91,1,4.2,298.3,327.4,300.1
898.3,1061,16.2,11.9,76,9.82,1,4.1,298.4,327.2,300.1
897.8,1065,16.2,11.9,75,9.77,360,4.0,298.4,327.1,300.2
897.4,1069,16.2,11.8,75,9.70,360,4.0,298.4,327.0,300.2
897.0,1073,16.2,11.7,75,9.64,360,3.9,298.4,326.8,300.2
896.5,1077,16.2,11.6,75,9.63,359,3.8,298.5,326.8,300.2
896.0,1082,16.1,11.6,75,9.63,358,3.7,298.5,326.8,300.2
895.6,1086,16.1,11.5,74,9.58,358,3.7,298.5,326.7,300.2
895.1,1091,16.1,11.4,74,9.48,357,3.6,298.5,326.4,300.2
894.6,1095,16.1,11.2,73,9.41,356,3.6,298.6,326.3,300.2
894.2,1100,16.0,11.1,72,9.29,356,3.5,298.5,325.9,300.2
893.7,1104,16.0,10.7,71,9.10,355,3.4,298.6,325.5,300.3
893.3,1108,16.0,10.5,70,8.94,354,3.4,298.7,325.0,300.3
892.8,1112,16.0,10.1,68,8.75,354,3.3,298.7,324.6,300.3
892.4,1117,16.1,9.7,66,8.51,353,3.3,298.8,324.0,300.3
891.9,1121,16.1,9.5,65,8.39,352,3.2,298.9,323.7,300.4
891.4,1126,16.1,9.5,65,8.38,352,3.2,298.9,323.7,300.4
891.0,1130,16.1,9.5,65,8.38,351,3.1,298.9,323.8,300.4
890.5,1135,16.0,9.4,65,8.35,351,3.1,298.9,323.7,300.4
890.0,1139,16.0,9.4,65,8.34,351,3.0,299.0,323.7,300.5
889.6,1144,16.0,9.4,65,8.33,350,3.0,299.0,323.7,300.5
889.1,1148,16.0,9.3,65,8.31,350,2.9,299.0,323.6,300.5
888.6,1153,16.0,9.2,64,8.26,350,2.9,299.0,323.5,300.5
888.1,1157,15.9,9.2,64,8.23,350,2.8,299.1,323.5,300.5
887.7,1162,15.9,9.1,64,8.21,350,2.7,299.1,323.4,300.6
887.2,1166,15.9,9.1,64,8.19,351,2.7,299.1,323.4,300.6
886.7,1171,15.9,9.1,64,8.21,351,2.6,299.1,323.5,300.6
886.2,1176,15.9,9.2,65,8.27,352,2.6,299.2,323.7,300.7
885.7,1181,15.8,9.3,65,8.35,352,2.5,299.2,323.9,300.7
885.2,1186,15.8,9.5,66,8.45,353,2.4,299.2,324.2,300.7
884.6,1191,15.8,9.6,67,8.54,354,2.4,299.2,324.5,300.7
884.0,1196,15.7,9.7,68,8.60,355,2.3,299.2,324.7,300.8
883.5,1202,15.7,9.8,68,8.66,355,2.3,299.2,324.9,300.8
882.9,1208,15.6,9.9,69,8.73,356,2.2,299.2,325.1,300.8
882.3,1213,15.6,10.1,70,8.81,357,2.2,299.2,325.3,300.8
881.7,1219,15.5,10.2,70,8.89,358,2.1,299.3,325.6,300.9
881.1,1225,15.5,10.3,71,8.97,360,2.1,299.3,325.8,300.9
880.5,1231,15.5,10.4,72,9.03,1,2.1,299.3,326.0,300.9
879.9,1237,15.4,10.4,72,9.06,2,2.0,299.3,326.1,301.0
879.3,1242,15.4,10.4,72,9.04,3,2.0,299.3,326.1,301.0
878.7,1248,15.4,10.3,72,9.00,4,2.0,299.4,326.0,301.0
878.1,1254,15.3,10.3,72,8.98,5,2.0,299.4,326.0,301.0
877.5,1260,15.3,10.3,72,8.98,6,1.9,299.4,326.0,301.0
876.9,1265,15.2,10.3,72,8.98,7,1.9,299.4,326.0,301.0
876.4,1271,15.2,10.3,72,9.00,7,1.9,299.4,326.0,301.0
875.8,1276,15.2,10.3,73,9.04,8,1.9,299.4,326.2,301.1
875.3,1280,15.1,10.4,74,9.11,8,1.9,299.4,326.4,301.1
874.9,1285,15.1,10.5,74,9.13,8,1.9,299.4,326.5,301.1
874.4,1290,15.0,10.4,74,9.12,9,1.9,299.4,326.4,301.1
874.0,1294,15.0,10.4,74,9.09,9,1.8,299.4,326.3,301.1
873.5,1298,14.9,10.4,74,9.09,8,1.8,299.4,326.4,301.1
873.1,1302,14.9,10.4,75,9.13,8,1.8,299.4,326.5,301.1
872.7,1306,14.9,10.5,75,9.19,8,1.8,299.4,326.6,301.1
872.3,1310,14.8,10.6,76,9.23,8,1.8,299.5,326.8,301.1
871.8,1314,14.8,10.6,76,9.25,8,1.8,299.5,326.8,301.1
871.4,1319,14.8,10.6,76,9.24,7,1.8,299.5,326.8,301.1
871.0,1323,14.7,10.6,76,9.24,7,1.8,299.5,326.8,301.1
870.5,1327,14.7,10.6,76,9.24,7,1.8,299.5,326.8,301.1
870.1,1331,14.7,10.6,76,9.24,6,1.7,299.5,326.8,301.1
869.7,1336,14.6,10.5,76,9.22,6,1.7,299.5,326.8,301.1
869.2,1340,14.6,10.5,77,9.22,6,1.7,299.5,326.8,301.1
868.8,1344,14.5,10.5,77,9.23,5,1.7,299.5,326.8,301.1
868.4,1348,14.5,10.5,77,9.23,5,1.7,299.5,326.8,301.1
868.0,1352,14.5,10.5,77,9.23,5,1.7,299.5,326.8,301.1
867.6,1356,14.4,10.5,77,9.23,5,1.6,299.5,326.8,301.1
867.1,1360,14.4,10.5,78,9.24,5,1.6,299.5,326.8,301.1
866.7,1365,14.3,10.5,78,9.23,5,1.6,299.5,326.8,301.1
866.2,1369,14.3,10.5,78,9.24,5,1.6,299.5,326.8,301.1
865.8,1374,14.2,10.5,78,9.26,5,1.5,299.5,326.9,301.1
865.3,1378,14.2,10.5,79,9.27,6,1.5,299.5,326.9,301.1
864.9,1382,14.2,10.5,79,9.27,6,1.5,299.5,326.9,301.1
864.4,1387,14.1,10.5,79,9.25,7,1.5,299.5,326.8,301.2
864.0,1391,14.1,10.4,79,9.22,8,1.4,299.5,326.8,301.1
863.6,1395,14.1,10.4,79,9.21,9,1.4,299.5,326.7,301.2
863.1,1400,14.0,10.4,79,9.21,10,1.4,299.5,326.8,301.2
862.7,1404,14.0,10.4,79,9.22,11,1.4,299.5,326.8,301.2
862.2,1408,13.9,10.3,79,9.19,12,1.3,299.5,326.7,301.2
861.8,1413,13.9,10.2,78,9.12,14,1.3,299.5,326.5,301.2
861.4,1417,13.9,10.1,78,9.03,16,1.3,299.5,326.3,301.2
860.9,1421,13.9,10.0,77,8.97,17,1.3,299.5,326.1,301.2
860.5,1425,13.8,9.9,77,8.93,19,1.3,299.6,326.0,301.2
860.1,1429,13.8,9.8,77,8.88,21,1.3,299.6,325.9,301.2
859.7,1433,13.8,9.7,76,8.83,22,1.3,299.6,325.8,301.2
859.3,1437,13.8,9.7,76,8.82,24,1.3,299.6,325.7,301.2
858.9,1441,13.7,9.7,77,8.86,25,1.4,299.6,325.9,301.2
858.5,1445,13.7,9.8,77,8.89,26,1.4,299.6,325.9,301.2
858.1,1449,13.6,9.8,77,8.87,27,1.5,299.6,325.9,301.2
857.7,1453,13.6,9.6,77,8.80,28,1.5,299.6,325.7,301.2
857.2,1457,13.6,9.5,76,8.75,29,1.6,299.6,325.6,301.2
856.8,1461,13.6,9.5,76,8.73,29,1.6,299.7,325.5,301.2
856.4,1466,13.5,9.5,77,8.73,30,1.7,299.7,325.6,301.2
856.0,1470,13.5,9.6,77,8.79,30,1.8,299.7,325.7,301.2
855.5,1474,13.4,9.7,78,8.87,30,1.9,299.7,325.9,301.3
855.1,1479,13.4,9.8,79,8.91,30,2.0,299.6,326.0,301.2
854.6,1483,13.3,9.8,79,8.95,30,2.0,299.6,326.2,301.3
854.1,1488,13.3,9.9,80,9.01,29,2.1,299.6,326.3,301.3
853.7,1493,13.2,9.9,80,9.02,29,2.3,299.6,326.4,301.3
853.2,1497,13.2,9.8,80,8.97,29,2.4,299.6,326.2,301.3
852.7,1502,13.2,9.8,80,8.93,28,2.5,299.6,326.1,301.3
852.2,1507,13.1,9.7,80,8.89,28,2.6,299.7,326.0,301.3
851.7,1512,13.1,9.6,79,8.85,27,2.7,299.7,325.9,301.3
851.2,1517,13.0,9.5,79,8.77,27,2.8,299.7,325.7,301.2
850.7,1522,13.0,9.2,78,8.60,26,2.9,299.7,325.2,301.2
850.2,1526,13.0,8.8,75,8.38,26,3.0,299.7,324.6,301.2
850.0,1529,13.0,8.7,75,8.31,25,3.2,299.8,324.4,301.3
849.8,1531,13.0,8.5,74,8.23,25,3.2,299.8,324.2,301.3
849.3,1536,13.0,8.4,73,8.15,25,3.3,299.8,324.1,301.3
848.8,1541,13.0,8.2,73,8.07,25,3.4,299.9,323.9,301.3
848.3,1545,13.0,8.1,72,8.00,24,3.5,299.9,323.7,301.4
847.9,1550,13.0,7.9,71,7.92,24,3.6,300.0,323.6,301.4
847.4,1554,13.0,7.8,70,7.86,23,3.7,300.0,323.5,301.5
847.0,1559,13.0,7.7,70,7.82,23,3.7,300.1,323.4,301.5
846.5,1563,13.0,7.7,70,7.80,22,3.8,300.1,323.4,301.5
846.1,1568,13.0,7.7,70,7.79,22,3.9,300.1,323.4,301.5
845.6,1572,13.0,7.6,70,7.79,21,3.9,300.2,323.4,301.6
845.1,1577,12.9,7.6,70,7.80,21,4.0,300.2,323.4,301.6
844.6,1582,12.9,7.7,70,7.81,20,4.0,300.2,323.5,301.6
844.1,1588,12.8,7.7,71,7.82,20,4.1,300.2,323.5,301.6
843.5,1593,12.8,7.6,71,7.81,20,4.1,300.2,323.5,301.6
843.0,1599,12.7,7.6,71,7.79,19,4.2,300.1,323.4,301.6
842.4,1604,12.6,7.5,71,7.75,19,4.2,300.1,323.3,301.5
841.9,1610,12.6,7.4,71,7.72,18,4.2,300.1,323.2,301.5
841.3,1615,12.5,7.4,71,7.69,18,4.2,300.1,323.1,301.5
840.8,1620,12.5,7.3,71,7.66,17,4.2,300.2,323.0,301.5
840.4,1625,12.5,7.3,71,7.64,17,4.2,300.2,323.0,301.5
839.9,1629,12.4,7.3,71,7.65,16,4.3,300.2,323.0,301.6
839.5,1633,12.4,7.3,71,7.67,16,4.3,300.2,323.1,301.6
839.1,1638,12.4,7.3,71,7.69,16,4.3,300.2,323.1,301.6
838.6,1642,12.3,7.4,72,7.70,15,4.3,300.2,323.2,301.6
838.2,1647,12.3,7.3,72,7.70,15,4.3,300.2,323.2,301.6
837.7,1651,12.3,7.3,72,7.69,15,4.3,300.2,323.2,301.6
837.3,1655,12.2,7.3,72,7.68,15,4.3,300.2,323.1,301.6
836.8,1660,12.2,7.3,72,7.67,15,4.3,300.2,323.1,301.6
836.4,1664,12.1,7.3,72,7.67,15,4.3,300.2,323.1,301.6
836.0,1668,12.1,7.2,72,7.67,15,4.3,300.2,323.1,301.6
835.6,1673,12.0,7.2,73,7.67,15,4.3,300.2,323.1,301.6
835.2,1677,12.0,7.2,73,7.67,15,4.3,300.2,323.1,301.6
834.8,1681,11.9,7.2,73,7.68,15,4.2,300.2,323.1,301.6
834.4,1684,11.9,7.3,73,7.69,15,4.3,300.2,323.1,301.6
834.0,1688,11.9,7.3,73,7.69,15,4.3,300.2,323.1,301.6
833.6,1692,11.8,7.2,73,7.69,15,4.3,300.2,323.2,301.6
833.2,1696,11.8,7.2,74,7.68,16,4.3,300.2,323.1,301.6
832.8,1701,11.8,7.2,74,7.67,16,4.3,300.2,323.1,301.6
832.4,1705,11.7,7.2,74,7.67,16,4.3,300.2,323.1,301.6
831.9,1709,11.7,7.2,74,7.68,17,4.3,300.2,323.1,301.6
831.5,1714,11.6,7.2,74,7.69,17,4.3,300.2,323.2,301.6
831.0,1718,11.6,7.2,74,7.70,17,4.3,300.2,323.2,301.6
830.6,1723,11.6,7.2,75,7.69,18,4.4,300.2,323.2,301.6
830.1,1728,11.5,7.2,75,7.68,18,4.4,300.2,323.1,301.6
829.6,1733,11.5,7.1,75,7.66,18,4.4,300.2,323.1,301.6
829.1,1738,11.4,7.1,75,7.65,18,4.4,300.2,323.1,301.6
828.6,1743,11.4,7.1,75,7.64,19,4.5,300.3,323.1,301.6
828.1,1748,11.4,7.1,75,7.64,19,4.5,300.3,323.1,301.6
827.5,1753,11.3,7.0,75,7.63,19,4.6,300.3,323.1,301.7
827.0,1759,11.3,6.9,75,7.59,19,4.6,300.3,323.0,301.7
826.5,1764,11.2,6.8,74,7.52,18,4.7,300.3,322.8,301.7
826.0,1769,11.3,6.7,73,7.47,18,4.7,300.4,322.7,301.7
825.5,1774,11.3,6.6,73,7.45,18,4.8,300.4,322.7,301.8
825.0,1779,11.2,6.6,73,7.44,18,4.8,300.4,322.7,301.8
824.6,1784,11.2,6.5,73,7.41,17,4.9,300.5,322.6,301.8
824.1,1788,11.2,6.5,73,7.37,16,4.9,300.5,322.6,301.8
823.6,1793,11.2,6.4,72,7.33,16,5.0,300.5,322.5,301.9
823.1,1798,11.2,6.3,72,7.30,15,5.1,300.6,322.4,301.9
822.7,1803,11.2,6.3,72,7.28,14,5.2,300.6,322.4,301.9
822.2,1808,11.1,6.3,72,7.28,13,5.2,300.6,322.5,302.0
821.7,1812,11.1,6.3,72,7.29,12,5.3,300.7,322.5,302.0
821.3,1817,11.1,6.3,72,7.32,11,5.4,300.7,322.6,302.0
