PRES,HGHT,TEMP,DWPT,RELH,MIXR,DRCT,SPED,THTA,THTE,THTV
1015.2,31,21.9,19.7,87,14.33,308,1.6,293.8,334.8,296.3
1014.8,34,22.1,20.0,87,14.62,346,1.7,294.1,336.0,296.6
1014.4,38,22.1,19.9,88,14.61,357,1.9,294.0,335.9,296.6
1013.6,44,22.3,20.1,87,14.74,360,2.1,294.3,336.6,296.9
1012.8,51,22.6,20.1,86,14.75,1,2.2,294.6,337.0,297.2
1012.2,56,22.6,19.9,85,14.62,2,2.3,294.8,336.8,297.3
1011.6,62,22.7,19.8,84,14.51,3,2.4,294.8,336.6,297.4
1011.0,66,22.8,19.8,83,14.50,5,2.6,295.0,336.7,297.6
1010.4,72,23.0,19.8,83,14.58,7,2.7,295.2,337.2,297.8
1009.8,77,23.0,19.8,82,14.59,9,2.8,295.3,337.4,297.9
1009.2,82,23.0,19.8,82,14.59,11,2.9,295.4,337.5,298.0
1008.6,88,23.0,19.8,82,14.59,13,3.0,295.4,337.5,298.0
1008.0,93,22.9,19.8,83,14.59,15,3.1,295.4,337.5,298.0
1007.4,98,23.0,19.9,83,14.64,17,3.2,295.5,337.7,298.1
1006.8,103,23.1,20.0,83,14.74,19,3.3,295.7,338.2,298.3
1006.2,108,23.2,20.0,82,14.80,22,3.3,295.8,338.5,298.4
1005.7,113,23.1,20.0,83,14.82,24,3.4,295.8,338.6,298.4
1005.1,118,23.1,20.0,83,14.84,26,3.5,295.8,338.6,298.4
1004.6,123,23.1,20.1,83,14.90,29,3.6,295.8,338.8,298.5
1004.0,127,23.0,20.1,84,14.92,31,3.7,295.8,338.9,298.5
1003.5,132,23.0,20.1,84,14.89,33,3.8,295.8,338.8,298.5
1002.9,137,22.9,20.0,84,14.84,35,3.9,295.8,338.6,298.4
1002.3,142,22.8,20.0,84,14.82,37,4.0,295.8,338.5,298.4
1001.7,147,22.8,20.0,84,14.84,38,4.1,295.8,338.6,298.4
1001.2,152,22.7,20.0,85,14.85,40,4.2,295.8,338.7,298.4
1000.6,157,22.7,20.0,85,14.84,41,4.3,295.7,338.6,298.4
1000.1,161,22.5,19.9,85,14.79,42,4.4,295.7,338.3,298.3
1000.0,162,22.5,19.9,85,14.79,44,4.6,295.7,338.3,298.3
999.6,166,22.5,19.9,85,14.80,44,4.6,295.7,338.4,298.3
999.1,170,22.5,19.9,85,14.84,45,4.7,295.7,338.6,298.4
998.6,175,22.5,19.9,85,14.85,45,4.8,295.8,338.6,298.4
998.1,179,22.5,19.9,85,14.82,46,4.9,295.8,338.6,298.4
997.5,184,22.5,19.8,85,14.76,46,5.0,295.8,338.5,298.5
996.9,189,22.6,19.8,85,14.77,47,5.1,296.0,338.6,298.6
996.4,194,22.6,19.8,84,14.79,47,5.2,296.0,338.8,298.7
995.8,199,22.6,19.8,85,14.80,48,5.3,296.1,338.8,298.7
995.2,205,22.5,19.8,85,14.78,48,5.4,296.0,338.7,298.6
994.6,210,22.4,19.7,85,14.66,48,5.5,296.0,338.3,298.6
994.0,215,22.4,19.6,84,14.57,48,5.6,296.1,338.2,298.7
993.5,219,22.5,19.5,83,14.52,48,5.7,296.2,338.2,298.8
993.0,224,22.5,19.5,83,14.51,48,5.7,296.3,338.3,298.9
992.5,228,22.5,19.5,83,14.52,48,5.8,296.3,338.3,298.8
992.0,232,22.4,19.5,83,14.53,48,5.9,296.3,338.3,298.8
991.6,236,22.4,19.5,84,14.55,48,5.9,296.3,338.4,298.8
991.1,240,22.4,19.5,84,14.58,48,6.0,296.3,338.4,298.9
990.6,244,22.3,19.6,84,14.61,48,6.0,296.3,338.5,298.9
990.2,249,22.3,19.6,85,14.64,49,6.1,296.3,338.6,298.9
989.7,253,22.2,19.6,85,14.65,49,6.1,296.3,338.7,298.9
989.2,257,22.2,19.6,85,14.68,49,6.1,296.3,338.7,298.9
988.7,262,22.2,19.6,86,14.72,49,6.1,296.3,338.8,298.9
988.1,267,22.1,19.7,86,14.74,49,6.1,296.3,338.9,298.9
987.6,271,22.1,19.7,86,14.75,50,6.1,296.3,339.0,298.9
987.0,276,22.0,19.6,86,14.74,50,6.1,296.3,338.9,298.9
986.4,282,22.0,19.6,87,14.73,50,6.1,296.3,338.9,298.9
985.9,287,21.9,19.6,87,14.70,51,6.1,296.3,338.8,298.9
985.3,292,21.9,19.6,87,14.68,51,6.1,296.3,338.7,298.9
984.7,297,21.8,19.5,87,14.68,51,6.1,296.3,338.7,298.9
984.1,302,21.8,19.5,87,14.69,52,6.1,296.3,338.8,298.9
983.6,307,21.7,19.5,87,14.67,52,6.1,296.3,338.7,298.9
983.0,312,21.7,19.5,87,14.64,52,6.0,296.3,338.6,298.9
982.4,317,21.6,19.5,88,14.64,53,6.0,296.3,338.6,298.9
981.9,322,21.6,19.5,88,14.65,53,6.0,296.3,338.6,298.9
981.3,327,21.5,19.5,88,14.67,53,6.0,296.3,338.7,298.9
980.7,332,21.5,19.5,88,14.70,53,6.0,296.3,338.8,298.9
980.1,338,21.4,19.5,89,14.73,54,5.9,296.3,338.9,298.9
979.4,343,21.4,19.5,89,14.73,54,5.9,296.3,338.9,298.9
978.8,349,21.3,19.5,89,14.71,54,5.9,296.3,338.8,298.9
978.2,354,21.3,19.4,89,14.68,54,5.9,296.3,338.7,298.9
977.6,360,21.2,19.4,90,14.67,55,5.9,296.3,338.7,298.9
977.0,365,21.2,19.4,90,14.68,55,5.8,296.3,338.7,298.9
976.5,370,21.1,19.4,90,14.70,55,5.8,296.3,338.8,298.9
975.9,375,21.1,19.4,90,14.72,55,5.8,296.3,338.8,298.9
975.3,380,21.0,19.4,91,14.73,55,5.8,296.3,338.9,298.9
974.7,386,21.0,19.5,91,14.75,55,5.7,296.3,338.9,298.9
974.1,391,20.9,19.5,91,14.78,56,5.7,296.3,339.0,298.9
973.5,396,20.9,19.4,92,14.75,56,5.7,296.3,339.0,298.9
972.9,401,20.8,19.4,91,14.70,56,5.7,296.3,338.8,298.9
972.3,407,20.8,19.4,92,14.70,56,5.6,296.3,338.8,298.9
971.7,412,20.7,19.4,92,14.72,57,5.6,296.3,338.9,298.9
971.2,417,20.7,19.4,92,14.72,57,5.6,296.3,338.8,298.9
970.6,423,20.6,19.3,92,14.68,57,5.5,296.3,338.7,298.9
970.0,428,20.6,19.2,92,14.63,57,5.5,296.3,338.6,298.9
969.4,433,20.5,19.2,92,14.62,58,5.4,296.3,338.6,298.9
968.8,439,20.5,19.2,93,14.64,58,5.4,296.3,338.6,298.9
968.1,444,20.4,19.2,93,14.63,58,5.4,296.3,338.6,298.9
967.5,450,20.3,19.2,93,14.61,58,5.3,296.3,338.5,298.9
966.9,456,20.3,19.2,93,14.60,59,5.3,296.3,338.5,298.9
966.2,461,20.2,19.1,93,14.55,59,5.3,296.3,338.4,298.8
965.6,467,20.2,18.9,93,14.42,59,5.2,296.3,338.0,298.8
965.0,472,20.1,18.8,92,14.27,59,5.2,296.3,337.6,298.8
964.4,478,20.1,18.7,91,14.18,59,5.2,296.3,337.4,298.8
963.8,483,20.1,18.6,91,14.14,59,5.2,296.3,337.3,298.9
963.2,489,20.1,18.5,91,14.09,59,5.2,296.4,337.2,298.9
962.6,494,20.0,18.5,91,14.08,60,5.2,296.4,337.2,298.9
961.9,500,20.0,18.6,92,14.12,60,5.2,296.4,337.3,298.9
961.3,506,19.9,18.5,92,14.11,60,5.2,296.4,337.2,298.9
960.7,511,19.8,18.5,92,14.05,60,5.2,296.4,337.0,298.9
960.1,517,19.8,18.4,92,14.03,60,5.2,296.4,337.0,298.8
959.5,522,19.7,18.5,93,14.10,59,5.3,296.4,337.2,298.9
958.9,527,19.7,18.6,93,14.17,59,5.3,296.4,337.4,298.9
958.4,532,19.6,18.6,94,14.20,59,5.4,296.3,337.4,298.9
957.8,537,19.6,18.6,94,14.18,59,5.4,296.3,337.4,298.9
957.3,542,19.5,18.5,94,14.17,59,5.5,296.4,337.4,298.9
956.8,546,19.5,18.6,95,14.24,59,5.5,296.4,337.6,298.9
956.3,551,19.4,18.8,96,14.39,60,5.6,296.3,338.0,298.9
955.8,556,19.4,18.8,97,14.46,60,5.7,296.3,338.2,298.9
955.3,560,19.3,18.8,97,14.44,60,5.8,296.3,338.1,298.9
954.8,564,19.3,18.8,97,14.41,60,5.9,296.3,338.0,298.9
954.3,569,19.2,18.7,97,14.40,60,6.0,296.3,338.0,298.9
953.9,573,19.2,18.7,97,14.38,60,6.1,296.3,337.9,298.9
953.4,577,19.2,18.7,97,14.37,60,6.1,296.3,337.9,298.9
953.0,581,19.1,18.7,97,14.34,61,6.2,296.3,337.8,298.9
952.5,585,19.1,18.6,97,14.26,61,6.3,296.3,337.6,298.9
952.1,589,19.1,18.4,96,14.15,61,6.4,296.3,337.3,298.8
951.6,593,19.0,18.3,96,14.07,62,6.4,296.4,337.1,298.9
951.1,597,19.0,18.3,96,14.04,62,6.5,296.4,337.0,298.9
950.7,602,19.0,18.2,95,13.98,62,6.6,296.4,336.8,298.9
950.2,606,18.9,18.1,95,13.92,62,6.6,296.4,336.7,298.9
949.8,610,18.9,18.1,95,13.90,63,6.6,296.4,336.6,298.9
949.3,614,18.9,18.1,96,13.94,63,6.7,296.4,336.7,298.9
948.9,618,18.8,18.1,96,13.94,63,6.7,296.4,336.8,298.9
948.4,622,18.8,18.1,96,13.92,63,6.7,296.4,336.7,298.9
948.0,626,18.8,18.1,96,13.96,63,6.7,296.4,336.8,298.9
947.5,630,18.7,18.2,97,14.05,63,6.7,296.4,337.1,298.9
947.0,635,18.7,18.3,98,14.11,63,6.7,296.4,337.2,298.9
946.6,639,18.6,18.3,98,14.12,63,6.6,296.4,337.3,298.9
946.1,643,18.6,18.2,98,14.07,63,6.6,296.4,337.1,298.9
945.6,648,18.5,18.1,97,13.91,63,6.6,296.4,336.7,298.9
945.1,652,18.5,17.8,96,13.72,63,6.5,296.4,336.1,298.8
944.7,656,18.5,17.7,95,13.62,63,6.5,296.4,335.9,298.8
944.2,661,18.5,17.7,95,13.63,63,6.4,296.4,335.9,298.9
943.7,665,18.4,17.7,96,13.67,63,6.4,296.5,336.0,298.9
943.3,669,18.4,17.8,96,13.68,63,6.3,296.5,336.1,298.9
942.8,673,18.4,17.8,96,13.69,63,6.3,296.5,336.1,298.9
942.4,677,18.3,17.7,96,13.67,63,6.3,296.5,336.1,298.9
941.9,681,18.3,17.7,96,13.66,62,6.2,296.5,336.0,298.9
941.5,686,18.3,17.7,96,13.66,62,6.2,296.5,336.0,298.9
941.0,690,18.2,17.7,96,13.64,62,6.1,296.5,336.0,298.9
940.5,695,18.2,17.6,97,13.63,62,6.1,296.5,336.0,298.9
940.0,699,18.2,17.6,97,13.62,62,6.1,296.5,336.0,298.9
939.5,704,18.1,17.6,97,13.61,62,6.1,296.5,335.9,298.9
938.9,709,18.1,17.6,97,13.58,62,6.0,296.5,335.9,298.9
938.4,713,18.1,17.5,97,13.53,62,6.0,296.5,335.8,299.0
937.9,718,18.0,17.4,96,13.48,62,6.0,296.6,335.6,299.0
937.4,723,18.0,17.4,96,13.45,62,6.0,296.6,335.6,299.0
936.9,728,18.0,17.4,96,13.43,62,6.0,296.6,335.5,299.0
936.3,732,17.9,17.3,96,13.41,62,6.0,296.6,335.5,299.0
935.8,737,17.9,17.3,96,13.37,62,6.1,296.6,335.4,299.0
935.3,742,17.9,17.2,96,13.31,63,6.1,296.7,335.3,299.0
934.9,746,17.9,17.1,95,13.27,63,6.1,296.7,335.1,299.0
934.4,751,17.8,17.1,96,13.26,63,6.1,296.7,335.1,299.0
933.9,755,17.8,17.1,96,13.25,64,6.1,296.7,335.1,299.0
933.4,760,17.8,17.1,96,13.24,64,6.2,296.7,335.1,299.0
932.9,764,17.7,17.1,96,13.23,64,6.2,296.7,335.1,299.1
932.4,769,17.7,17.0,96,13.21,64,6.2,296.7,335.0,299.1
931.8,774,17.6,17.0,96,13.17,65,6.2,296.7,334.9,299.1
931.3,778,17.6,16.9,96,13.12,65,6.2,296.7,334.8,299.1
930.8,783,17.6,16.8,95,13.06,65,6.3,296.7,334.6,299.1
930.3,788,17.6,16.8,95,13.01,66,6.3,296.8,334.5,299.1
929.9,792,17.5,16.7,95,12.97,66,6.3,296.8,334.4,299.1
929.4,797,17.5,16.7,95,12.99,66,6.3,296.8,334.5,299.1
928.9,801,17.5,16.8,95,13.05,67,6.3,296.8,334.7,299.2
928.4,806,17.5,16.9,96,13.12,67,6.3,296.8,334.9,299.2
927.8,811,17.4,16.9,97,13.20,67,6.3,296.9,335.2,299.2
927.3,816,17.4,17.0,97,13.23,67,6.3,296.9,335.3,299.2
926.7,821,17.3,16.9,97,13.20,67,6.3,296.9,335.2,299.2
926.2,826,17.3,16.9,97,13.16,67,6.3,296.9,335.1,299.2
925.6,831,17.2,16.9,98,13.17,68,6.3,296.9,335.1,299.2
925.0,837,17.2,16.9,98,13.17,68,6.2,296.8,335.1,299.2
924.5,842,17.1,16.8,98,13.14,68,6.2,296.8,335.0,299.2
923.9,847,17.1,16.8,98,13.12,68,6.2,296.9,334.9,299.2
923.3,853,17.0,16.8,98,13.11,68,6.1,296.9,334.9,299.2
922.7,858,17.0,16.8,98,13.13,68,6.0,296.9,335.0,299.2
922.1,864,17.0,16.8,99,13.13,68,6.0,296.9,335.0,299.3
921.5,869,16.9,16.7,98,13.07,68,5.9,296.9,334.9,299.3
920.9,875,16.9,16.6,98,12.99,68,5.8,296.9,334.7,299.3
920.3,881,16.8,16.5,98,12.91,68,5.7,296.9,334.4,299.2
919.7,886,16.8,16.4,97,12.85,68,5.6,296.9,334.3,299.2
919.2,891,16.8,16.4,98,12.84,68,5.5,297.0,334.3,299.3
918.6,896,16.7,16.4,98,12.87,69,5.4,297.0,334.4,299.3
918.1,901,16.7,16.4,98,12.91,69,5.4,297.0,334.5,299.3
917.6,906,16.6,16.4,98,12.89,69,5.3,297.0,334.4,299.3
917.1,910,16.6,16.3,98,12.83,69,5.2,297.0,334.3,299.3
916.6,915,16.6,16.2,97,12.73,70,5.1,297.0,334.1,299.3
916.1,919,16.6,16.1,97,12.64,70,5.0,297.1,333.8,299.3
915.7,924,16.6,16.0,96,12.58,70,4.9,297.1,333.7,299.4
915.2,928,16.6,16.0,96,12.56,71,4.9,297.1,333.7,299.4
914.7,932,16.6,15.9,96,12.54,71,4.8,297.2,333.7,299.4
914.3,937,16.6,15.9,96,12.50,72,4.8,297.2,333.6,299.4
913.8,941,16.5,15.8,96,12.48,72,4.7,297.2,333.6,299.5
913.3,945,16.5,15.8,96,12.47,73,4.7,297.3,333.6,299.5
912.8,950,16.5,15.8,95,12.44,74,4.7,297.3,333.5,299.5
912.4,955,16.5,15.7,95,12.38,74,4.7,297.3,333.3,299.5
911.9,959,16.5,15.6,95,12.31,75,4.7,297.3,333.2,299.5
911.4,964,16.5,15.5,94,12.27,75,4.8,297.4,333.1,299.6
910.9,968,16.4,15.5,94,12.24,76,4.8,297.4,333.0,299.6
910.5,972,16.4,15.4,94,12.17,77,4.9,297.4,332.9,299.6
910.0,977,16.4,15.3,93,12.12,77,4.9,297.5,332.8,299.6
909.6,981,16.4,15.3,93,12.11,78,5.0,297.5,332.8,299.6
909.1,985,16.3,15.3,94,12.12,78,5.1,297.5,332.8,299.6
908.7,989,16.3,15.3,94,12.11,79,5.2,297.5,332.8,299.6
908.2,994,16.3,15.3,94,12.15,79,5.2,297.5,332.9,299.7
907.7,998,16.3,15.5,95,12.30,80,5.3,297.5,333.4,299.7
907.2,1003,16.1,15.7,97,12.45,80,5.4,297.4,333.7,299.6
906.7,1008,16.0,15.8,99,12.56,81,5.5,297.4,334.0,299.6
906.2,1012,16.0,15.9,99,12.60,81,5.6,297.4,334.1,299.6
905.7,1017,16.0,15.8,99,12.58,81,5.7,297.4,334.0,299.7
905.2,1021,15.9,15.7,99,12.50,81,5.8,297.4,333.8,299.6
904.8,1026,15.9,15.7,99,12.47,82,5.8,297.4,333.7,299.6
904.3,1030,15.9,15.6,98,12.42,82,5.9,297.4,333.6,299.7
903.9,1034,15.8,15.4,97,12.28,82,6.0,297.4,333.2,299.6
903.4,1038,15.8,15.3,97,12.16,82,6.1,297.4,332.9,299.6
903.0,1043,15.8,15.2,96,12.15,82,6.1,297.5,332.9,299.7
902.6,1047,15.8,15.3,97,12.21,82,6.2,297.5,333.1,299.7
902.1,1051,15.8,15.4,98,12.31,82,6.2,297.6,333.4,299.8
901.7,1055,15.7,15.5,99,12.40,82,6.3,297.5,333.6,299.7
901.2,1059,15.7,15.5,99,12.39,82,6.3,297.5,333.6,299.7
900.7,1064,15.7,15.4,99,12.33,82,6.3,297.6,333.5,299.8
900.3,1068,15.6,15.2,97,12.19,82,6.4,297.6,333.1,299.8
899.8,1073,15.6,15.0,96,11.97,82,6.4,297.6,332.5,299.8
899.3,1077,15.6,14.8,95,11.84,81,6.4,297.7,332.2,299.8
898.8,1082,15.6,14.7,94,11.78,81,6.4,297.7,332.1,299.8
898.3,1087,15.7,14.6,93,11.71,81,6.4,297.8,332.0,299.9
897.8,1091,15.7,14.6,93,11.68,81,6.4,297.9,332.1,300.0
897.3,1096,15.7,14.6,93,11.71,80,6.4,298.0,332.2,300.1
896.8,1101,15.7,14.6,93,11.75,80,6.4,297.9,332.3,300.1
896.3,1106,15.6,14.6,94,11.77,80,6.4,298.0,332.4,300.1
895.8,1111,15.6,14.7,94,11.80,79,6.3,298.0,332.5,300.1
895.2,1116,15.6,14.6,94,11.76,79,6.3,298.0,332.4,300.1
894.7,1122,15.6,14.4,93,11.62,79,6.3,298.1,332.1,300.1
894.1,1127,15.6,14.2,91,11.43,78,6.2,298.2,331.6,300.2
893.5,1133,15.7,13.9,89,11.23,78,6.1,298.3,331.1,300.3
892.9,1139,15.6,13.7,88,11.12,77,6.1,298.3,330.9,300.3
892.3,1144,15.6,13.7,88,11.09,77,6.0,298.3,330.8,300.3
891.7,1150,15.6,13.7,89,11.09,77,5.9,298.3,330.8,300.3
891.1,1156,15.5,13.8,90,11.20,77,5.8,298.3,331.1,300.3
890.5,1161,15.4,14.1,92,11.41,76,5.7,298.3,331.7,300.3
890.0,1166,15.3,14.3,94,11.59,76,5.6,298.2,332.1,300.3
889.4,1171,15.2,14.3,94,11.56,76,5.4,298.1,331.9,300.2
888.9,1176,15.1,14.0,94,11.41,75,5.3,298.1,331.5,300.1
888.4,1181,15.1,13.7,91,11.17,75,5.2,298.2,330.9,300.2
888.0,1185,15.3,13.4,89,10.96,75,5.1,298.4,330.5,300.3
887.5,1190,15.3,13.3,88,10.88,75,4.9,298.5,330.4,300.4
887.1,1194,15.3,13.3,88,10.90,75,4.8,298.5,330.5,300.5
886.7,1198,15.3,13.4,88,10.94,75,4.7,298.5,330.6,300.5
886.3,1201,15.3,13.4,89,10.99,75,4.6,298.5,330.8,300.5
885.9,1205,15.2,13.4,89,11.00,76,4.5,298.5,330.8,300.5
885.5,1209,15.2,13.4,89,11.01,76,4.3,298.6,330.9,300.5
885.2,1212,15.2,13.4,89,10.99,76,4.3,298.6,330.8,300.5
884.8,1216,15.2,13.4,89,10.98,77,4.2,298.6,330.8,300.6
884.4,1219,15.1,13.3,89,10.95,78,4.1,298.6,330.7,300.6
884.0,1223,15.1,13.3,89,10.93,78,4.0,298.6,330.7,300.6
883.7,1227,15.1,13.3,89,10.90,79,4.0,298.6,330.6,300.6
883.3,1230,15.1,13.2,89,10.87,80,4.0,298.6,330.5,300.6
882.9,1234,15.1,13.2,89,10.87,81,4.0,298.6,330.5,300.6
882.5,1238,15.0,13.2,89,10.87,82,4.0,298.7,330.6,300.6
882.1,1241,15.0,13.2,89,10.88,83,4.0,298.7,330.6,300.6
881.7,1245,15.0,13.2,89,10.86,84,4.1,298.7,330.6,300.6
881.3,1249,15.0,13.1,89,10.83,85,4.1,298.7,330.5,300.6
880.9,1253,14.9,13.1,89,10.81,86,4.2,298.7,330.5,300.7
880.5,1257,14.9,13.1,89,10.81,87,4.3,298.7,330.5,300.7
880.1,1261,14.9,13.1,89,10.80,88,4.4,298.7,330.4,300.7
879.6,1265,14.8,13.0,89,10.75,89,4.6,298.7,330.3,300.7
879.2,1270,14.8,12.9,88,10.70,90,4.7,298.7,330.2,300.7
878.8,1274,14.8,12.8,88,10.63,90,4.9,298.8,330.0,300.7
878.3,1278,14.8,12.7,87,10.56,91,5.0,298.8,329.9,300.7
877.9,1282,14.8,12.6,87,10.48,91,5.2,298.9,329.7,300.7
877.5,1286,14.8,12.5,86,10.42,92,5.3,298.9,329.5,300.8
877.1,1290,14.8,12.4,86,10.39,92,5.5,298.9,329.4,300.8
876.6,1294,14.7,12.4,86,10.35,92,5.6,298.9,329.4,300.8
876.2,1299,14.7,12.3,86,10.34,93,5.8,298.9,329.3,300.8
875.8,1303,14.7,12.3,86,10.35,93,6.0,298.9,329.4,300.8
875.3,1307,14.6,12.4,86,10.37,93,6.1,299.0,329.5,300.8
874.9,1311,14.6,12.4,87,10.39,93,6.2,299.0,329.5,300.8
874.4,1316,14.6,12.4,87,10.41,94,6.4,299.0,329.6,300.8
874.0,1320,14.5,12.4,87,10.41,94,6.5,299.0,329.6,300.8
873.5,1324,14.5,12.4,87,10.42,94,6.6,299.0,329.6,300.8
873.1,1329,14.5,12.4,88,10.44,94,6.7,299.0,329.7,300.9
872.6,1334,14.4,12.5,88,10.46,94,6.8,299.0,329.8,300.9
872.1,1339,14.4,12.5,88,10.49,94,6.8,299.0,329.9,300.9
871.5,1344,14.4,12.5,89,10.51,94,6.9,299.0,330.0,300.9
871.0,1350,14.3,12.5,89,10.50,95,7.0,299.0,329.9,300.9
870.3,1356,14.3,12.4,88,10.44,95,7.0,299.1,329.8,301.0
869.7,1362,14.3,12.2,87,10.34,95,7.0,299.1,329.6,301.0
869.0,1368,14.3,12.1,87,10.26,95,7.0,299.2,329.4,301.0
868.4,1375,14.3,12.0,86,10.22,95,7.0,299.2,329.3,301.1
867.7,1381,14.2,11.9,86,10.17,96,7.0,299.3,329.2,301.1
867.1,1387,14.2,11.9,86,10.12,96,7.0,299.3,329.1,301.1
866.5,1393,14.1,11.8,86,10.10,96,7.0,299.3,329.0,301.1
866.0,1398,14.1,11.8,86,10.12,96,6.9,299.3,329.1,301.1
865.5,1403,14.1,11.9,87,10.16,96,6.9,299.3,329.2,301.1
865.0,1408,14.0,11.9,87,10.20,96,6.9,299.3,329.4,301.1
864.5,1413,14.0,12.0,88,10.25,96,6.8,299.3,329.5,301.2
864.0,1418,13.9,12.1,89,10.32,96,6.8,299.3,329.8,301.2
863.5,1423,13.9,12.2,90,10.41,96,6.7,299.3,330.0,301.2
862.9,1428,13.8,12.3,90,10.45,96,6.7,299.3,330.1,301.2
862.4,1433,13.8,12.2,90,10.43,96,6.6,299.3,330.1,301.2
861.9,1438,13.8,12.2,90,10.39,96,6.6,299.3,330.0,301.2
861.5,1442,13.7,12.1,90,10.38,96,6.5,299.3,329.9,301.2
861.0,1447,13.7,12.1,91,10.39,95,6.5,299.3,329.9,301.2
860.5,1452,13.6,12.2,91,10.40,95,6.5,299.3,330.0,301.2
860.1,1456,13.6,12.2,91,10.41,95,6.4,299.3,330.0,301.2
859.6,1460,13.6,12.2,91,10.43,94,6.4,299.4,330.1,301.3
859.2,1464,13.5,12.2,91,10.44,93,6.4,299.4,330.2,301.3
858.8,1468,13.5,12.2,91,10.44,93,6.4,299.4,330.2,301.3
858.4,1472,13.5,12.2,91,10.43,92,6.4,299.4,330.2,301.3
858.0,1477,13.5,12.1,91,10.41,92,6.4,299.5,330.1,301.3
857.6,1480,13.4,12.1,92,10.40,91,6.4,299.4,330.1,301.3
857.2,1484,13.4,12.1,92,10.40,90,6.4,299.4,330.1,301.3
856.8,1488,13.4,12.1,92,10.43,90,6.4,299.5,330.2,301.3
856.4,1492,13.4,12.1,92,10.45,89,6.4,299.5,330.3,301.4
856.0,1496,13.3,12.1,93,10.45,89,6.4,299.5,330.3,301.4
855.6,1500,13.3,12.1,93,10.44,88,6.4,299.5,330.3,301.4
855.3,1503,13.2,12.1,93,10.43,88,6.4,299.5,330.2,301.3
854.9,1507,13.2,12.1,93,10.41,88,6.5,299.5,330.2,301.4
854.5,1511,13.2,12.0,92,10.36,88,6.5,299.5,330.1,301.4
854.1,1514,13.2,11.9,92,10.31,88,6.5,299.5,329.9,301.4
853.7,1518,13.2,11.8,91,10.24,88,6.5,299.6,329.8,301.4
853.4,1522,13.2,11.7,91,10.20,88,6.6,299.6,329.8,301.5
852.9,1526,13.3,11.7,90,10.17,89,6.6,299.7,329.8,301.6
852.5,1530,13.2,11.6,90,10.15,89,6.6,299.8,329.7,301.6
852.1,1535,13.2,11.6,90,10.11,90,6.6,299.8,329.6,301.6
851.6,1539,13.2,11.5,89,10.07,90,6.7,299.8,329.6,301.6
851.2,1543,13.2,11.4,89,10.02,91,6.7,299.8,329.4,301.6
850.8,1548,13.1,11.4,89,9.99,92,6.7,299.8,329.4,301.6
850.3,1552,13.1,11.4,89,9.98,92,6.7,299.8,329.4,301.6
850.0,1555,13.1,11.4,89,9.98,92,6.7,299.8,329.3,301.6
849.9,1556,13.1,11.4,89,9.98,93,6.8,299.8,329.4,301.6
849.5,1560,13.1,11.3,89,9.97,94,6.8,299.9,329.3,301.7
849.1,1564,13.0,11.3,89,9.96,95,6.8,299.9,329.3,301.7
848.7,1568,13.0,11.3,89,9.95,96,6.9,299.9,329.3,301.7
848.3,1572,13.0,11.3,89,9.94,97,6.9,299.9,329.3,301.7
847.9,1576,13.0,11.3,89,9.94,98,6.9,300.0,329.4,301.7
847.5,1580,13.0,11.2,89,9.93,98,7.0,300.0,329.4,301.8
847.0,1585,13.0,11.2,89,9.90,99,7.0,300.0,329.3,301.8
846.6,1589,12.9,11.1,89,9.86,100,7.0,300.0,329.2,301.8
846.1,1594,12.9,11.0,88,9.81,100,7.1,300.1,329.1,301.8
845.6,1599,12.9,10.9,88,9.75,101,7.1,300.1,329.0,301.9
845.2,1603,12.9,10.9,87,9.73,102,7.1,300.1,329.0,301.9
844.7,1608,12.9,10.9,88,9.73,102,7.1,300.2,329.0,301.9
844.3,1612,12.9,10.9,88,9.73,102,7.2,300.2,329.0,301.9
843.8,1617,12.8,10.9,88,9.74,103,7.2,300.2,329.1,301.9
843.4,1621,12.8,10.9,88,9.76,103,7.2,300.2,329.1,302.0
842.9,1626,12.8,10.9,88,9.76,103,7.1,300.2,329.1,302.0
842.5,1630,12.7,10.8,88,9.72,103,7.1,300.2,329.0,302.0
842.1,1634,12.7,10.8,88,9.68,103,7.1,300.2,328.9,302.0
841.7,1638,12.7,10.7,88,9.66,103,7.1,300.3,328.9,302.0
841.3,1642,12.7,10.7,88,9.66,103,7.0,300.3,329.0,302.1
840.9,1646,12.7,10.7,88,9.65,102,7.0,300.4,329.0,302.1
840.5,1650,12.7,10.6,87,9.60,102,6.9,300.4,328.9,302.1
840.0,1655,12.7,10.5,86,9.53,102,6.9,300.5,328.7,302.2
839.6,1659,12.7,10.3,85,9.44,101,6.8,300.5,328.6,302.2
839.1,1664,12.7,10.2,85,9.36,101,6.7,300.6,328.4,302.3
838.6,1669,12.8,10.1,84,9.27,101,6.7,300.7,328.2,302.3
838.1,1674,12.8,9.8,82,9.14,100,6.6,300.8,328.0,302.4
837.6,1679,12.9,9.6,80,8.98,100,6.5,300.9,327.7,302.6
837.1,1684,13.1,9.3,78,8.82,99,6.4,301.1,327.4,302.7
836.7,1689,13.1,9.1,77,8.72,98,6.4,301.2,327.2,302.8
836.2,1693,13.1,9.1,77,8.68,98,6.3,301.2,327.2,302.8
835.7,1698,13.1,9.0,76,8.67,97,6.2,301.3,327.2,302.8
835.2,1703,13.1,9.0,76,8.66,96,6.2,301.3,327.2,302.9
834.8,1707,13.0,9.0,76,8.64,96,6.1,301.3,327.1,302.9
834.3,1712,13.0,8.9,76,8.62,95,6.1,301.3,327.1,302.9
833.9,1717,13.0,8.9,76,8.59,94,6.1,301.4,327.0,302.9
833.4,1721,12.9,8.8,76,8.55,93,6.0,301.4,326.9,302.9
833.0,1726,12.9,8.7,76,8.51,93,6.0,301.4,326.8,302.9
