PRES,HGHT,TEMP,DWPT,RELH,MIXR,DRCT,SPED,THTA,THTE,THTV
1013.4,31,26.2,21.0,73,15.64,129,4.0,298.2,343.8,301.0
1013.1,33,26.0,20.9,74,15.57,130,3.0,298.0,343.4,300.8
1012.6,38,25.7,20.6,73,15.24,130,2.8,297.8,342.2,300.5
1012.0,43,25.3,20.3,74,15.02,130,2.9,297.4,341.1,300.1
1011.4,48,24.9,20.3,76,14.97,131,3.1,297.1,340.6,299.7
1010.6,55,24.5,20.2,77,14.88,131,3.4,296.7,339.9,299.3
1010.0,60,24.1,19.9,78,14.68,131,3.6,296.4,338.9,299.0
1009.4,66,23.8,19.8,78,14.53,131,3.8,296.1,338.2,298.7
1008.8,70,23.6,19.7,79,14.46,131,4.0,296.0,337.9,298.6
1008.3,75,23.6,19.6,79,14.41,131,4.2,296.0,337.7,298.6
1007.8,79,23.6,19.6,78,14.35,130,4.4,296.1,337.5,298.6
1007.3,83,23.5,19.5,78,14.31,130,4.6,296.1,337.4,298.6
1006.8,88,23.5,19.5,78,14.32,130,4.8,296.1,337.5,298.6
1006.4,92,23.5,19.5,79,14.36,130,5.0,296.1,337.6,298.6
1005.9,96,23.4,19.6,79,14.41,130,5.2,296.1,337.7,298.6
1005.3,101,23.4,19.6,79,14.44,129,5.3,296.1,337.8,298.6
1004.8,106,23.3,19.6,80,14.42,129,5.5,296.1,337.7,298.6
1004.2,111,23.3,19.5,80,14.39,129,5.6,296.1,337.7,298.6
1003.6,116,23.2,19.5,80,14.37,128,5.7,296.0,337.6,298.6
1003.0,121,23.2,19.5,80,14.38,128,5.8,296.0,337.6,298.6
1002.5,126,23.1,19.5,80,14.41,128,5.9,296.0,337.7,298.6
1001.9,131,23.0,19.5,81,14.41,127,6.0,296.0,337.7,298.6
1001.4,135,23.0,19.5,81,14.38,127,6.1,296.0,337.6,298.6
1000.8,140,23.0,19.4,81,14.35,127,6.1,296.0,337.5,298.6
1000.3,144,22.9,19.4,81,14.34,126,6.2,296.0,337.5,298.6
1000.0,147,22.9,19.4,81,14.34,126,6.2,296.0,337.5,298.6
999.8,149,22.9,19.4,81,14.35,126,6.2,296.0,337.5,298.6
999.3,154,22.8,19.4,81,14.35,126,6.3,296.0,337.5,298.6
998.7,158,22.8,19.4,81,14.34,126,6.3,296.1,337.5,298.6
998.2,163,22.7,19.4,82,14.37,126,6.3,296.0,337.6,298.6
997.7,168,22.7,19.4,82,14.39,125,6.3,296.0,337.6,298.6
997.1,172,22.7,19.4,82,14.38,125,6.4,296.0,337.6,298.6
996.6,177,22.6,19.4,82,14.38,125,6.3,296.0,337.6,298.6
996.1,181,22.6,19.4,82,14.42,125,6.3,296.1,337.7,298.6
995.6,186,22.5,19.4,83,14.43,125,6.3,296.0,337.8,298.6
995.0,191,22.5,19.4,83,14.42,125,6.3,296.1,337.7,298.6
994.5,195,22.4,19.4,83,14.42,126,6.3,296.1,337.7,298.6
994.0,200,22.4,19.4,83,14.42,126,6.3,296.0,337.7,298.6
993.4,205,22.4,19.4,83,14.43,126,6.3,296.1,337.8,298.6
992.9,210,22.3,19.4,84,14.46,126,6.2,296.1,337.8,298.6
992.3,215,22.3,19.4,84,14.44,127,6.2,296.1,337.8,298.6
991.8,219,22.2,19.4,84,14.41,127,6.2,296.1,337.7,298.6
991.3,224,22.2,19.4,84,14.44,127,6.2,296.0,337.8,298.6
990.8,228,22.1,19.4,85,14.48,128,6.2,296.1,337.9,298.6
990.3,233,22.1,19.4,85,14.49,128,6.1,296.1,337.9,298.6
989.8,237,22.0,19.4,85,14.50,128,6.1,296.1,338.0,298.6
989.3,242,22.0,19.4,85,14.51,129,6.1,296.1,338.0,298.6
988.7,246,22.0,19.4,85,14.50,129,6.1,296.1,338.0,298.6
988.2,251,21.9,19.4,86,14.49,129,6.1,296.1,338.0,298.6
987.7,255,21.9,19.4,86,14.50,130,6.1,296.1,338.0,298.6
987.1,260,21.8,19.4,86,14.52,130,6.1,296.1,338.0,298.6
986.6,265,21.8,19.4,86,14.52,130,6.1,296.1,338.0,298.6
986.0,270,21.7,19.4,87,14.52,130,6.2,296.1,338.0,298.6
985.5,275,21.7,19.4,87,14.50,131,6.2,296.1,338.0,298.6
984.9,280,21.6,19.3,87,14.48,131,6.2,296.1,337.9,298.6
984.4,285,21.6,19.3,87,14.45,131,6.2,296.1,337.8,298.6
983.8,289,21.5,19.3,87,14.43,131,6.3,296.1,337.8,298.6
983.3,294,21.5,19.2,87,14.41,131,6.3,296.1,337.7,298.6
982.7,299,21.4,19.2,87,14.38,131,6.3,296.1,337.6,298.6
982.1,304,21.4,19.2,87,14.37,131,6.4,296.1,337.6,298.6
981.6,309,21.4,19.2,87,14.39,130,6.4,296.1,337.7,298.6
981.0,315,21.3,19.2,88,14.43,130,6.4,296.1,337.8,298.6
980.4,320,21.3,19.3,88,14.48,130,6.5,296.1,337.9,298.6
979.7,326,21.2,19.3,89,14.49,130,6.5,296.1,338.0,298.6
979.1,331,21.1,19.2,89,14.47,130,6.5,296.1,337.9,298.6
978.5,337,21.1,19.2,89,14.43,129,6.5,296.1,337.8,298.6
977.9,342,21.0,19.1,89,14.39,129,6.5,296.1,337.6,298.6
977.2,348,21.0,19.1,89,14.38,129,6.5,296.1,337.6,298.6
976.6,353,20.9,19.1,89,14.38,129,6.6,296.0,337.6,298.6
976.0,359,20.8,19.0,89,14.34,128,6.6,296.0,337.5,298.6
975.5,364,20.8,19.0,89,14.31,128,6.5,296.0,337.4,298.6
974.9,368,20.8,19.0,90,14.31,128,6.5,296.0,337.4,298.6
974.4,373,20.7,19.0,90,14.35,128,6.5,296.0,337.5,298.6
973.9,377,20.7,19.1,90,14.40,127,6.5,296.1,337.7,298.6
973.4,382,20.6,19.1,91,14.46,127,6.5,296.1,337.8,298.6
972.9,386,20.6,19.1,91,14.48,127,6.5,296.1,337.9,298.6
972.4,391,20.5,19.1,92,14.50,127,6.4,296.0,338.0,298.6
971.9,396,20.5,19.1,92,14.50,126,6.4,296.0,337.9,298.6
971.4,400,20.4,19.1,92,14.46,126,6.3,296.0,337.8,298.6
970.8,405,20.4,19.0,92,14.38,126,6.3,296.0,337.6,298.6
970.3,410,20.4,18.9,91,14.30,125,6.2,296.0,337.4,298.6
969.8,414,20.3,18.8,91,14.25,125,6.2,296.1,337.3,298.6
969.3,419,20.3,18.8,91,14.26,125,6.2,296.1,337.3,298.6
968.8,423,20.2,18.8,92,14.28,125,6.1,296.1,337.3,298.6
968.2,428,20.2,18.8,92,14.28,125,6.1,296.1,337.3,298.6
967.7,433,20.2,18.8,92,14.26,124,6.0,296.1,337.3,298.6
967.2,438,20.1,18.8,92,14.22,124,6.0,296.1,337.2,298.6
966.6,443,20.1,18.7,92,14.20,124,5.9,296.1,337.1,298.6
966.0,448,20.0,18.7,92,14.20,124,5.9,296.1,337.1,298.6
965.4,454,19.9,18.7,93,14.20,124,5.9,296.1,337.1,298.6
964.8,459,19.9,18.7,93,14.21,124,5.8,296.0,337.1,298.6
964.1,465,19.8,18.7,93,14.20,124,5.8,296.0,337.1,298.6
963.6,470,19.8,18.7,93,14.19,124,5.8,296.0,337.1,298.6
963.0,475,19.7,18.7,94,14.20,124,5.8,296.0,337.1,298.6
962.5,479,19.7,18.7,94,14.20,124,5.7,296.0,337.1,298.6
962.0,484,19.7,18.6,94,14.18,124,5.7,296.1,337.1,298.6
961.6,488,19.6,18.6,94,14.14,124,5.7,296.1,336.9,298.6
961.1,492,19.6,18.5,94,14.10,125,5.6,296.1,336.9,298.6
960.7,496,19.6,18.4,93,14.04,125,5.6,296.1,336.7,298.6
960.3,500,19.6,18.3,93,13.94,125,5.6,296.1,336.4,298.6
959.8,504,19.6,18.2,92,13.79,125,5.5,296.2,336.1,298.6
959.4,508,19.6,18.0,91,13.67,126,5.5,296.2,335.7,298.6
958.9,512,19.6,17.9,90,13.56,126,5.5,296.2,335.5,298.6
958.4,516,19.6,17.8,89,13.47,127,5.4,296.3,335.3,298.7
957.9,521,19.5,17.7,89,13.43,127,5.4,296.3,335.2,298.7
957.4,525,19.5,17.7,89,13.44,127,5.4,296.3,335.2,298.7
956.9,530,19.5,17.7,90,13.46,128,5.3,296.3,335.3,298.7
956.4,534,19.4,17.7,90,13.46,128,5.3,296.3,335.3,298.7
955.9,539,19.4,17.7,90,13.42,128,5.2,296.3,335.2,298.7
955.5,543,19.3,17.6,90,13.40,129,5.2,296.3,335.1,298.7
955.0,547,19.3,17.6,90,13.41,129,5.1,296.3,335.1,298.7
954.5,551,19.3,17.6,90,13.40,129,5.1,296.3,335.1,298.7
954.1,556,19.2,17.6,90,13.40,130,5.1,296.3,335.1,298.7
953.6,560,19.2,17.6,91,13.42,130,5.0,296.3,335.2,298.7
953.1,564,19.1,17.6,91,13.42,130,5.0,296.3,335.2,298.7
952.6,568,19.1,17.6,91,13.41,130,4.9,296.3,335.2,298.7
952.2,573,19.1,17.6,91,13.39,130,4.9,296.3,335.1,298.7
951.7,577,19.0,17.5,91,13.36,130,4.9,296.3,335.0,298.7
951.2,582,19.0,17.5,91,13.35,130,4.8,296.3,335.0,298.7
950.7,586,18.9,17.5,92,13.39,130,4.8,296.3,335.1,298.7
950.2,591,18.9,17.6,93,13.48,130,4.8,296.3,335.4,298.7
949.7,595,18.8,17.8,94,13.61,130,4.7,296.3,335.7,298.7
949.1,600,18.7,17.9,95,13.68,130,4.7,296.3,335.9,298.7
948.6,605,18.7,17.8,94,13.62,130,4.7,296.3,335.7,298.7
948.1,609,18.6,17.6,94,13.49,129,4.7,296.3,335.3,298.7
947.6,614,18.6,17.5,93,13.41,129,4.6,296.3,335.1,298.7
947.1,619,18.6,17.5,93,13.40,129,4.6,296.3,335.1,298.7
946.5,624,18.6,17.5,94,13.42,129,4.6,296.3,335.2,298.7
946.0,629,18.5,17.6,94,13.47,129,4.6,296.3,335.3,298.7
945.5,634,18.5,17.6,95,13.50,129,4.5,296.3,335.4,298.7
944.9,639,18.4,17.6,95,13.48,129,4.5,296.3,335.4,298.7
944.3,644,18.4,17.5,94,13.41,128,4.5,296.3,335.2,298.7
943.8,649,18.3,17.3,94,13.28,128,4.5,296.3,334.8,298.7
943.2,654,18.3,17.1,93,13.15,128,4.4,296.4,334.5,298.7
942.6,659,18.3,17.1,93,13.11,128,4.4,296.4,334.4,298.7
942.1,664,18.2,17.1,93,13.15,128,4.3,296.4,334.5,298.7
941.5,669,18.2,17.2,94,13.24,128,4.3,296.4,334.7,298.7
941.0,674,18.1,17.3,95,13.31,128,4.2,296.4,334.9,298.7
940.4,680,18.1,17.3,95,13.34,128,4.2,296.4,335.0,298.7
939.8,685,18.0,17.3,96,13.32,129,4.1,296.4,334.9,298.7
939.2,691,18.0,17.2,95,13.25,129,4.0,296.4,334.7,298.7
938.6,696,17.9,17.1,95,13.17,129,4.0,296.4,334.5,298.7
938.0,702,17.9,17.1,95,13.17,129,3.9,296.4,334.6,298.8
937.4,707,17.8,17.1,95,13.20,129,3.8,296.4,334.7,298.8
936.8,713,17.8,17.0,95,13.15,130,3.7,296.4,334.5,298.7
936.2,718,17.7,16.8,94,12.98,130,3.6,296.4,334.0,298.7
935.6,723,17.8,16.6,93,12.82,130,3.6,296.5,333.6,298.8
935.0,729,17.8,16.5,93,12.77,131,3.5,296.5,333.6,298.8
934.5,734,17.7,16.5,92,12.72,131,3.4,296.6,333.5,298.8
933.9,739,17.7,16.3,92,12.62,132,3.3,296.6,333.2,298.9
933.3,744,17.7,16.3,91,12.55,133,3.2,296.6,333.1,298.9
932.8,750,17.7,16.2,91,12.53,134,3.1,296.6,333.0,298.9
932.2,755,17.6,16.2,91,12.48,135,3.1,296.7,332.9,298.9
931.6,760,17.6,16.0,90,12.40,136,3.0,296.7,332.7,298.9
931.1,765,17.6,15.8,89,12.24,137,2.9,296.8,332.3,298.9
930.5,770,17.7,15.5,87,12.02,138,2.8,296.8,331.8,299.0
930.0,775,17.7,15.2,85,11.75,139,2.8,296.9,331.1,299.0
929.4,780,17.8,14.8,83,11.44,140,2.7,297.0,330.4,299.1
928.9,785,17.8,14.4,81,11.17,142,2.7,297.1,329.7,299.1
928.4,790,17.8,14.2,79,11.03,143,2.6,297.2,329.3,299.2
927.8,795,17.8,14.2,79,11.01,145,2.6,297.2,329.4,299.2
927.3,800,17.8,14.3,80,11.09,146,2.5,297.3,329.6,299.3
926.8,805,17.7,14.4,81,11.18,148,2.5,297.3,329.9,299.3
926.3,810,17.7,14.4,81,11.17,149,2.5,297.3,329.9,299.3
925.8,814,17.7,14.2,80,11.06,150,2.5,297.3,329.5,299.3
925.2,819,17.6,14.0,79,10.93,151,2.5,297.3,329.2,299.3
925.0,821,17.6,14.0,79,10.91,152,2.5,297.3,329.2,299.3
924.7,824,17.6,13.9,79,10.87,152,2.5,297.3,329.1,299.3
924.2,829,17.6,13.9,79,10.87,153,2.5,297.3,329.1,299.3
923.6,834,17.5,14.0,80,10.95,154,2.5,297.4,329.3,299.3
923.1,839,17.5,14.2,81,11.08,155,2.5,297.4,329.7,299.3
922.6,844,17.4,14.3,82,11.18,155,2.5,297.4,330.0,299.4
922.0,849,17.4,14.3,82,11.20,155,2.5,297.4,330.1,299.4
921.5,854,17.4,14.3,82,11.20,155,2.5,297.4,330.1,299.4
920.9,859,17.3,14.4,83,11.25,155,2.6,297.4,330.2,299.4
920.4,864,17.3,14.4,83,11.31,155,2.6,297.4,330.4,299.4
919.9,869,17.3,14.5,84,11.33,155,2.6,297.4,330.5,299.5
919.3,874,17.2,14.4,84,11.31,154,2.6,297.4,330.5,299.5
918.8,879,17.2,14.4,83,11.26,154,2.7,297.5,330.3,299.5
918.2,884,17.2,14.2,83,11.17,153,2.7,297.5,330.1,299.5
917.7,890,17.1,14.0,82,11.03,153,2.7,297.5,329.7,299.5
917.1,895,17.1,13.8,81,10.88,152,2.8,297.5,329.3,299.5
916.6,900,17.1,13.7,80,10.84,152,2.8,297.6,329.3,299.5
916.1,904,17.1,13.9,81,10.94,151,2.8,297.6,329.6,299.6
915.6,909,17.1,14.1,83,11.11,151,2.8,297.6,330.1,299.6
915.1,914,17.0,14.3,84,11.27,151,2.9,297.6,330.5,299.6
914.6,919,17.0,14.4,85,11.37,150,2.9,297.6,330.8,299.6
914.0,923,16.9,14.4,85,11.39,150,2.9,297.6,330.9,299.6
913.5,928,16.9,14.4,85,11.37,150,2.9,297.6,330.8,299.6
913.0,933,16.8,14.4,85,11.33,150,3.0,297.6,330.7,299.6
912.5,938,16.8,14.3,85,11.27,150,3.0,297.6,330.5,299.6
912.0,943,16.8,14.1,84,11.17,151,3.0,297.7,330.3,299.6
911.5,947,16.8,14.0,84,11.09,151,3.0,297.7,330.1,299.7
911.0,952,16.7,13.9,84,11.05,151,3.0,297.7,330.0,299.7
910.5,957,16.7,13.8,83,10.96,152,3.0,297.7,329.8,299.7
910.0,961,16.7,13.6,82,10.80,152,3.0,297.8,329.4,299.7
909.5,966,16.7,13.3,80,10.60,153,3.1,297.8,328.8,299.7
909.1,970,16.7,13.0,79,10.43,153,3.1,297.8,328.4,299.7
908.6,974,16.7,12.9,78,10.32,154,3.1,297.9,328.1,299.7
908.1,979,16.7,12.7,77,10.22,154,3.1,298.0,327.9,299.8
907.7,983,16.8,12.6,76,10.16,155,3.1,298.1,327.9,299.9
907.2,987,16.8,12.6,76,10.15,155,3.2,298.1,327.9,300.0
906.7,992,16.8,12.7,77,10.21,156,3.2,298.2,328.1,300.0
906.3,996,16.8,12.8,77,10.30,156,3.2,298.2,328.4,300.0
905.8,1001,16.7,12.9,78,10.39,156,3.3,298.2,328.6,300.0
905.3,1006,16.7,12.9,79,10.41,156,3.3,298.2,328.7,300.0
904.8,1011,16.7,12.9,78,10.38,156,3.4,298.2,328.6,300.1
904.2,1016,16.6,12.8,78,10.35,156,3.4,298.2,328.6,300.1
903.7,1021,16.6,12.9,79,10.38,155,3.5,298.3,328.7,300.1
903.1,1026,16.6,12.9,79,10.43,155,3.6,298.3,328.9,300.2
902.6,1031,16.5,13.0,79,10.46,155,3.7,298.3,329.0,300.2
902.0,1036,16.5,13.0,80,10.46,154,3.7,298.3,329.0,300.2
901.5,1041,16.4,12.9,80,10.43,153,3.8,298.3,328.9,300.2
901.0,1046,16.4,12.8,79,10.37,153,3.9,298.3,328.8,300.2
900.5,1051,16.4,12.7,79,10.29,152,4.0,298.4,328.6,300.2
900.0,1055,16.4,12.6,78,10.22,151,4.1,298.4,328.4,300.3
899.6,1060,16.4,12.5,78,10.20,150,4.2,298.5,328.4,300.3
899.1,1064,16.4,12.5,78,10.21,149,4.4,298.5,328.5,300.3
898.7,1068,16.4,12.5,78,10.22,149,4.5,298.5,328.5,300.3
898.2,1072,16.4,12.5,78,10.21,148,4.6,298.5,328.6,300.4
897.8,1076,16.3,12.5,78,10.21,147,4.7,298.5,328.5,300.4
897.3,1081,16.3,12.5,78,10.20,146,4.8,298.6,328.6,300.4
896.8,1085,16.3,12.5,78,10.21,146,4.9,298.6,328.6,300.4
896.4,1090,16.3,12.5,78,10.22,145,5.0,298.6,328.7,300.4
895.9,1095,16.2,12.5,78,10.21,144,5.2,298.6,328.6,300.4
895.4,1100,16.2,12.4,78,10.16,144,5.3,298.6,328.5,300.4
894.9,1104,16.2,12.3,78,10.12,143,5.4,298.6,328.4,300.5
894.4,1109,16.1,12.3,78,10.10,143,5.5,298.7,328.3,300.5
893.9,1114,16.1,12.3,78,10.08,142,5.5,298.7,328.3,300.5
893.4,1118,16.1,12.3,78,10.09,142,5.6,298.7,328.4,300.5
892.9,1123,16.1,12.3,78,10.13,142,5.7,298.7,328.5,300.5
892.4,1128,16.0,12.3,79,10.15,142,5.8,298.7,328.6,300.6
891.9,1133,16.0,12.3,79,10.14,141,5.8,298.7,328.6,300.6
891.3,1138,15.9,12.2,79,10.10,141,5.9,298.8,328.5,300.6
890.8,1143,15.9,12.1,78,10.03,141,5.9,298.8,328.3,300.6
890.3,1148,15.9,12.0,78,9.94,141,5.9,298.8,328.1,300.6
889.8,1152,15.9,11.9,77,9.87,141,6.0,298.9,327.9,300.6
889.4,1157,15.9,11.9,77,9.88,141,6.0,298.9,328.0,300.7
888.9,1161,15.9,12.0,78,9.94,141,6.0,298.9,328.2,300.7
888.5,1165,15.9,12.0,78,9.99,141,6.0,298.9,328.4,300.7
888.0,1170,15.8,12.1,78,10.01,141,6.0,299.0,328.5,300.8
887.6,1174,15.8,12.0,78,10.00,141,5.9,299.0,328.4,300.8
887.2,1178,15.8,12.0,78,9.97,141,5.9,299.0,328.4,300.8
886.8,1182,15.8,11.9,78,9.94,141,5.9,299.0,328.3,300.8
886.3,1186,15.8,11.9,78,9.93,141,5.8,299.0,328.3,300.8
885.9,1190,15.7,11.9,78,9.94,142,5.8,299.1,328.4,300.8
885.5,1194,15.7,11.9,78,9.96,142,5.7,299.1,328.4,300.9
885.0,1198,15.7,11.9,78,9.95,142,5.7,299.1,328.4,300.9
884.6,1203,15.6,11.9,78,9.91,142,5.6,299.1,328.3,300.9
884.2,1207,15.6,11.7,77,9.82,142,5.5,299.1,328.1,300.9
883.7,1211,15.6,11.6,77,9.74,142,5.5,299.2,327.9,300.9
883.3,1215,15.6,11.5,77,9.72,142,5.4,299.2,327.9,301.0
882.8,1220,15.6,11.6,77,9.74,142,5.3,299.2,328.0,301.0
882.4,1224,15.6,11.6,77,9.75,142,5.3,299.2,328.0,301.0
881.9,1229,15.6,11.4,76,9.67,142,5.2,299.3,327.8,301.0
881.4,1233,15.6,11.2,75,9.52,142,5.1,299.3,327.4,301.0
880.9,1238,15.5,11.1,75,9.44,142,5.1,299.3,327.2,301.0
880.4,1243,15.5,11.1,75,9.45,142,5.0,299.3,327.3,301.1
879.8,1248,15.5,11.1,75,9.50,142,5.0,299.4,327.4,301.1
879.3,1253,15.4,11.2,76,9.53,143,5.0,299.4,327.5,301.1
878.8,1259,15.4,11.1,76,9.50,143,4.9,299.4,327.4,301.1
878.2,1264,15.4,11.0,75,9.44,143,4.9,299.4,327.3,301.1
877.7,1269,15.3,10.9,75,9.39,144,4.9,299.4,327.2,301.1
877.2,1274,15.3,10.9,75,9.35,144,4.9,299.5,327.1,301.1
876.7,1278,15.3,10.8,74,9.30,145,4.9,299.5,327.0,301.2
876.3,1283,15.3,10.6,74,9.22,145,4.9,299.5,326.8,301.2
875.8,1288,15.3,10.4,73,9.09,146,4.9,299.6,326.5,301.2
875.3,1292,15.3,10.2,72,8.96,147,5.0,299.6,326.2,301.2
874.9,1297,15.3,10.1,71,8.91,147,5.0,299.7,326.1,301.3
874.4,1301,15.3,10.1,71,8.91,148,5.0,299.7,326.1,301.3
874.0,1305,15.3,10.1,71,8.92,149,5.1,299.7,326.2,301.3
873.5,1310,15.3,10.1,71,8.90,150,5.1,299.8,326.2,301.4
873.1,1314,15.3,10.0,71,8.88,151,5.2,299.8,326.2,301.4
872.7,1318,15.3,10.0,71,8.86,151,5.3,299.9,326.2,301.5
872.3,1322,15.3,10.0,71,8.84,152,5.4,299.9,326.1,301.5
871.9,1326,15.3,9.9,70,8.83,153,5.4,299.9,326.1,301.5
871.4,1330,15.2,9.9,71,8.84,153,5.5,300.0,326.2,301.6
871.0,1334,15.2,10.0,71,8.89,154,5.6,300.0,326.4,301.6
870.6,1338,15.2,10.1,72,8.96,155,5.7,300.0,326.6,301.6
870.2,1342,15.2,10.2,72,9.02,155,5.8,300.0,326.8,301.7
869.7,1347,15.2,10.2,72,9.04,155,5.8,300.1,326.9,301.7
869.2,1351,15.1,10.2,73,9.05,156,5.9,300.1,326.9,301.7
868.7,1356,15.1,10.3,73,9.06,156,6.0,300.0,326.9,301.7
868.2,1361,15.0,10.2,73,9.06,156,6.0,300.1,326.9,301.7
867.7,1366,15.0,10.2,73,9.03,156,6.1,300.1,326.9,301.7
867.2,1371,15.0,10.1,72,8.98,156,6.1,300.1,326.8,301.7
866.7,1377,15.0,10.0,72,8.92,156,6.2,300.2,326.7,301.8
866.1,1382,15.0,9.9,72,8.90,156,6.2,300.2,326.7,301.9
865.6,1387,15.0,10.0,72,8.93,155,6.3,300.3,326.8,301.9
865.1,1392,15.0,10.0,72,8.96,155,6.3,300.3,327.0,301.9
864.6,1397,15.0,10.1,72,8.99,155,6.3,300.3,327.0,302.0
864.1,1402,14.9,10.1,73,9.01,155,6.3,300.4,327.1,302.0
863.6,1407,14.9,10.1,73,9.03,154,6.3,300.4,327.2,302.0
863.1,1411,14.9,10.1,73,9.03,154,6.4,300.4,327.2,302.0
862.6,1416,14.8,10.1,73,9.04,153,6.4,300.4,327.2,302.0
862.2,1420,14.8,10.1,73,9.03,153,6.4,300.4,327.2,302.0
861.7,1425,14.8,10.1,73,9.02,152,6.4,300.4,327.2,302.0
861.3,1429,14.7,10.1,74,9.04,152,6.4,300.4,327.3,302.1
860.9,1434,14.7,10.1,74,9.07,152,6.4,300.4,327.4,302.0
860.4,1438,14.6,10.2,75,9.10,151,6.4,300.4,327.5,302.0
860.0,1442,14.6,10.2,75,9.11,151,6.3,300.4,327.5,302.0
859.5,1447,14.6,10.1,75,9.09,151,6.3,300.4,327.4,302.1
859.0,1451,14.5,10.1,75,9.08,150,6.4,300.4,327.4,302.1
858.6,1456,14.5,10.1,75,9.07,150,6.4,300.5,327.4,302.1
858.1,1460,14.5,10.0,75,9.04,150,6.4,300.5,327.4,302.1
857.7,1465,14.5,10.0,74,9.00,150,6.4,300.5,327.3,302.1
857.2,1470,14.5,9.9,74,8.95,150,6.4,300.5,327.2,302.2
856.7,1474,14.5,9.8,73,8.89,150,6.4,300.6,327.1,302.2
856.2,1479,14.4,9.7,73,8.86,150,6.4,300.6,327.0,302.2
855.8,1484,14.4,9.7,73,8.87,150,6.5,300.6,327.0,302.2
855.3,1488,14.4,9.7,73,8.86,150,6.5,300.7,327.0,302.3
854.9,1492,14.3,9.6,73,8.83,150,6.5,300.7,327.0,302.3
854.4,1497,14.3,9.6,73,8.79,150,6.6,300.7,326.9,302.3
854.0,1501,14.3,9.5,73,8.76,150,6.6,300.7,326.8,302.3
853.6,1505,14.3,9.5,73,8.76,150,6.7,300.7,326.8,302.3
853.2,1509,14.3,9.5,73,8.75,151,6.7,300.7,326.8,302.3
852.7,1514,14.2,9.4,73,8.74,151,6.8,300.8,326.8,302.4
852.3,1518,14.2,9.4,73,8.74,151,6.8,300.8,326.8,302.4
851.9,1522,14.2,9.5,73,8.76,151,6.9,300.8,326.9,302.4
851.5,1526,14.1,9.5,74,8.79,152,7.0,300.8,327.0,302.4
851.0,1531,14.1,9.5,74,8.80,152,7.0,300.8,327.0,302.4
850.6,1535,14.1,9.4,74,8.75,152,7.1,300.8,326.9,302.4
850.2,1539,14.1,9.3,73,8.68,152,7.1,300.8,326.7,302.4
850.0,1541,14.1,9.3,73,8.66,153,7.2,300.9,326.7,302.4
849.7,1544,14.1,9.2,72,8.61,153,7.2,300.9,326.6,302.4
849.3,1548,14.1,9.1,72,8.56,153,7.2,300.9,326.5,302.5
848.8,1553,14.1,9.0,71,8.49,153,7.3,301.0,326.3,302.5
848.3,1558,14.1,8.8,71,8.42,153,7.3,301.1,326.2,302.6
847.8,1562,14.1,8.7,70,8.37,153,7.3,301.1,326.1,302.6
847.3,1567,14.1,8.7,70,8.34,154,7.4,301.2,326.1,302.7
846.9,1572,14.1,8.6,70,8.33,154,7.4,301.2,326.1,302.7
846.4,1577,14.1,8.7,70,8.34,154,7.4,301.2,326.2,302.7
845.9,1582,14.0,8.6,70,8.34,154,7.4,301.2,326.2,302.7
845.4,1587,14.0,8.6,70,8.33,154,7.4,301.3,326.2,302.8
844.9,1591,14.0,8.6,70,8.32,154,7.4,301.3,326.2,302.8
844.4,1597,13.9,8.6,70,8.32,154,7.4,301.3,326.2,302.8
843.9,1602,13.9,8.5,70,8.31,154,7.4,301.3,326.1,302.8
843.4,1607,13.9,8.4,70,8.25,154,7.4,301.3,326.0,302.8
842.9,1612,13.8,8.2,69,8.14,155,7.4,301.3,325.7,302.8
842.4,1616,13.8,8.0,68,8.01,155,7.4,301.4,325.4,302.8
842.0,1621,13.8,7.8,67,7.93,155,7.4,301.4,325.2,302.9
841.5,1626,13.8,7.8,67,7.94,155,7.3,301.5,325.3,302.9
841.1,1630,13.8,7.9,67,7.97,155,7.3,301.5,325.4,303.0
840.7,1634,13.8,7.9,67,7.99,155,7.3,301.6,325.5,303.0
840.3,1638,13.8,7.9,67,7.98,156,7.3,301.6,325.5,303.0
839.9,1642,13.8,7.9,67,7.96,156,7.3,301.6,325.5,303.1
839.5,1646,13.8,7.8,67,7.94,156,7.3,301.7,325.5,303.1
839.1,1650,13.8,7.7,67,7.90,156,7.4,301.7,325.4,303.2
838.7,1654,13.8,7.6,66,7.84,157,7.4,301.8,325.3,303.2
838.3,1658,13.8,7.4,65,7.74,157,7.4,301.8,325.1,303.2
837.9,1662,13.8,7.2,64,7.64,158,7.4,301.9,324.8,303.2
837.5,1666,13.8,7.1,64,7.56,158,7.4,301.9,324.6,303.3
837.1,1670,13.9,6.9,63,7.49,158,7.4,302.0,324.5,303.3
836.6,1675,13.9,6.8,62,7.44,159,7.5,302.0,324.4,303.4
836.2,1679,13.8,6.8,62,7.41,159,7.5,302.0,324.4,303.4
835.8,1683,13.8,6.8,62,7.42,159,7.5,302.1,324.4,303.4
835.3,1688,13.8,6.8,63,7.45,160,7.5,302.1,324.5,303.4
834.9,1692,13.8,6.8,63,7.46,160,7.5,302.1,324.6,303.5
834.4,1697,13.7,6.8,63,7.46,160,7.5,302.1,324.6,303.5
834.0,1701,13.7,6.8,63,7.43,161,7.5,302.1,324.5,303.5
833.6,1706,13.7,6.7,63,7.40,161,7.6,302.2,324.5,303.5
833.1,1710,13.7,6.6,62,7.38,161,7.5,302.2,324.4,303.5
