PRES,HGHT,TEMP,DWPT,RELH,MIXR,DRCT,SPED,THTA,THTE,THTV
1016.6,31,27.1,21.6,72,16.23,42,4.5,298.8,346.3,301.7
1016.1,35,26.2,22.0,78,16.62,49,4.1,298.0,346.4,301.0
1015.6,39,25.5,22.0,81,16.57,51,4.3,297.4,345.5,300.3
1014.9,45,25.1,21.9,82,16.51,51,4.5,297.0,344.9,299.9
1014.3,50,25.1,21.8,82,16.45,51,4.9,297.0,344.8,299.9
1013.7,56,25.1,21.7,81,16.31,51,5.2,297.1,344.4,300.0
1013.0,62,25.0,21.5,81,16.13,51,5.5,297.1,343.9,299.9
1012.4,67,24.9,21.3,80,15.94,51,5.8,297.0,343.3,299.8
1011.8,72,24.8,21.1,80,15.77,51,6.0,296.9,342.7,299.7
1011.2,77,24.6,21.0,80,15.63,51,6.3,296.8,342.2,299.6
1010.7,82,24.4,20.9,81,15.55,51,6.5,296.7,341.8,299.4
1010.1,87,24.3,20.9,81,15.55,51,6.7,296.6,341.6,299.3
1009.6,91,24.2,20.9,82,15.59,52,6.9,296.5,341.6,299.3
1009.1,96,24.1,20.9,82,15.57,52,7.1,296.5,341.6,299.3
1008.6,100,24.1,20.8,82,15.48,52,7.2,296.5,341.3,299.3
1008.1,105,24.1,20.7,81,15.40,52,7.3,296.5,341.1,299.2
1007.5,110,24.0,20.6,81,15.33,52,7.4,296.5,340.9,299.3
1007.0,114,24.0,20.5,81,15.23,52,7.5,296.5,340.6,299.2
1006.4,119,23.9,20.4,80,15.13,52,7.5,296.5,340.4,299.2
1005.8,124,23.9,20.3,80,15.06,52,7.5,296.5,340.2,299.2
1005.2,129,23.9,20.2,80,15.03,52,7.5,296.6,340.1,299.2
1004.6,135,23.8,20.2,80,15.03,52,7.5,296.6,340.1,299.2
1004.0,140,23.8,20.2,81,15.05,52,7.5,296.6,340.2,299.2
1003.4,145,23.7,20.3,81,15.09,53,7.5,296.6,340.3,299.3
1002.8,150,23.7,20.3,81,15.11,53,7.4,296.6,340.3,299.3
1002.3,156,23.6,20.3,82,15.13,53,7.4,296.6,340.4,299.2
1001.7,161,23.6,20.3,82,15.14,53,7.3,296.6,340.4,299.2
1001.1,166,23.5,20.3,82,15.14,53,7.3,296.5,340.4,299.2
1000.5,171,23.5,20.3,82,15.11,53,7.2,296.6,340.3,299.2
1000.0,175,23.4,20.2,82,15.10,53,7.2,296.6,340.3,299.2
999.9,176,23.4,20.2,82,15.09,54,7.2,296.6,340.3,299.2
999.3,181,23.4,20.2,82,15.07,54,7.1,296.6,340.2,299.2
998.7,187,23.3,20.2,82,15.04,54,7.0,296.6,340.1,299.2
998.1,192,23.3,20.2,83,15.07,54,7.0,296.6,340.2,299.2
997.5,197,23.2,20.2,83,15.15,55,6.9,296.6,340.4,299.2
997.0,202,23.1,20.3,84,15.19,55,6.9,296.5,340.5,299.2
996.4,207,23.1,20.2,84,15.16,55,6.9,296.5,340.4,299.2
995.8,212,23.1,20.2,84,15.12,55,6.8,296.6,340.3,299.2
995.2,217,23.0,20.2,84,15.10,56,6.8,296.6,340.3,299.2
994.6,222,23.0,20.1,84,15.08,56,6.8,296.6,340.3,299.3
994.0,228,22.9,20.1,84,15.11,56,6.8,296.6,340.3,299.3
993.4,233,22.9,20.2,85,15.19,56,6.8,296.6,340.6,299.3
992.8,238,22.8,20.3,86,15.26,57,6.8,296.6,340.8,299.3
992.2,244,22.7,20.3,86,15.29,57,6.8,296.6,340.8,299.3
991.6,249,22.7,20.3,87,15.33,57,6.8,296.5,340.9,299.3
990.9,255,22.6,20.4,87,15.40,57,6.8,296.5,341.1,299.3
990.3,261,22.6,20.4,88,15.42,57,6.8,296.5,341.2,299.3
989.6,266,22.5,20.3,88,15.36,57,6.8,296.5,341.0,299.3
989.0,272,22.4,20.3,88,15.30,57,6.8,296.5,340.8,299.2
988.3,278,22.4,20.2,88,15.27,57,6.8,296.5,340.7,299.2
987.6,284,22.3,20.2,88,15.25,57,6.8,296.5,340.7,299.3
986.9,290,22.3,20.2,88,15.25,57,6.8,296.6,340.7,299.3
986.2,297,22.2,20.2,88,15.27,57,6.8,296.6,340.8,299.3
985.5,303,22.2,20.2,89,15.30,57,6.8,296.6,340.9,299.3
984.8,309,22.1,20.2,89,15.29,57,6.8,296.6,340.8,299.3
984.0,316,22.1,20.1,89,15.25,57,6.8,296.6,340.7,299.3
983.4,322,22.0,20.1,89,15.19,57,6.8,296.6,340.5,299.3
982.7,328,21.9,20.0,89,15.15,57,6.8,296.6,340.4,299.3
982.1,333,21.9,20.0,89,15.12,56,6.8,296.6,340.4,299.3
981.5,338,21.9,19.9,89,15.10,56,6.8,296.6,340.3,299.3
981.0,343,21.8,19.9,89,15.11,56,6.7,296.6,340.4,299.3
980.5,347,21.8,20.0,89,15.15,56,6.7,296.6,340.5,299.3
980.0,352,21.7,20.0,90,15.19,56,6.7,296.6,340.6,299.3
979.5,356,21.7,20.0,90,15.21,56,6.6,296.6,340.6,299.3
979.1,360,21.7,20.0,90,15.21,56,6.6,296.6,340.6,299.3
978.6,364,21.6,20.0,91,15.21,56,6.5,296.6,340.6,299.3
978.1,369,21.6,20.0,91,15.21,56,6.5,296.6,340.7,299.3
977.6,373,21.5,20.0,91,15.19,57,6.5,296.6,340.6,299.3
977.1,378,21.5,19.9,91,15.15,57,6.4,296.6,340.5,299.3
976.6,382,21.5,19.9,90,15.10,57,6.4,296.6,340.4,299.3
976.1,387,21.4,19.8,91,15.09,58,6.3,296.6,340.4,299.3
975.5,391,21.4,19.9,91,15.14,58,6.3,296.6,340.5,299.3
975.0,396,21.3,19.9,92,15.21,59,6.2,296.6,340.7,299.3
974.5,400,21.3,19.9,92,15.20,60,6.2,296.6,340.6,299.3
974.0,405,21.2,19.9,92,15.17,60,6.1,296.6,340.6,299.3
973.6,409,21.2,19.9,92,15.15,61,6.1,296.6,340.5,299.3
973.1,413,21.2,19.8,92,15.12,62,6.0,296.6,340.4,299.3
972.6,418,21.1,19.8,92,15.07,63,6.0,296.6,340.3,299.3
972.1,422,21.1,19.7,92,15.04,64,6.0,296.6,340.2,299.3
971.6,426,21.1,19.7,92,15.01,65,5.9,296.7,340.1,299.3
971.1,431,21.0,19.7,92,15.00,67,5.9,296.7,340.1,299.3
970.6,435,21.0,19.6,92,14.99,68,5.9,296.7,340.1,299.3
970.1,440,21.0,19.6,92,14.96,69,5.9,296.7,340.0,299.3
969.6,444,20.9,19.6,92,14.94,70,5.9,296.7,340.0,299.3
969.1,449,20.9,19.6,92,14.94,71,6.0,296.7,340.0,299.3
968.6,453,20.8,19.5,92,14.93,72,6.0,296.7,340.0,299.3
968.1,458,20.8,19.5,92,14.89,73,6.0,296.7,339.8,299.3
967.7,462,20.8,19.5,92,14.88,73,6.0,296.7,339.8,299.3
967.2,466,20.7,19.5,93,14.92,74,6.1,296.7,339.9,299.3
966.8,469,20.7,19.5,93,14.96,75,6.1,296.7,340.0,299.3
966.4,473,20.7,19.6,94,15.03,75,6.2,296.7,340.2,299.4
966.0,477,20.6,19.7,94,15.08,76,6.2,296.7,340.4,299.3
965.5,481,20.6,19.7,95,15.14,76,6.3,296.7,340.5,299.4
965.1,485,20.5,19.7,95,15.16,76,6.4,296.6,340.6,299.3
964.6,489,20.5,19.6,95,15.04,76,6.4,296.6,340.2,299.3
964.1,494,20.4,19.3,93,14.74,76,6.5,296.7,339.4,299.3
963.6,498,20.5,18.9,91,14.42,76,6.5,296.7,338.5,299.3
963.1,503,20.5,18.7,89,14.21,76,6.6,296.8,338.0,299.3
962.5,508,20.5,18.5,88,14.07,75,6.6,296.9,337.7,299.4
962.0,513,20.5,18.4,88,13.98,75,6.7,296.9,337.5,299.4
961.4,518,20.5,18.4,87,13.95,75,6.7,297.0,337.5,299.5
960.9,523,20.5,18.4,88,13.95,74,6.8,297.0,337.5,299.5
960.4,528,20.5,18.4,88,13.98,74,6.8,297.0,337.6,299.5
959.8,532,20.4,18.4,88,14.01,73,6.8,297.0,337.7,299.5
959.3,537,20.4,18.5,89,14.09,73,6.8,297.0,337.9,299.5
958.8,542,20.3,18.5,90,14.15,72,6.9,297.0,338.1,299.5
958.3,547,20.3,18.5,90,14.15,72,6.9,297.0,338.1,299.5
957.8,551,20.2,18.4,90,14.08,71,6.9,297.0,337.9,299.5
957.3,555,20.2,18.3,89,13.98,71,6.9,297.0,337.6,299.5
956.8,560,20.2,18.2,89,13.90,70,6.9,297.0,337.4,299.5
956.3,564,20.1,18.2,88,13.85,70,6.9,297.1,337.3,299.5
955.9,568,20.1,18.1,88,13.84,69,6.9,297.1,337.3,299.5
955.4,572,20.1,18.1,89,13.84,69,6.9,297.1,337.3,299.5
955.0,576,20.0,18.1,89,13.84,69,6.8,297.1,337.3,299.5
954.5,580,20.0,18.2,89,13.87,69,6.8,297.1,337.4,299.6
954.1,584,20.0,18.2,89,13.90,68,6.8,297.1,337.4,299.5
953.7,588,19.9,18.2,90,13.92,68,6.7,297.1,337.5,299.5
953.2,592,19.9,18.2,90,13.90,68,6.7,297.1,337.4,299.5
952.7,597,19.9,18.1,90,13.87,68,6.6,297.1,337.4,299.6
952.2,601,19.8,18.1,90,13.89,68,6.6,297.1,337.4,299.6
951.7,606,19.8,18.2,90,13.92,69,6.5,297.1,337.5,299.6
951.2,611,19.7,18.2,91,13.94,69,6.5,297.1,337.6,299.6
950.7,615,19.7,18.1,91,13.91,69,6.4,297.1,337.5,299.6
950.1,621,19.6,18.1,91,13.89,69,6.3,297.1,337.4,299.6
949.5,626,19.6,18.1,91,13.87,69,6.3,297.1,337.4,299.6
948.9,631,19.6,18.0,91,13.83,70,6.2,297.1,337.3,299.6
948.4,636,19.5,17.9,90,13.73,70,6.1,297.1,337.0,299.6
947.8,642,19.6,17.6,89,13.52,70,6.0,297.2,336.5,299.6
947.2,647,19.6,17.4,87,13.29,70,6.0,297.3,336.0,299.7
946.6,652,19.6,17.2,86,13.15,71,5.9,297.4,335.7,299.8
946.1,657,19.7,17.1,85,13.06,71,5.8,297.5,335.5,299.8
945.5,662,19.6,17.1,85,13.05,71,5.7,297.5,335.5,299.8
945.0,667,19.6,17.1,85,13.05,71,5.6,297.5,335.5,299.9
944.5,672,19.6,16.9,85,12.97,72,5.5,297.6,335.3,299.9
943.9,677,19.6,16.8,84,12.87,72,5.5,297.6,335.1,299.9
943.4,681,19.6,16.8,84,12.87,72,5.4,297.6,335.1,299.9
942.9,686,19.5,16.9,85,12.95,72,5.3,297.6,335.4,300.0
942.4,691,19.5,17.0,85,13.01,72,5.3,297.6,335.5,299.9
941.9,695,19.4,17.0,86,13.03,72,5.2,297.6,335.6,299.9
941.4,700,19.4,17.0,86,13.02,72,5.2,297.6,335.5,299.9
940.9,704,19.3,16.9,86,13.01,72,5.1,297.6,335.5,299.9
940.4,709,19.3,16.9,86,12.99,72,5.1,297.6,335.5,299.9
939.9,713,19.3,16.8,86,12.95,72,5.1,297.6,335.4,299.9
939.4,718,19.2,16.8,86,12.89,72,5.1,297.6,335.2,299.9
938.9,723,19.2,16.7,86,12.85,72,5.1,297.7,335.1,299.9
938.4,727,19.2,16.7,86,12.84,72,5.1,297.7,335.1,300.0
937.9,732,19.1,16.7,86,12.85,72,5.1,297.7,335.2,300.0
937.3,737,19.1,16.7,86,12.88,72,5.1,297.7,335.3,300.0
936.8,742,19.0,16.8,87,12.94,73,5.2,297.7,335.4,300.0
936.2,747,19.0,16.8,87,12.97,73,5.3,297.7,335.5,300.0
935.7,753,18.9,16.8,87,12.94,73,5.3,297.7,335.4,300.0
935.1,758,18.9,16.7,87,12.90,73,5.4,297.7,335.3,300.0
934.5,763,18.8,16.8,88,12.97,73,5.5,297.7,335.5,300.0
934.0,768,18.8,16.9,89,13.12,73,5.6,297.7,335.9,300.0
933.4,773,18.7,17.1,90,13.22,73,5.7,297.6,336.1,300.0
932.9,778,18.6,17.1,91,13.23,74,5.8,297.6,336.1,299.9
932.4,783,18.5,17.0,91,13.16,74,5.9,297.6,335.9,299.9
931.9,787,18.5,16.9,90,13.10,74,6.0,297.6,335.7,299.9
931.5,791,18.5,16.8,90,13.06,74,6.0,297.6,335.7,300.0
931.0,796,18.5,16.8,90,13.06,74,6.1,297.6,335.7,300.0
930.6,800,18.5,16.8,90,13.04,74,6.2,297.7,335.6,300.0
930.1,804,18.4,16.7,90,12.97,74,6.3,297.7,335.5,300.0
929.7,808,18.4,16.6,89,12.87,74,6.3,297.7,335.2,300.0
929.2,812,18.4,16.5,88,12.77,75,6.4,297.7,335.0,300.0
928.8,816,18.4,16.4,88,12.71,75,6.4,297.7,334.8,300.0
928.3,821,18.3,16.3,88,12.68,75,6.4,297.8,334.7,300.0
927.8,825,18.3,16.3,88,12.67,75,6.5,297.8,334.7,300.0
927.3,830,18.3,16.3,88,12.68,75,6.5,297.8,334.8,300.0
926.9,834,18.2,16.4,89,12.74,75,6.5,297.8,334.9,300.0
926.4,839,18.2,16.5,90,12.85,74,6.4,297.8,335.2,300.0
925.9,843,18.1,16.7,91,12.99,74,6.4,297.7,335.6,300.0
925.4,848,18.0,16.8,93,13.12,74,6.4,297.7,335.9,300.0
925.0,851,18.0,16.8,93,13.15,74,6.4,297.7,336.0,300.0
924.9,853,17.9,16.9,93,13.17,74,6.4,297.6,336.0,300.0
924.3,857,17.9,16.8,93,13.12,74,6.3,297.6,335.8,300.0
923.8,862,17.8,16.6,93,12.98,73,6.3,297.7,335.5,300.0
923.3,867,17.9,16.5,92,12.86,73,6.3,297.7,335.2,300.0
922.7,872,17.9,16.4,91,12.82,73,6.3,297.8,335.2,300.1
922.2,878,17.8,16.4,91,12.84,72,6.2,297.8,335.2,300.1
921.6,883,17.8,16.4,92,12.84,72,6.2,297.8,335.3,300.1
921.0,888,17.8,16.4,92,12.81,71,6.2,297.8,335.2,300.1
920.4,894,17.7,16.3,91,12.74,71,6.2,297.8,335.0,300.1
919.9,899,17.7,16.1,90,12.61,70,6.2,297.9,334.7,300.1
919.3,904,17.7,15.8,89,12.40,69,6.2,297.9,334.1,300.1
918.7,910,17.8,15.6,87,12.23,69,6.2,298.0,333.8,300.2
918.1,915,17.8,15.5,87,12.19,68,6.2,298.1,333.7,300.3
917.6,920,17.8,15.5,87,12.15,67,6.3,298.2,333.7,300.3
917.0,925,17.8,15.3,86,12.04,67,6.3,298.2,333.4,300.4
916.5,930,17.8,15.2,85,11.97,66,6.4,298.2,333.3,300.4
916.0,935,17.7,15.3,86,12.02,65,6.4,298.3,333.4,300.4
915.5,940,17.7,15.4,86,12.12,64,6.5,298.3,333.7,300.5
915.0,945,17.7,15.5,87,12.16,64,6.6,298.3,333.9,300.5
914.5,949,17.6,15.4,87,12.15,63,6.6,298.3,333.8,300.5
914.0,954,17.6,15.4,87,12.10,62,6.7,298.3,333.7,300.5
913.5,959,17.6,15.3,87,12.05,62,6.8,298.3,333.6,300.5
912.9,964,17.6,15.2,86,12.00,61,6.9,298.4,333.5,300.5
912.4,969,17.5,15.1,86,11.94,61,7.0,298.4,333.4,300.5
911.9,973,17.5,15.1,85,11.89,60,7.0,298.4,333.3,300.6
911.4,978,17.5,15.0,85,11.84,60,7.1,298.5,333.2,300.6
910.9,983,17.5,14.9,85,11.80,59,7.2,298.5,333.1,300.6
910.5,987,17.5,14.9,85,11.80,59,7.3,298.5,333.1,300.6
910.0,992,17.4,14.9,85,11.81,59,7.3,298.5,333.1,300.6
909.5,997,17.4,14.9,86,11.82,59,7.4,298.5,333.1,300.6
908.9,1001,17.4,14.9,86,11.82,59,7.4,298.5,333.2,300.7
908.4,1006,17.3,14.9,86,11.82,58,7.5,298.5,333.2,300.7
907.9,1011,17.3,14.9,86,11.79,58,7.5,298.6,333.1,300.7
907.4,1016,17.3,14.8,86,11.76,58,7.5,298.6,333.0,300.7
906.8,1021,17.2,14.8,86,11.73,58,7.6,298.6,332.9,300.7
906.3,1026,17.2,14.7,86,11.71,58,7.6,298.6,332.9,300.7
905.8,1031,17.1,14.7,86,11.70,59,7.5,298.6,332.9,300.7
905.3,1036,17.1,14.7,86,11.71,59,7.5,298.6,332.9,300.7
904.8,1040,17.0,14.7,86,11.73,59,7.5,298.6,333.0,300.7
904.4,1045,17.0,14.8,87,11.77,59,7.5,298.6,333.1,300.7
903.9,1049,16.9,14.8,87,11.80,60,7.4,298.6,333.2,300.7
903.4,1053,16.9,14.8,87,11.78,60,7.4,298.6,333.1,300.7
903.0,1058,16.9,14.7,87,11.73,60,7.3,298.6,332.9,300.7
902.5,1062,16.8,14.6,87,11.67,60,7.3,298.6,332.8,300.7
902.0,1067,16.8,14.6,86,11.63,61,7.2,298.6,332.7,300.7
901.5,1072,16.8,14.5,86,11.60,61,7.1,298.7,332.7,300.7
901.0,1077,16.8,14.5,86,11.56,61,7.1,298.7,332.6,300.8
900.4,1082,16.8,14.4,86,11.52,62,7.0,298.7,332.5,300.8
899.8,1088,16.7,14.3,86,11.48,62,6.9,298.7,332.4,300.8
899.2,1094,16.7,14.3,86,11.44,62,6.8,298.8,332.3,300.8
898.6,1100,16.6,14.2,86,11.40,62,6.8,298.8,332.2,300.8
898.0,1105,16.6,14.1,85,11.34,62,6.7,298.8,332.1,300.8
897.4,1111,16.6,14.0,85,11.26,62,6.6,298.8,331.9,300.9
896.8,1116,16.6,14.0,85,11.24,63,6.6,298.9,331.9,300.9
896.2,1122,16.5,14.0,85,11.27,63,6.5,298.9,332.0,300.9
895.7,1127,16.5,14.0,85,11.32,63,6.4,298.9,332.1,300.9
895.1,1133,16.4,14.1,86,11.35,62,6.4,298.9,332.2,300.9
894.4,1139,16.4,14.0,86,11.34,62,6.3,298.9,332.2,300.9
893.8,1145,16.3,14.0,86,11.32,62,6.2,298.9,332.1,300.9
893.2,1151,16.2,13.9,86,11.28,62,6.2,298.9,332.0,300.9
892.6,1157,16.2,13.9,86,11.26,62,6.1,298.9,331.9,300.9
892.0,1163,16.1,13.9,87,11.26,61,6.1,298.9,331.9,300.9
891.4,1168,16.1,13.9,87,11.24,61,6.0,298.9,331.9,300.9
890.8,1174,16.0,13.8,87,11.21,60,6.0,298.9,331.8,300.9
890.2,1179,16.0,13.8,87,11.18,60,6.0,298.9,331.8,300.9
889.7,1184,16.0,13.8,87,11.18,59,5.9,298.9,331.8,301.0
889.1,1190,15.9,13.8,87,11.23,59,5.9,299.0,332.0,301.0
888.6,1195,15.9,13.8,88,11.26,58,5.9,299.0,332.0,301.0
888.0,1200,15.8,13.8,88,11.26,58,5.8,299.0,332.0,301.0
887.5,1205,15.8,13.8,88,11.23,57,5.8,299.0,332.0,301.0
886.9,1211,15.8,13.7,88,11.19,56,5.8,299.0,331.9,301.0
886.4,1216,15.7,13.6,87,11.14,55,5.7,299.0,331.7,301.0
885.9,1220,15.7,13.6,87,11.11,55,5.7,299.0,331.7,301.0
885.4,1225,15.7,13.6,87,11.11,54,5.7,299.1,331.7,301.0
885.0,1230,15.6,13.6,88,11.16,53,5.6,299.0,331.8,301.0
884.5,1234,15.6,13.7,88,11.18,52,5.6,299.0,331.9,301.1
884.1,1238,15.5,13.6,88,11.15,51,5.6,299.0,331.8,301.0
883.6,1242,15.5,13.6,88,11.13,51,5.5,299.0,331.8,301.0
883.2,1247,15.5,13.6,88,11.12,50,5.5,299.0,331.7,301.0
882.7,1251,15.4,13.6,89,11.13,49,5.4,299.1,331.8,301.1
882.3,1255,15.4,13.5,89,11.11,48,5.4,299.1,331.7,301.0
881.8,1260,15.4,13.5,89,11.08,47,5.3,299.1,331.6,301.0
881.3,1265,15.3,13.4,88,11.05,46,5.3,299.1,331.5,301.1
880.9,1269,15.3,13.4,88,11.02,46,5.2,299.1,331.5,301.0
880.4,1274,15.2,13.4,89,11.01,45,5.2,299.1,331.4,301.0
879.9,1279,15.2,13.3,89,11.01,44,5.1,299.1,331.4,301.0
879.4,1283,15.1,13.3,89,11.00,43,5.0,299.1,331.4,301.1
878.9,1288,15.1,13.3,89,10.98,43,5.0,299.1,331.4,301.0
878.4,1293,15.1,13.3,89,10.96,42,4.9,299.1,331.3,301.0
877.9,1298,15.0,13.2,89,10.95,41,4.8,299.1,331.3,301.0
877.4,1303,15.0,13.2,89,10.93,41,4.7,299.1,331.2,301.0
876.9,1308,14.9,13.2,89,10.92,40,4.7,299.1,331.2,301.1
876.4,1312,14.9,13.1,89,10.91,40,4.6,299.1,331.2,301.0
875.9,1317,14.8,13.1,89,10.87,40,4.5,299.1,331.0,301.0
875.4,1322,14.8,12.9,89,10.78,39,4.4,299.1,330.8,301.0
874.9,1327,14.8,12.7,88,10.63,39,4.4,299.1,330.4,301.0
874.4,1331,14.8,12.5,86,10.44,39,4.3,299.2,330.0,301.1
874.0,1336,14.9,12.1,83,10.22,39,4.3,299.4,329.5,301.2
873.5,1341,15.0,12.0,82,10.14,39,4.2,299.5,329.4,301.3
873.0,1345,15.0,12.1,83,10.24,40,4.2,299.5,329.7,301.3
872.5,1350,14.9,12.2,84,10.31,40,4.1,299.5,329.9,301.3
872.0,1355,14.8,12.0,83,10.19,40,4.1,299.5,329.5,301.3
871.6,1359,14.8,11.8,82,10.04,40,4.1,299.5,329.1,301.3
871.1,1364,14.8,11.7,82,9.98,41,4.1,299.6,329.0,301.4
870.6,1368,14.8,11.6,81,9.93,41,4.1,299.6,328.9,301.4
870.2,1373,14.8,11.6,81,9.89,42,4.1,299.6,328.9,301.4
869.7,1377,14.8,11.6,81,9.90,42,4.2,299.7,328.9,301.5
869.2,1382,14.8,11.6,81,9.92,43,4.2,299.7,329.0,301.5
868.7,1387,14.7,11.6,82,9.94,43,4.2,299.7,329.1,301.5
868.2,1392,14.7,11.6,82,9.93,43,4.3,299.7,329.1,301.5
867.7,1397,14.7,11.6,82,9.95,43,4.3,299.7,329.1,301.5
867.2,1402,14.6,11.6,82,9.97,44,4.4,299.7,329.2,301.5
866.7,1407,14.6,11.6,82,9.97,44,4.4,299.7,329.2,301.5
866.2,1411,14.6,11.6,82,9.96,44,4.5,299.8,329.2,301.6
865.7,1416,14.5,11.6,83,9.96,44,4.6,299.8,329.2,301.6
865.3,1421,14.5,11.6,83,9.98,44,4.6,299.8,329.3,301.6
864.8,1426,14.5,11.6,83,9.98,44,4.7,299.8,329.3,301.6
864.3,1430,14.4,11.6,83,10.00,44,4.8,299.8,329.4,301.6
863.8,1435,14.4,11.7,84,10.05,43,4.8,299.8,329.5,301.6
863.3,1440,14.4,11.7,84,10.09,43,4.9,299.8,329.7,301.7
862.8,1445,14.3,11.7,84,10.09,43,4.9,299.9,329.7,301.7
862.3,1450,14.3,11.7,84,10.04,42,4.9,299.9,329.6,301.7
861.8,1455,14.3,11.5,83,9.93,42,5.0,299.9,329.3,301.7
861.3,1460,14.3,11.2,82,9.78,42,5.0,300.0,328.9,301.7
860.8,1465,14.3,11.0,81,9.63,41,5.0,300.0,328.5,301.7
860.3,1469,14.3,10.9,80,9.53,41,5.0,300.0,328.3,301.7
859.8,1474,14.2,10.8,80,9.48,40,5.0,300.1,328.2,301.8
859.4,1478,14.2,10.7,80,9.46,40,5.0,300.1,328.1,301.8
859.0,1483,14.2,10.7,79,9.42,39,5.0,300.1,328.0,301.8
858.5,1487,14.2,10.4,78,9.29,39,4.9,300.1,327.7,301.8
858.1,1491,14.2,10.1,76,9.09,38,4.9,300.2,327.2,301.8
857.7,1495,14.2,9.8,75,8.89,38,4.9,300.2,326.7,301.8
857.2,1500,14.2,9.6,74,8.79,37,4.8,300.3,326.4,301.9
856.8,1504,14.2,9.6,74,8.77,37,4.8,300.3,326.4,301.9
856.3,1509,14.2,9.6,74,8.79,36,4.7,300.3,326.5,301.9
855.8,1514,14.1,9.7,75,8.88,36,4.6,300.3,326.7,301.9
855.3,1519,14.1,10.0,76,9.04,35,4.6,300.3,327.2,302.0
854.8,1524,14.0,10.3,78,9.24,35,4.5,300.3,327.8,302.0
854.3,1529,14.0,10.5,79,9.36,35,4.5,300.3,328.1,302.0
853.7,1534,13.9,10.5,80,9.36,34,4.4,300.4,328.1,302.0
853.2,1540,13.9,10.4,79,9.29,34,4.3,300.3,327.9,302.0
852.6,1545,13.8,10.2,79,9.23,34,4.3,300.4,327.8,302.0
852.1,1550,13.8,10.2,79,9.18,34,4.2,300.4,327.6,302.0
851.6,1556,13.8,10.1,79,9.17,34,4.1,300.4,327.6,302.0
851.1,1561,13.7,10.1,79,9.17,34,4.1,300.4,327.6,302.0
850.5,1566,13.7,10.2,79,9.20,35,4.0,300.4,327.7,302.1
850.0,1571,13.6,10.2,80,9.23,35,4.0,300.4,327.8,302.1
849.4,1577,13.6,10.3,80,9.29,35,3.9,300.4,328.0,302.1
848.9,1583,13.6,10.3,81,9.33,36,3.8,300.4,328.2,302.1
848.3,1588,13.5,10.3,81,9.32,36,3.8,300.5,328.2,302.2
847.7,1594,13.5,10.2,80,9.23,37,3.7,300.5,327.9,302.2
847.2,1600,13.5,10.0,79,9.12,38,3.7,300.5,327.7,302.2
846.6,1605,13.5,9.8,79,9.05,38,3.7,300.6,327.5,302.2
846.1,1610,13.4,9.8,79,9.05,39,3.7,300.6,327.5,302.2
845.7,1615,13.4,9.9,79,9.07,40,3.6,300.6,327.6,302.2
845.2,1619,13.4,9.9,80,9.10,41,3.6,300.6,327.7,302.3
844.8,1623,13.3,10.0,80,9.16,41,3.6,300.6,327.8,302.3
844.3,1628,13.3,10.1,81,9.22,42,3.6,300.6,328.0,302.3
843.9,1632,13.3,10.1,81,9.24,43,3.7,300.7,328.1,302.3
843.5,1636,13.3,10.1,81,9.25,43,3.7,300.7,328.2,302.3
843.0,1641,13.2,10.1,81,9.24,43,3.7,300.7,328.2,302.4
842.6,1645,13.2,10.0,81,9.19,44,3.7,300.7,328.0,302.4
842.2,1649,13.2,9.8,80,9.08,44,3.8,300.7,327.7,302.4
841.7,1654,13.2,9.6,79,8.98,44,3.8,300.8,327.5,302.4
841.3,1658,13.2,9.5,78,8.92,44,3.9,300.8,327.4,302.5
840.9,1662,13.2,9.5,78,8.91,44,3.9,300.9,327.4,302.5
840.5,1666,13.2,9.5,78,8.91,44,4.0,300.9,327.5,302.5
840.1,1670,13.2,9.5,78,8.90,44,4.0,300.9,327.5,302.6
839.7,1674,13.2,9.5,78,8.89,44,4.0,301.0,327.5,302.6
839.2,1679,13.2,9.5,78,8.89,44,4.1,301.0,327.5,302.6
838.8,1683,13.2,9.4,78,8.89,44,4.1,301.1,327.6,302.7
838.3,1688,13.1,9.4,78,8.87,44,4.2,301.1,327.5,302.7
837.8,1693,13.1,9.3,78,8.84,43,4.2,301.1,327.5,302.7
837.4,1697,13.1,9.3,78,8.80,43,4.2,301.1,327.4,302.7
836.9,1702,13.1,9.2,77,8.75,43,4.3,301.2,327.3,302.7
836.5,1706,13.1,9.1,77,8.71,42,4.3,301.2,327.2,302.8
836.1,1710,13.1,9.0,77,8.68,42,4.3,301.2,327.2,302.8
835.7,1715,13.1,9.0,76,8.65,41,4.3,301.3,327.1,302.9
835.2,1719,13.1,8.9,76,8.61,41,4.3,301.3,327.0,302.9
834.8,1724,13.1,8.9,76,8.59,41,4.2,301.4,327.0,302.9
834.3,1728,13.0,8.9,76,8.59,40,4.2,301.4,327.1,303.0
833.8,1733,13.0,8.8,76,8.57,40,4.2,301.4,327.0,303.0
833.3,1738,13.0,8.7,75,8.48,39,4.1,301.5,326.8,303.0
832.8,1744,13.0,8.3,73,8.26,39,4.1,301.5,326.3,303.1
832.3,1749,13.1,7.7,70,7.94,39,4.0,301.7,325.5,303.1
831.8,1754,13.2,7.0,66,7.58,38,3.9,301.9,324.7,303.2
831.3,1759,13.4,6.4,62,7.25,38,3.8,302.1,323.9,303.4
830.8,1764,13.5,5.8,60,6.99,37,3.7,302.2,323.4,303.5
830.3,1769,13.6,5.5,58,6.83,37,3.7,302.4,323.1,303.7
829.9,1773,13.7,5.3,57,6.74,36,3.6,302.6,323.0,303.8
829.4,1778,13.8,5.2,56,6.70,36,3.5,302.7,323.0,303.9
829.0,1782,13.8,5.2,56,6.71,36,3.4,302.8,323.1,304.0
828.6,1786,13.8,5.3,56,6.73,35,3.3,302.8,323.2,304.0
828.2,1791,13.8,5.3,57,6.77,35,3.1,302.8,323.4,304.1
827.7,1795,13.8,5.4,57,6.81,35,3.0,302.9,323.5,304.1
