PRES,HGHT,TEMP,DWPT,RELH,MIXR,DRCT,SPED,THTA,THTE,THTV
1016.7,31,25.7,19.4,68,14.07,63,6.9,297.4,338.4,299.9
1016.4,33,25.2,18.5,66,13.33,55,4.9,297.0,335.7,299.4
1016.0,37,24.6,18.4,68,13.19,48,4.3,296.4,334.6,298.7
1015.4,41,24.0,18.1,70,12.98,46,4.3,295.8,333.4,298.1
1014.7,48,23.7,18.1,71,12.98,46,4.6,295.6,333.1,297.9
1013.9,55,23.5,18.0,71,12.89,47,5.0,295.5,332.7,297.8
1013.4,59,23.4,17.8,71,12.78,47,5.3,295.4,332.3,297.7
1012.9,63,23.4,17.8,71,12.76,47,5.6,295.4,332.3,297.7
1012.3,68,23.3,17.7,71,12.69,47,5.9,295.4,332.1,297.7
1011.8,73,23.2,17.6,70,12.60,47,6.1,295.4,331.8,297.6
1011.2,78,23.2,17.5,70,12.50,47,6.4,295.4,331.5,297.6
1010.6,83,23.0,17.4,70,12.44,47,6.6,295.3,331.2,297.5
1010.1,88,23.0,17.4,71,12.46,47,6.8,295.3,331.2,297.5
1009.5,92,22.9,17.5,71,12.52,47,7.0,295.3,331.4,297.5
1009.0,97,22.9,17.5,72,12.57,47,7.1,295.2,331.5,297.5
1008.4,102,22.8,17.5,72,12.58,47,7.3,295.2,331.6,297.5
1007.8,107,22.7,17.5,72,12.58,47,7.4,295.2,331.5,297.5
1007.3,112,22.7,17.5,72,12.61,47,7.5,295.3,331.6,297.5
1006.7,117,22.7,17.5,73,12.59,47,7.6,295.3,331.6,297.5
1006.2,121,22.6,17.4,72,12.53,46,7.6,295.3,331.4,297.5
1005.6,126,22.6,17.4,72,12.49,46,7.7,295.3,331.3,297.5
1005.1,131,22.5,17.3,72,12.48,46,7.7,295.3,331.3,297.5
1004.5,136,22.5,17.3,72,12.47,46,7.7,295.3,331.3,297.5
1004.0,141,22.5,17.2,72,12.41,46,7.7,295.3,331.1,297.5
1003.4,146,22.4,17.2,72,12.38,46,7.7,295.3,331.0,297.5
1002.8,151,22.4,17.2,72,12.37,45,7.7,295.3,331.0,297.5
1002.2,156,22.4,17.1,72,12.36,45,7.7,295.3,331.0,297.5
1001.7,161,22.3,17.1,72,12.32,45,7.7,295.3,330.9,297.5
1001.1,166,22.3,17.0,72,12.30,45,7.7,295.4,330.9,297.6
1000.5,171,22.3,17.0,72,12.29,45,7.6,295.4,330.9,297.6
1000.0,175,22.3,17.0,72,12.30,45,7.6,295.4,330.9,297.6
999.9,176,22.3,17.0,72,12.30,45,7.6,295.4,330.9,297.6
999.4,181,22.2,17.0,72,12.32,45,7.6,295.4,331.0,297.6
998.8,186,22.2,17.1,73,12.35,45,7.6,295.4,331.1,297.6
998.2,191,22.1,17.1,73,12.35,44,7.6,295.4,331.1,297.6
997.7,195,22.1,17.1,73,12.36,44,7.5,295.4,331.2,297.6
997.2,200,22.1,17.1,73,12.36,44,7.5,295.5,331.2,297.7
996.7,204,22.1,17.0,73,12.35,44,7.5,295.5,331.2,297.7
996.3,208,22.0,17.0,73,12.30,44,7.5,295.5,331.0,297.6
995.8,211,22.0,16.9,73,12.29,44,7.4,295.5,331.0,297.6
995.4,215,21.9,16.9,73,12.28,44,7.4,295.5,331.0,297.7
995.0,219,21.9,16.9,73,12.29,44,7.4,295.5,331.0,297.7
994.5,223,21.9,16.9,74,12.30,44,7.4,295.5,331.1,297.7
994.0,227,21.9,17.0,74,12.32,44,7.3,295.5,331.1,297.7
993.5,232,21.8,17.0,74,12.35,44,7.3,295.5,331.2,297.7
993.0,236,21.7,17.0,75,12.39,44,7.2,295.5,331.3,297.7
992.5,241,21.7,17.1,75,12.42,44,7.2,295.5,331.4,297.7
991.9,246,21.6,17.1,75,12.44,44,7.1,295.5,331.4,297.7
991.3,251,21.6,17.0,75,12.41,44,7.1,295.5,331.4,297.7
990.7,256,21.6,17.0,75,12.37,44,7.0,295.5,331.3,297.7
990.2,261,21.6,16.9,75,12.31,44,7.0,295.6,331.1,297.7
989.6,266,21.5,16.8,75,12.28,44,6.9,295.6,331.0,297.7
989.0,272,21.5,16.8,75,12.28,44,6.9,295.6,331.1,297.7
988.4,277,21.4,16.8,75,12.28,43,6.8,295.6,331.1,297.7
987.8,282,21.4,16.8,75,12.28,43,6.7,295.6,331.1,297.7
987.2,287,21.3,16.8,75,12.24,43,6.7,295.6,331.0,297.7
986.7,292,21.3,16.7,75,12.18,43,6.6,295.6,330.8,297.8
986.1,297,21.3,16.5,74,12.07,42,6.5,295.6,330.5,297.8
985.5,302,21.4,16.4,73,11.97,42,6.5,295.7,330.4,297.9
985.0,307,21.4,16.3,73,11.93,42,6.4,295.8,330.4,297.9
984.5,311,21.4,16.3,73,11.94,41,6.4,295.8,330.4,298.0
983.9,316,21.3,16.4,73,11.99,41,6.3,295.8,330.6,298.0
983.4,321,21.3,16.4,74,12.02,40,6.2,295.9,330.6,298.0
982.9,325,21.3,16.4,74,12.02,40,6.2,295.9,330.7,298.0
982.4,330,21.2,16.4,74,12.01,39,6.1,295.9,330.6,298.0
981.9,334,21.2,16.3,74,11.98,39,6.0,295.9,330.6,298.0
981.5,338,21.2,16.3,74,11.96,38,6.0,295.9,330.5,298.0
981.0,342,21.1,16.3,74,11.97,37,5.9,295.9,330.6,298.0
980.6,346,21.1,16.3,74,12.00,37,5.9,295.9,330.6,298.0
980.1,350,21.1,16.3,74,12.01,36,5.8,295.9,330.7,298.0
979.6,354,21.0,16.3,75,12.01,35,5.7,295.9,330.7,298.0
979.2,358,21.0,16.3,75,12.01,34,5.6,295.9,330.7,298.0
978.7,363,20.9,16.3,75,12.02,34,5.6,295.9,330.7,298.0
978.2,367,20.9,16.3,75,12.02,33,5.5,295.9,330.7,298.0
977.6,372,20.8,16.3,75,12.01,32,5.4,295.9,330.7,298.0
977.1,376,20.8,16.3,75,12.00,31,5.3,295.9,330.7,298.0
976.6,381,20.8,16.3,75,11.99,31,5.2,295.9,330.7,298.0
976.0,386,20.7,16.2,75,11.97,30,5.1,295.9,330.6,298.1
975.4,391,20.7,16.2,75,11.97,29,5.0,296.0,330.7,298.1
974.9,396,20.7,16.2,75,11.94,29,4.9,296.0,330.6,298.1
974.3,401,20.7,16.1,75,11.92,28,4.8,296.0,330.6,298.1
973.7,406,20.7,16.1,75,11.90,27,4.6,296.1,330.6,298.2
973.2,411,20.7,16.1,75,11.89,27,4.5,296.1,330.6,298.2
972.6,416,20.6,16.1,75,11.92,26,4.4,296.1,330.7,298.2
972.1,421,20.6,16.1,76,11.94,26,4.3,296.1,330.7,298.2
971.6,426,20.5,16.1,76,11.95,25,4.2,296.1,330.7,298.2
971.0,430,20.5,16.1,76,11.95,25,4.1,296.1,330.8,298.2
970.5,435,20.5,16.1,76,11.97,25,3.9,296.1,330.9,298.3
970.0,440,20.5,16.2,77,12.04,24,3.8,296.2,331.1,298.3
969.5,444,20.5,16.3,77,12.09,24,3.7,296.2,331.3,298.4
968.9,449,20.4,16.2,77,12.07,24,3.6,296.2,331.2,298.4
968.4,454,20.4,16.2,77,12.02,24,3.6,296.2,331.1,298.3
967.9,459,20.3,16.1,77,11.98,23,3.5,296.2,330.9,298.3
967.3,464,20.2,16.1,77,12.00,23,3.4,296.1,330.9,298.3
966.7,469,20.2,16.2,78,12.09,23,3.3,296.2,331.2,298.3
966.1,474,20.2,16.3,79,12.18,23,3.3,296.2,331.5,298.4
965.6,479,20.1,16.4,79,12.20,23,3.2,296.2,331.6,298.4
965.0,484,20.1,16.3,79,12.16,23,3.2,296.2,331.5,298.4
964.4,489,20.0,16.2,79,12.12,22,3.1,296.2,331.4,298.4
963.9,494,20.0,16.2,79,12.11,22,3.1,296.2,331.3,298.4
963.4,499,19.9,16.2,79,12.11,22,3.1,296.2,331.3,298.4
962.9,503,19.9,16.2,79,12.11,21,3.1,296.2,331.3,298.4
962.4,507,19.9,16.2,79,12.12,21,3.0,296.2,331.4,298.4
961.9,512,19.8,16.2,80,12.15,20,3.0,296.2,331.5,298.4
961.5,516,19.8,16.2,80,12.16,20,3.0,296.2,331.5,298.4
961.0,520,19.7,16.2,80,12.16,19,3.0,296.2,331.5,298.4
960.5,525,19.7,16.2,80,12.16,19,3.0,296.2,331.5,298.4
960.0,529,19.6,16.2,81,12.16,18,3.1,296.2,331.5,298.4
959.5,534,19.6,16.2,81,12.14,17,3.1,296.2,331.4,298.4
959.0,538,19.5,16.2,81,12.13,16,3.1,296.2,331.4,298.4
958.5,542,19.5,16.1,81,12.12,15,3.1,296.2,331.4,298.4
958.1,547,19.5,16.1,81,12.13,14,3.1,296.2,331.4,298.4
957.6,551,19.4,16.2,81,12.16,13,3.1,296.2,331.5,298.4
957.1,555,19.4,16.2,82,12.18,12,3.1,296.2,331.5,298.4
956.6,560,19.4,16.2,82,12.18,11,3.2,296.2,331.5,298.4
956.1,564,19.3,16.2,82,12.18,10,3.2,296.2,331.5,298.4
955.5,569,19.2,16.2,82,12.19,9,3.2,296.2,331.6,298.4
955.0,574,19.2,16.2,83,12.18,8,3.2,296.2,331.5,298.4
954.4,579,19.2,16.1,82,12.15,7,3.2,296.2,331.4,298.4
953.9,584,19.1,16.0,82,12.11,7,3.2,296.2,331.3,298.4
953.4,589,19.1,16.0,82,12.09,6,3.2,296.2,331.3,298.4
952.8,594,19.0,16.0,83,12.12,5,3.2,296.2,331.4,298.4
952.3,599,19.0,16.1,83,12.14,4,3.2,296.2,331.4,298.4
951.7,604,18.9,16.0,83,12.14,3,3.1,296.2,331.4,298.4
951.1,609,18.8,16.0,84,12.13,2,3.1,296.2,331.4,298.4
950.6,614,18.8,16.0,84,12.09,2,3.1,296.2,331.2,298.3
950.0,620,18.7,15.9,84,12.06,1,3.0,296.2,331.2,298.3
949.4,625,18.7,15.9,84,12.04,360,3.0,296.2,331.1,298.3
948.8,630,18.7,15.9,84,12.05,359,2.9,296.2,331.2,298.4
948.2,636,18.7,15.9,84,12.10,359,2.9,296.3,331.4,298.4
947.6,641,18.7,16.0,85,12.19,358,2.8,296.3,331.7,298.5
947.1,646,18.6,16.1,85,12.24,358,2.8,296.3,331.9,298.5
946.5,651,18.6,16.1,86,12.28,357,2.7,296.4,332.0,298.5
945.9,656,18.6,16.2,86,12.31,356,2.6,296.4,332.1,298.6
945.4,661,18.5,16.2,86,12.32,356,2.6,296.4,332.1,298.6
944.8,667,18.5,16.2,87,12.32,355,2.5,296.4,332.1,298.6
944.3,672,18.4,16.1,87,12.30,354,2.5,296.4,332.0,298.6
943.7,677,18.4,16.1,87,12.27,354,2.4,296.4,332.0,298.6
943.2,682,18.3,16.1,87,12.26,353,2.4,296.4,331.9,298.5
942.6,686,18.2,16.0,87,12.23,352,2.3,296.4,331.8,298.5
942.1,691,18.2,16.0,87,12.21,352,2.3,296.4,331.8,298.5
941.6,696,18.2,16.0,87,12.20,351,2.2,296.4,331.7,298.5
941.1,700,18.1,16.0,87,12.20,350,2.2,296.4,331.8,298.5
940.6,705,18.1,16.0,87,12.24,349,2.2,296.4,331.9,298.6
940.2,709,18.1,16.0,88,12.26,349,2.1,296.4,332.0,298.6
939.7,713,18.1,16.0,88,12.25,348,2.1,296.4,332.0,298.6
939.3,717,18.0,16.0,88,12.24,347,2.1,296.4,331.9,298.6
938.8,721,18.0,15.9,88,12.22,346,2.1,296.5,331.9,298.6
938.4,725,18.0,15.9,88,12.21,344,2.1,296.5,331.9,298.7
937.9,730,18.0,15.9,88,12.21,343,2.1,296.5,332.0,298.7
937.4,734,17.9,15.9,88,12.21,342,2.2,296.5,331.9,298.7
936.9,739,17.9,15.9,88,12.20,341,2.2,296.5,331.9,298.7
936.4,744,17.9,15.8,88,12.18,339,2.2,296.5,331.9,298.7
935.9,748,17.8,15.8,88,12.16,338,2.2,296.6,331.9,298.7
935.3,753,17.8,15.8,88,12.16,336,2.3,296.6,331.9,298.7
934.8,758,17.8,15.8,88,12.16,334,2.3,296.6,331.9,298.7
934.3,763,17.7,15.8,88,12.14,333,2.3,296.6,331.8,298.7
933.8,767,17.7,15.7,88,12.12,331,2.4,296.6,331.8,298.7
933.3,772,17.6,15.7,88,12.09,329,2.4,296.6,331.7,298.7
932.8,776,17.6,15.6,88,12.07,327,2.5,296.6,331.6,298.7
932.3,781,17.6,15.6,88,12.06,325,2.5,296.6,331.6,298.8
931.8,786,17.5,15.6,89,12.07,323,2.6,296.6,331.7,298.8
931.2,791,17.5,15.7,89,12.11,321,2.6,296.6,331.8,298.8
930.7,796,17.5,15.7,90,12.16,319,2.7,296.6,331.9,298.8
930.1,801,17.4,15.7,90,12.18,317,2.7,296.6,332.0,298.8
929.5,806,17.4,15.7,90,12.18,315,2.8,296.6,332.0,298.8
929.0,812,17.3,15.7,90,12.15,313,2.9,296.6,331.9,298.8
928.4,817,17.3,15.6,90,12.10,310,3.0,296.7,331.8,298.8
927.8,823,17.2,15.5,90,12.06,309,3.0,296.7,331.7,298.8
927.2,828,17.2,15.5,90,12.02,307,3.1,296.7,331.6,298.8
926.6,833,17.1,15.4,90,11.98,305,3.2,296.7,331.5,298.8
926.1,838,17.1,15.4,90,11.94,303,3.3,296.7,331.4,298.8
925.5,843,17.1,15.4,90,11.94,302,3.4,296.7,331.4,298.8
925.0,848,17.0,15.4,90,11.97,299,3.5,296.7,331.5,298.8
924.5,853,17.0,15.5,91,12.04,299,3.5,296.7,331.7,298.9
924.1,857,17.0,15.5,91,12.10,298,3.6,296.7,331.9,298.9
923.6,861,16.9,15.6,92,12.14,297,3.7,296.7,332.0,298.9
923.1,866,16.9,15.6,92,12.15,296,3.8,296.7,332.0,298.9
922.7,870,16.9,15.6,92,12.13,295,3.8,296.8,332.0,298.9
922.2,874,16.8,15.5,92,12.11,294,3.9,296.8,332.0,298.9
921.7,879,16.8,15.5,92,12.10,294,4.0,296.8,331.9,298.9
921.2,884,16.7,15.5,92,12.12,293,4.0,296.8,332.0,298.9
920.7,888,16.7,15.5,93,12.11,293,4.1,296.8,332.0,298.9
920.2,893,16.7,15.4,93,12.08,293,4.1,296.8,331.9,298.9
919.7,897,16.6,15.4,93,12.08,293,4.1,296.8,331.9,298.9
919.2,902,16.6,15.5,93,12.12,292,4.1,296.8,332.0,298.9
918.8,906,16.5,15.6,94,12.20,293,4.1,296.8,332.2,298.9
918.3,911,16.5,15.6,95,12.25,293,4.1,296.8,332.4,299.0
917.8,915,16.5,15.6,95,12.26,293,4.1,296.8,332.5,299.0
917.4,919,16.5,15.6,94,12.21,293,4.1,296.8,332.3,299.0
916.9,924,16.5,15.5,94,12.17,294,4.1,296.9,332.3,299.0
916.4,928,16.4,15.5,94,12.14,294,4.0,296.9,332.2,299.1
915.9,933,16.4,15.4,94,12.09,295,4.0,296.9,332.1,299.1
915.4,937,16.4,15.3,93,11.99,295,3.9,296.9,331.8,299.1
914.9,942,16.4,15.1,92,11.90,296,3.9,297.0,331.6,299.1
914.4,947,16.4,15.0,92,11.84,297,3.8,297.0,331.5,299.1
913.8,952,16.3,15.0,92,11.84,297,3.7,297.0,331.5,299.1
913.3,957,16.3,15.1,93,11.86,298,3.6,297.0,331.5,299.1
912.8,962,16.2,15.1,93,11.88,299,3.6,297.0,331.6,299.1
912.2,967,16.2,15.0,93,11.86,301,3.5,297.0,331.5,299.1
911.7,972,16.2,14.9,92,11.80,302,3.4,297.1,331.4,299.2
911.2,977,16.2,14.9,92,11.74,303,3.3,297.1,331.3,299.2
910.7,981,16.1,14.8,92,11.67,305,3.2,297.1,331.1,299.2
910.3,986,16.1,14.6,91,11.58,307,3.1,297.2,330.9,299.2
909.8,990,16.2,14.5,90,11.47,309,3.1,297.2,330.7,299.3
909.4,994,16.2,14.4,89,11.43,311,3.0,297.3,330.6,299.3
908.9,998,16.1,14.6,90,11.54,313,2.9,297.3,330.9,299.4
908.5,1002,16.1,14.7,92,11.65,316,2.9,297.2,331.2,299.3
908.0,1007,16.0,14.7,92,11.66,318,2.8,297.2,331.2,299.3
907.5,1011,15.9,14.6,92,11.57,321,2.7,297.2,330.9,299.3
907.0,1016,16.0,14.3,90,11.34,324,2.7,297.3,330.4,299.3
906.5,1021,16.1,13.8,86,11.00,326,2.7,297.4,329.6,299.4
906.0,1026,16.2,13.3,83,10.66,329,2.6,297.6,328.8,299.5
905.4,1031,16.3,12.9,80,10.39,332,2.6,297.8,328.2,299.6
904.9,1036,16.3,12.6,79,10.19,335,2.6,297.8,327.7,299.7
904.4,1041,16.3,12.4,78,10.05,338,2.6,297.9,327.4,299.7
903.9,1046,16.3,12.1,76,9.87,341,2.6,298.0,326.9,299.7
903.3,1051,16.4,11.7,74,9.62,343,2.6,298.1,326.3,299.8
902.8,1055,16.5,11.1,71,9.25,346,2.7,298.2,325.4,299.9
902.3,1060,16.6,10.3,66,8.73,348,2.7,298.4,324.2,300.0
901.8,1065,16.7,9.4,62,8.25,351,2.7,298.6,323.0,300.1
901.3,1070,16.9,8.5,58,7.73,353,2.7,298.8,321.7,300.2
900.8,1074,17.0,7.4,53,7.16,355,2.8,299.0,320.3,300.3
900.3,1079,17.2,6.3,49,6.66,357,2.8,299.2,319.1,300.4
899.9,1084,17.3,5.2,45,6.18,359,2.8,299.3,317.9,300.5
899.4,1088,17.4,4.5,42,5.88,1,2.8,299.5,317.2,300.6
898.9,1093,17.5,4.3,42,5.82,2,2.9,299.6,317.1,300.7
898.4,1098,17.5,4.4,42,5.84,4,2.9,299.7,317.3,300.7
897.9,1103,17.5,4.4,42,5.84,5,2.9,299.7,317.3,300.8
897.3,1108,17.5,4.0,41,5.68,7,2.9,299.7,316.9,300.8
896.7,1113,17.5,3.5,39,5.47,8,3.0,299.8,316.4,300.8
896.2,1119,17.5,3.1,38,5.34,9,3.0,299.9,316.0,300.8
895.6,1124,17.5,2.8,38,5.24,11,3.0,299.9,315.8,300.9
894.9,1130,17.4,2.3,36,5.06,12,3.0,300.0,315.3,300.9
894.3,1136,17.5,1.0,33,4.61,13,3.0,300.0,314.1,300.9
893.7,1142,17.6,-1.5,27,3.82,14,3.0,300.2,312.0,300.9
893.1,1148,17.7,-3.6,23,3.29,15,3.0,300.4,310.6,301.0
892.4,1154,17.8,-3.8,23,3.23,17,3.0,300.5,310.6,301.1
891.9,1160,17.7,-3.4,23,3.33,18,3.0,300.5,310.9,301.2
891.3,1165,17.7,-3.2,24,3.39,19,3.0,300.6,311.1,301.2
890.8,1170,17.6,-3.3,24,3.35,20,3.0,300.6,311.0,301.2
890.3,1175,17.6,-3.8,23,3.26,21,3.0,300.6,310.7,301.2
889.8,1180,17.7,-3.9,23,3.23,22,3.0,300.7,310.7,301.3
889.3,1184,17.6,-3.9,23,3.23,23,3.0,300.7,310.8,301.3
888.9,1189,17.7,-4.1,22,3.18,24,2.9,300.8,310.7,301.3
888.4,1193,17.7,-4.3,22,3.13,25,2.9,300.9,310.6,301.4
887.9,1197,17.8,-4.3,22,3.12,25,2.9,301.0,310.7,301.5
887.5,1202,17.8,-4.2,22,3.15,26,2.9,301.1,310.9,301.6
887.1,1206,17.9,-4.1,22,3.19,27,2.9,301.1,311.1,301.7
886.6,1210,17.9,-3.9,22,3.23,28,2.9,301.2,311.3,301.8
886.2,1214,17.9,-3.7,23,3.28,28,2.8,301.3,311.5,301.9
885.7,1219,18.0,-3.5,23,3.32,29,2.8,301.4,311.7,302.0
885.3,1223,18.0,-3.4,23,3.37,29,2.8,301.4,311.9,302.0
884.8,1228,18.0,-3.2,24,3.42,30,2.8,301.5,312.1,302.1
884.3,1233,18.0,-2.9,24,3.48,30,2.8,301.5,312.4,302.2
883.7,1238,18.0,-2.8,24,3.54,31,2.8,301.6,312.6,302.3
883.1,1244,18.0,-2.6,24,3.56,31,2.8,301.7,312.8,302.4
882.6,1249,18.1,-2.7,24,3.55,32,2.8,301.9,312.9,302.5
882.0,1255,18.2,-2.9,24,3.50,32,2.8,302.0,312.9,302.7
881.4,1260,18.3,-3.0,23,3.47,33,2.8,302.1,312.9,302.8
880.9,1265,18.3,-3.0,23,3.47,33,2.8,302.2,313.0,302.8
880.4,1271,18.3,-3.0,23,3.48,34,2.8,302.3,313.1,302.9
879.8,1276,18.4,-3.1,23,3.46,34,2.8,302.4,313.2,303.0
879.3,1280,18.4,-3.2,23,3.44,35,2.9,302.5,313.2,303.1
878.9,1285,18.4,-3.1,23,3.46,35,2.9,302.5,313.3,303.2
878.4,1290,18.4,-3.0,23,3.49,36,2.9,302.6,313.5,303.2
877.9,1294,18.4,-3.1,23,3.46,36,2.9,302.6,313.4,303.3
877.4,1299,18.4,-3.6,22,3.34,37,3.0,302.7,313.1,303.3
877.0,1304,18.5,-4.2,21,3.18,38,3.0,302.8,312.8,303.4
876.5,1308,18.5,-4.6,20,3.10,39,3.1,302.9,312.6,303.4
876.0,1313,18.6,-4.5,20,3.13,40,3.1,303.0,312.8,303.6
875.5,1318,18.6,-4.3,21,3.19,40,3.2,303.1,313.1,303.7
875.0,1323,18.7,-4.3,21,3.19,41,3.2,303.2,313.2,303.8
874.5,1328,18.8,-4.5,20,3.13,42,3.3,303.3,313.2,303.9
874.0,1332,18.8,-4.9,20,3.05,43,3.3,303.4,313.0,304.0
873.6,1337,18.9,-5.3,19,2.95,44,3.3,303.5,312.8,304.1
873.1,1341,18.9,-5.8,18,2.85,45,3.4,303.6,312.6,304.1
872.7,1346,18.9,-6.0,18,2.80,46,3.4,303.7,312.5,304.2
872.2,1350,19.0,-6.2,18,2.75,47,3.5,303.7,312.5,304.2
871.7,1355,19.0,-6.5,17,2.70,48,3.5,303.8,312.4,304.3
871.2,1360,19.0,-6.7,17,2.66,49,3.5,303.9,312.4,304.4
870.7,1365,19.0,-6.8,17,2.64,50,3.6,304.0,312.4,304.4
870.2,1370,19.0,-6.8,17,2.64,51,3.6,304.0,312.4,304.5
869.7,1375,19.0,-7.0,16,2.61,51,3.6,304.1,312.4,304.6
869.2,1380,19.1,-7.2,16,2.57,52,3.7,304.2,312.4,304.6
868.7,1385,19.1,-7.3,16,2.55,52,3.7,304.2,312.4,304.7
868.2,1389,19.1,-7.3,16,2.54,52,3.7,304.3,312.4,304.7
867.7,1394,19.1,-7.3,16,2.54,52,3.7,304.3,312.4,304.8
867.3,1399,19.1,-7.4,16,2.53,52,3.8,304.4,312.5,304.8
866.8,1404,19.1,-7.4,16,2.53,52,3.8,304.4,312.5,304.9
866.3,1409,19.0,-7.4,16,2.52,52,3.8,304.4,312.5,304.9
865.8,1414,19.0,-7.5,16,2.52,51,3.8,304.5,312.5,304.9
865.2,1419,19.0,-7.5,16,2.51,51,3.9,304.5,312.5,305.0
864.7,1424,19.0,-7.6,16,2.49,50,3.9,304.5,312.5,305.0
864.3,1429,19.0,-7.7,16,2.48,49,3.9,304.6,312.5,305.0
863.8,1433,19.0,-7.7,16,2.48,48,3.9,304.6,312.5,305.1
863.3,1438,19.0,-7.7,16,2.49,47,4.0,304.6,312.6,305.1
862.9,1443,19.0,-7.7,16,2.49,46,4.0,304.7,312.6,305.1
862.4,1447,18.9,-7.7,16,2.49,44,4.1,304.7,312.7,305.2
861.9,1452,18.9,-7.7,16,2.49,43,4.1,304.7,312.7,305.2
861.5,1456,18.9,-7.7,16,2.48,42,4.2,304.7,312.7,305.2
861.0,1461,18.9,-7.8,16,2.46,40,4.2,304.8,312.7,305.2
860.6,1465,18.9,-7.9,15,2.44,39,4.3,304.8,312.7,305.3
860.1,1470,18.8,-8.0,15,2.43,38,4.3,304.8,312.6,305.3
859.7,1474,18.8,-8.1,15,2.41,37,4.4,304.8,312.6,305.3
859.2,1479,18.8,-8.2,15,2.39,36,4.5,304.9,312.6,305.3
858.7,1483,18.8,-8.5,15,2.35,35,4.5,304.9,312.5,305.4
858.3,1488,18.8,-8.9,14,2.27,34,4.6,305.0,312.3,305.4
857.9,1492,18.8,-9.5,14,2.17,33,4.7,305.0,312.0,305.4
857.5,1496,18.8,-10.0,13,2.09,33,4.7,305.1,311.8,305.5
857.1,1500,18.8,-10.4,13,2.03,32,4.8,305.1,311.7,305.5
856.8,1503,18.9,-10.7,13,1.98,32,4.9,305.2,311.6,305.5
856.4,1506,18.9,-10.9,12,1.95,32,4.9,305.3,311.6,305.6
856.1,1509,18.9,-10.7,12,1.98,31,5.0,305.3,311.7,305.7
855.8,1512,18.9,-10.0,13,2.08,31,5.0,305.4,312.1,305.8
855.5,1515,19.0,-9.0,14,2.26,31,5.1,305.4,312.7,305.8
855.2,1519,19.0,-8.2,15,2.40,31,5.2,305.5,313.2,305.9
854.9,1522,19.0,-7.7,16,2.51,31,5.2,305.5,313.6,306.0
854.6,1525,19.0,-7.2,16,2.60,31,5.3,305.6,313.9,306.0
854.2,1529,19.0,-7.3,16,2.58,31,5.3,305.6,313.9,306.1
853.8,1532,19.0,-7.8,16,2.50,32,5.3,305.6,313.7,306.1
853.5,1536,19.0,-8.0,15,2.45,32,5.4,305.6,313.5,306.1
853.0,1540,19.0,-7.9,15,2.48,32,5.4,305.7,313.7,306.1
852.6,1545,18.9,-7.5,16,2.54,33,5.5,305.7,313.9,306.2
852.2,1549,18.9,-7.3,16,2.59,33,5.5,305.7,314.0,306.2
851.7,1554,18.9,-7.3,16,2.59,33,5.5,305.7,314.1,306.2
851.2,1558,18.9,-7.3,16,2.59,33,5.6,305.8,314.1,306.2
850.8,1563,18.8,-7.3,16,2.60,34,5.6,305.8,314.1,306.2
850.3,1568,18.8,-7.3,16,2.61,34,5.6,305.8,314.1,306.2
850.0,1571,18.8,-7.2,16,2.61,34,5.6,305.8,314.2,306.3
849.9,1572,18.7,-7.2,16,2.61,34,5.6,305.8,314.2,306.3
849.4,1577,18.7,-7.2,16,2.61,35,5.6,305.8,314.2,306.3
849.0,1581,18.7,-7.3,16,2.61,35,5.6,305.8,314.2,306.3
848.6,1585,18.7,-7.3,16,2.61,35,5.6,305.8,314.2,306.3
848.2,1589,18.6,-7.3,16,2.60,35,5.6,305.8,314.2,306.3
847.8,1593,18.6,-7.3,17,2.61,36,5.6,305.8,314.2,306.3
847.4,1597,18.6,-7.3,17,2.60,36,5.6,305.9,314.2,306.3
847.0,1602,18.5,-7.4,17,2.60,36,5.6,305.9,314.2,306.3
846.5,1606,18.5,-7.4,17,2.60,36,5.6,305.9,314.2,306.4
846.1,1610,18.5,-7.4,17,2.60,36,5.6,305.9,314.2,306.4
845.7,1615,18.4,-7.4,17,2.60,37,5.6,305.9,314.2,306.4
845.2,1619,18.4,-7.4,17,2.60,37,5.6,305.9,314.3,306.4
844.8,1624,18.4,-7.5,17,2.58,37,5.6,305.9,314.2,306.4
844.4,1628,18.4,-7.7,16,2.55,37,5.5,305.9,314.1,306.4
843.9,1632,18.3,-7.9,16,2.50,37,5.5,306.0,314.0,306.4
843.5,1637,18.3,-8.0,16,2.47,38,5.5,306.0,313.9,306.4
843.1,1641,18.3,-8.1,16,2.47,38,5.5,306.0,314.0,306.5
842.6,1645,18.3,-7.9,16,2.51,38,5.5,306.0,314.1,306.5
842.2,1650,18.2,-7.7,16,2.55,38,5.5,306.0,314.3,306.5
841.8,1654,18.2,-7.4,17,2.60,39,5.5,306.1,314.4,306.5
841.3,1659,18.2,-6.9,17,2.71,39,5.5,306.1,314.8,306.6
840.9,1663,18.2,-6.4,18,2.81,39,5.4,306.1,315.1,306.6
840.4,1668,18.1,-6.2,18,2.86,39,5.4,306.1,315.3,306.6
840.0,1673,18.1,-6.0,19,2.91,39,5.4,306.1,315.4,306.6
839.5,1677,18.0,-5.4,20,3.05,39,5.4,306.1,315.8,306.7
839.0,1682,18.0,-4.6,21,3.24,40,5.4,306.1,316.4,306.7
838.5,1687,18.0,-3.9,22,3.42,40,5.4,306.1,317.0,306.8
838.1,1692,17.9,-3.4,23,3.54,40,5.3,306.2,317.4,306.8
837.6,1697,17.9,-3.3,23,3.57,40,5.3,306.2,317.5,306.8
837.1,1701,17.9,-3.5,23,3.52,40,5.3,306.2,317.3,306.8
836.6,1706,17.8,-3.8,23,3.45,40,5.2,306.2,317.1,306.8
836.2,1711,17.8,-4.1,22,3.36,39,5.2,306.2,316.9,306.9
835.7,1716,17.8,-4.3,22,3.32,39,5.1,306.3,316.8,306.9
835.2,1721,17.8,-4.4,22,3.31,39,5.1,306.3,316.8,306.9
834.7,1726,17.7,-4.4,22,3.32,39,5.0,306.3,316.8,306.9
834.2,1731,17.7,-4.4,22,3.32,38,4.9,306.3,316.9,306.9
833.8,1736,17.7,-4.4,22,3.31,38,4.9,306.3,316.9,306.9
