PRES,HGHT,TEMP,DWPT,RELH,MIXR,DRCT,SPED,THTA,THTE,THTV
1014.1,31,25.6,22.5,83,17.18,53,7.5,297.6,347.5,300.6
1013.4,37,25.7,22.7,83,17.36,50,5.6,297.7,348.2,300.8
1012.9,41,25.4,22.5,84,17.19,50,5.5,297.5,347.5,300.5
1012.2,47,25.3,22.4,84,17.07,50,5.8,297.4,347.0,300.4
1011.7,51,25.2,22.3,84,17.00,50,6.3,297.4,346.8,300.4
1011.2,56,25.1,22.2,84,16.88,51,6.7,297.3,346.4,300.3
1010.5,62,25.1,22.0,83,16.75,51,7.2,297.3,346.0,300.3
1009.9,67,25.0,21.9,83,16.63,51,7.5,297.3,345.6,300.3
1009.4,72,24.9,21.8,83,16.50,51,7.9,297.3,345.2,300.2
1008.8,77,24.9,21.7,82,16.38,52,8.3,297.3,344.8,300.2
1008.2,82,24.8,21.5,82,16.23,52,8.6,297.2,344.4,300.1
1007.6,87,24.7,21.4,82,16.12,52,9.0,297.2,344.1,300.1
1007.1,92,24.7,21.4,82,16.12,52,9.3,297.2,344.1,300.1
1006.4,97,24.6,21.4,82,16.13,52,9.5,297.2,344.1,300.1
1005.8,103,24.6,21.4,82,16.11,52,9.8,297.2,344.0,300.1
1005.2,108,24.5,21.3,82,16.07,52,10.0,297.2,343.9,300.1
1004.6,113,24.5,21.3,83,16.08,52,10.2,297.2,343.9,300.1
1004.0,119,24.4,21.3,83,16.07,52,10.4,297.2,343.9,300.1
1003.4,124,24.4,21.2,83,16.01,52,10.6,297.2,343.7,300.1
1002.8,129,24.3,21.2,83,16.00,52,10.7,297.2,343.7,300.1
1002.3,134,24.3,21.2,83,16.06,52,10.8,297.2,343.9,300.1
1001.7,139,24.2,21.3,84,16.12,52,10.9,297.2,344.1,300.1
1001.1,144,24.2,21.3,84,16.18,52,11.0,297.2,344.2,300.1
1000.6,149,24.1,21.4,85,16.25,52,11.1,297.2,344.4,300.1
1000.0,154,24.1,21.4,85,16.29,52,11.1,297.2,344.5,300.1
999.4,159,24.0,21.4,85,16.31,52,11.1,297.2,344.6,300.1
998.9,164,24.0,21.4,86,16.32,51,11.2,297.2,344.6,300.1
998.3,169,23.9,21.4,86,16.32,51,11.2,297.2,344.6,300.1
997.7,174,23.9,21.4,86,16.34,51,11.2,297.2,344.7,300.1
997.2,179,23.8,21.5,87,16.40,51,11.2,297.2,344.9,300.1
996.6,183,23.8,21.5,87,16.45,50,11.2,297.2,345.0,300.2
996.1,188,23.7,21.5,87,16.44,50,11.2,297.2,345.0,300.1
995.5,193,23.7,21.5,87,16.40,50,11.2,297.2,344.9,300.1
995.0,198,23.7,21.4,87,16.30,50,11.2,297.2,344.6,300.1
994.4,203,23.6,21.2,86,16.17,49,11.1,297.2,344.2,300.1
993.8,209,23.6,21.1,86,16.10,49,11.1,297.3,344.0,300.1
993.2,214,23.5,21.1,86,16.11,49,11.1,297.3,344.0,300.1
992.6,219,23.5,21.2,87,16.14,49,11.1,297.3,344.1,300.1
992.0,225,23.4,21.2,87,16.14,49,11.1,297.3,344.1,300.1
991.4,230,23.4,21.1,87,16.13,49,11.1,297.3,344.1,300.1
990.8,235,23.3,21.1,88,16.14,49,11.1,297.2,344.1,300.1
990.3,240,23.3,21.1,88,16.16,48,11.1,297.2,344.2,300.1
989.7,244,23.2,21.1,88,16.15,48,11.1,297.2,344.1,300.1
989.2,249,23.2,21.1,88,16.10,49,11.1,297.2,344.0,300.1
988.8,253,23.1,21.0,88,16.05,49,11.1,297.2,343.8,300.1
988.3,257,23.1,21.0,88,16.02,49,11.1,297.2,343.8,300.1
987.8,261,23.1,21.0,88,16.04,49,11.1,297.3,343.8,300.1
987.3,266,23.0,21.0,88,16.08,49,11.1,297.3,344.0,300.1
986.8,270,23.0,21.1,89,16.15,49,11.1,297.3,344.2,300.1
986.3,275,22.9,21.2,90,16.23,49,11.1,297.2,344.4,300.1
985.8,279,22.9,21.2,90,16.28,50,11.2,297.2,344.5,300.1
985.2,284,22.8,21.2,90,16.27,50,11.2,297.2,344.5,300.1
984.6,289,22.8,21.1,90,16.23,50,11.2,297.2,344.4,300.1
984.1,295,22.7,21.1,90,16.18,50,11.2,297.2,344.2,300.1
983.5,300,22.7,21.0,90,16.14,50,11.2,297.2,344.1,300.1
982.9,305,22.6,21.0,90,16.10,51,11.2,297.2,344.0,300.1
982.3,310,22.6,20.9,91,16.08,51,11.2,297.2,343.9,300.1
981.7,315,22.5,20.9,91,16.10,51,11.2,297.2,344.0,300.1
981.2,320,22.5,20.9,91,16.05,52,11.2,297.2,343.8,300.1
980.7,324,22.5,20.8,90,15.96,52,11.2,297.3,343.6,300.1
980.3,329,22.4,20.7,90,15.88,52,11.2,297.3,343.4,300.1
979.8,333,22.4,20.7,90,15.87,52,11.2,297.3,343.4,300.1
979.3,337,22.4,20.7,90,15.88,53,11.2,297.3,343.4,300.1
978.9,341,22.4,20.7,90,15.90,53,11.2,297.3,343.5,300.1
978.4,345,22.3,20.7,91,15.92,53,11.2,297.3,343.6,300.2
978.0,349,22.3,20.7,91,15.92,53,11.2,297.3,343.5,300.1
977.6,353,22.2,20.7,91,15.89,54,11.1,297.3,343.5,300.1
977.1,357,22.2,20.6,91,15.86,54,11.1,297.3,343.3,300.1
976.7,360,22.1,20.6,91,15.86,54,11.1,297.3,343.3,300.1
976.3,364,22.1,20.6,91,15.88,54,11.0,297.3,343.4,300.1
975.8,368,22.1,20.7,92,15.91,55,11.0,297.3,343.5,300.1
975.4,372,22.0,20.7,92,15.93,55,11.0,297.3,343.6,300.1
975.0,376,22.0,20.7,92,15.95,55,11.0,297.3,343.6,300.1
974.5,380,22.0,20.7,93,15.96,55,10.9,297.3,343.7,300.1
974.0,384,21.9,20.7,93,15.97,55,10.9,297.3,343.7,300.1
973.5,388,21.9,20.7,93,15.97,55,10.9,297.3,343.7,300.1
973.0,393,21.8,20.7,93,15.96,55,10.9,297.3,343.7,300.1
972.5,398,21.8,20.6,93,15.95,56,10.9,297.3,343.6,300.1
972.0,402,21.7,20.6,93,15.91,56,10.9,297.3,343.5,300.1
971.5,407,21.7,20.5,93,15.83,56,11.0,297.3,343.3,300.1
970.9,412,21.6,20.5,93,15.78,56,11.0,297.3,343.1,300.1
970.4,417,21.6,20.4,93,15.78,56,11.0,297.3,343.1,300.1
969.9,421,21.5,20.5,94,15.82,57,11.1,297.3,343.2,300.1
969.4,426,21.5,20.5,94,15.88,57,11.1,297.3,343.4,300.1
968.9,430,21.5,20.5,94,15.91,57,11.2,297.3,343.5,300.1
968.4,434,21.4,20.5,95,15.90,57,11.2,297.3,343.5,300.1
968.0,438,21.4,20.5,95,15.89,58,11.3,297.3,343.4,300.1
967.5,443,21.3,20.5,95,15.93,58,11.3,297.3,343.6,300.1
967.1,447,21.3,20.6,95,15.96,58,11.4,297.3,343.6,300.1
966.6,451,21.3,20.6,96,15.97,59,11.4,297.3,343.7,300.1
966.2,455,21.3,20.5,96,15.95,59,11.5,297.3,343.6,300.1
965.7,459,21.2,20.5,96,15.92,59,11.5,297.3,343.6,300.2
965.3,463,21.2,20.5,96,15.89,60,11.6,297.3,343.5,300.2
964.8,467,21.2,20.4,96,15.86,60,11.6,297.3,343.4,300.2
964.3,471,21.1,20.4,96,15.84,61,11.6,297.4,343.4,300.2
963.8,476,21.1,20.4,96,15.85,61,11.6,297.4,343.4,300.2
963.3,480,21.0,20.4,96,15.86,61,11.6,297.3,343.4,300.2
962.8,485,21.0,20.4,96,15.85,62,11.6,297.3,343.4,300.2
962.3,489,20.9,20.4,96,15.83,62,11.6,297.3,343.3,300.2
961.8,494,20.9,20.3,96,15.80,63,11.6,297.3,343.2,300.2
961.3,498,20.9,20.3,97,15.78,63,11.6,297.3,343.2,300.2
960.8,503,20.8,20.3,97,15.79,63,11.5,297.3,343.2,300.2
960.4,507,20.8,20.3,97,15.80,63,11.5,297.3,343.2,300.2
959.9,511,20.8,20.3,97,15.78,64,11.4,297.4,343.2,300.2
959.4,516,20.7,20.2,97,15.77,64,11.4,297.4,343.2,300.2
958.9,520,20.7,20.2,97,15.76,64,11.3,297.4,343.2,300.2
958.4,525,20.7,20.2,97,15.78,64,11.2,297.4,343.3,300.2
957.9,529,20.7,20.2,97,15.78,64,11.2,297.4,343.3,300.3
957.4,534,20.6,20.2,97,15.72,64,11.1,297.5,343.1,300.3
956.9,538,20.6,20.1,97,15.65,64,11.1,297.5,343.0,300.3
956.4,543,20.6,20.0,96,15.60,64,11.1,297.6,342.9,300.3
955.9,548,20.6,20.0,96,15.61,64,11.0,297.6,343.0,300.4
955.3,553,20.6,20.0,97,15.64,64,11.0,297.6,343.1,300.4
954.8,558,20.5,20.0,97,15.64,64,11.0,297.6,343.1,300.4
954.2,563,20.5,20.0,97,15.62,64,11.0,297.6,343.0,300.4
953.7,568,20.4,20.0,97,15.57,64,11.0,297.6,342.9,300.4
953.1,573,20.4,19.9,97,15.50,64,11.0,297.6,342.7,300.4
952.6,578,20.4,19.8,97,15.46,64,11.1,297.6,342.6,300.4
952.1,583,20.4,19.8,97,15.46,64,11.1,297.7,342.6,300.4
951.5,587,20.4,19.9,97,15.51,64,11.2,297.7,342.8,300.5
951.0,592,20.3,19.9,97,15.56,64,11.2,297.7,343.0,300.5
950.5,597,20.3,19.9,98,15.59,64,11.3,297.7,343.1,300.5
949.9,602,20.3,19.9,98,15.59,64,11.4,297.8,343.1,300.5
949.4,607,20.2,19.9,98,15.56,64,11.4,297.7,343.0,300.5
948.8,612,20.1,19.8,98,15.51,64,11.5,297.7,342.9,300.5
948.2,617,20.1,19.7,98,15.45,64,11.6,297.7,342.7,300.5
947.7,622,20.0,19.7,98,15.42,65,11.7,297.7,342.6,300.5
947.1,627,20.0,19.7,98,15.44,65,11.8,297.7,342.6,300.5
946.6,632,19.9,19.7,99,15.49,65,11.8,297.7,342.8,300.5
946.1,637,19.9,19.8,99,15.51,66,11.9,297.7,342.9,300.5
945.6,642,19.9,19.7,99,15.48,66,12.0,297.8,342.8,300.5
945.0,647,19.9,19.7,99,15.43,66,12.1,297.8,342.7,300.5
944.5,651,19.8,19.6,99,15.40,67,12.1,297.8,342.6,300.5
944.0,656,19.8,19.6,99,15.39,67,12.2,297.8,342.6,300.6
943.5,661,19.8,19.6,99,15.41,68,12.3,297.8,342.7,300.6
943.0,665,19.7,19.6,99,15.44,68,12.3,297.8,342.8,300.6
942.5,670,19.7,19.6,100,15.45,68,12.3,297.8,342.8,300.6
942.0,675,19.7,19.6,100,15.41,69,12.4,297.9,342.7,300.6
941.4,680,19.6,19.5,99,15.37,69,12.4,297.9,342.6,300.6
940.9,685,19.6,19.5,99,15.32,69,12.4,297.9,342.5,300.6
940.3,690,19.6,19.4,99,15.24,70,12.4,297.9,342.3,300.6
939.8,695,19.5,19.3,99,15.16,70,12.5,297.9,342.0,300.6
939.2,700,19.5,19.3,99,15.13,70,12.4,297.9,342.0,300.6
938.7,705,19.5,19.3,99,15.19,70,12.4,297.9,342.2,300.7
938.2,709,19.4,19.4,100,15.28,70,12.4,298.0,342.5,300.7
937.7,714,19.4,19.4,100,15.32,70,12.4,298.0,342.6,300.7
937.2,719,19.4,19.4,100,15.31,70,12.4,298.0,342.7,300.8
936.7,723,19.4,19.4,100,15.29,70,12.3,298.1,342.6,300.8
936.2,728,19.4,19.3,100,15.25,70,12.3,298.1,342.5,300.8
935.6,733,19.3,19.3,100,15.21,70,12.2,298.1,342.4,300.8
935.1,738,19.3,19.2,99,15.16,69,12.2,298.1,342.3,300.8
934.6,743,19.3,19.2,99,15.13,69,12.1,298.1,342.2,300.8
934.1,748,19.3,19.2,100,15.14,69,12.0,298.2,342.3,300.9
933.6,752,19.2,19.2,100,15.16,68,12.0,298.2,342.4,300.9
933.1,757,19.2,19.2,100,15.18,68,11.9,298.2,342.5,300.9
932.6,761,19.2,19.2,100,15.18,68,11.9,298.2,342.5,300.9
932.1,766,19.2,19.2,100,15.16,67,11.8,298.2,342.5,300.9
931.6,770,19.1,19.1,100,15.13,67,11.7,298.2,342.4,300.9
931.2,775,19.1,19.1,100,15.11,66,11.7,298.3,342.3,301.0
930.7,779,19.1,19.1,100,15.11,66,11.6,298.3,342.4,301.0
930.2,783,19.1,19.1,100,15.12,65,11.6,298.3,342.4,301.0
929.8,787,19.1,19.1,100,15.12,65,11.5,298.4,342.5,301.1
929.3,792,19.1,19.1,100,15.10,64,11.5,298.4,342.5,301.1
928.8,796,19.1,19.0,100,15.07,64,11.5,298.4,342.4,301.1
928.4,800,19.0,19.0,100,15.03,63,11.4,298.4,342.3,301.1
927.9,804,19.0,18.9,100,15.00,63,11.4,298.5,342.3,301.1
927.5,809,19.0,18.9,100,14.99,63,11.4,298.5,342.2,301.2
927.0,813,19.0,18.9,100,14.99,63,11.3,298.5,342.3,301.2
926.5,817,19.0,18.9,100,14.97,63,11.3,298.5,342.3,301.2
926.1,822,18.9,18.9,100,14.96,63,11.3,298.5,342.2,301.2
925.6,826,18.9,18.8,100,14.95,63,11.3,298.6,342.2,301.2
925.1,831,18.9,18.8,100,14.95,63,11.3,298.6,342.2,301.2
925.0,832,18.8,18.8,100,14.95,63,11.3,298.6,342.2,301.2
924.6,836,18.8,18.8,100,14.95,63,11.3,298.6,342.2,301.3
924.1,841,18.8,18.8,100,14.94,63,11.2,298.6,342.2,301.3
923.5,845,18.8,18.7,100,14.89,64,11.2,298.6,342.1,301.3
923.0,850,18.7,18.7,100,14.83,64,11.2,298.6,342.0,301.3
922.5,855,18.7,18.6,100,14.79,64,11.2,298.6,341.9,301.3
921.9,860,18.6,18.6,100,14.79,65,11.2,298.6,341.9,301.3
921.4,865,18.6,18.6,100,14.79,65,11.2,298.7,341.9,301.3
920.9,870,18.6,18.6,100,14.79,66,11.2,298.7,341.9,301.3
920.3,875,18.6,18.6,100,14.79,66,11.2,298.7,342.0,301.4
919.8,880,18.6,18.6,100,14.80,66,11.2,298.8,342.0,301.4
919.2,886,18.6,18.6,100,14.83,67,11.2,298.8,342.2,301.5
918.7,891,18.6,18.6,100,14.85,67,11.2,298.9,342.4,301.6
918.1,896,18.6,18.6,100,14.86,68,11.2,299.0,342.5,301.7
917.6,901,18.6,18.6,100,14.87,68,11.2,299.0,342.6,301.7
917.0,906,18.6,18.6,100,14.85,68,11.3,299.1,342.6,301.8
916.5,911,18.6,18.5,99,14.82,68,11.3,299.1,342.5,301.8
916.0,916,18.6,18.5,99,14.79,69,11.4,299.2,342.5,301.8
915.5,921,18.6,18.5,99,14.81,69,11.4,299.2,342.6,301.9
915.0,926,18.6,18.6,100,14.87,69,11.5,299.2,342.8,301.9
914.4,931,18.6,18.6,100,14.89,69,11.6,299.3,342.9,301.9
913.9,936,18.5,18.5,100,14.86,69,11.7,299.3,342.8,301.9
913.3,941,18.5,18.5,100,14.81,69,11.7,299.3,342.7,301.9
912.7,947,18.4,18.4,100,14.77,69,11.9,299.3,342.6,301.9
912.1,953,18.4,18.4,100,14.76,69,12.0,299.3,342.6,302.0
911.5,958,18.4,18.4,100,14.76,69,12.1,299.4,342.6,302.0
911.0,964,18.4,18.3,100,14.70,69,12.2,299.4,342.5,302.0
910.4,969,18.4,18.2,99,14.64,69,12.3,299.4,342.4,302.1
909.9,974,18.3,18.2,99,14.62,69,12.5,299.5,342.3,302.1
909.3,979,18.3,18.2,99,14.62,69,12.6,299.5,342.4,302.1
908.8,984,18.3,18.2,99,14.60,69,12.7,299.5,342.3,302.1
908.2,989,18.3,18.1,99,14.57,69,12.9,299.5,342.3,302.2
907.7,994,18.2,18.1,99,14.58,68,13.0,299.6,342.3,302.2
907.1,1000,18.2,18.2,100,14.62,68,13.1,299.6,342.5,302.2
906.5,1005,18.2,18.2,100,14.66,68,13.2,299.6,342.7,302.3
905.9,1011,18.2,18.2,100,14.65,68,13.3,299.7,342.7,302.3
905.3,1017,18.1,18.1,100,14.62,68,13.4,299.7,342.6,302.3
904.7,1023,18.1,18.1,100,14.60,68,13.5,299.7,342.6,302.3
904.1,1028,18.1,18.0,99,14.52,68,13.5,299.7,342.4,302.3
903.6,1034,18.1,17.9,99,14.46,68,13.6,299.8,342.3,302.4
903.0,1039,18.1,17.9,99,14.45,68,13.6,299.8,342.3,302.4
902.5,1044,18.1,17.9,99,14.47,68,13.7,299.9,342.4,302.5
902.0,1049,18.0,17.9,99,14.50,69,13.7,299.9,342.5,302.5
901.5,1054,18.0,17.9,100,14.50,69,13.7,299.9,342.5,302.5
901.0,1059,17.9,17.9,100,14.46,69,13.7,299.9,342.4,302.5
900.4,1063,17.9,17.8,100,14.43,69,13.7,299.9,342.3,302.5
899.9,1068,17.9,17.8,100,14.43,69,13.7,299.9,342.4,302.5
899.4,1073,17.9,17.8,100,14.43,69,13.7,300.0,342.4,302.6
898.9,1078,17.9,17.8,100,14.44,69,13.7,300.0,342.5,302.6
898.4,1083,17.9,17.8,100,14.44,69,13.7,300.1,342.5,302.7
897.8,1088,17.8,17.8,100,14.42,69,13.7,300.1,342.5,302.7
897.3,1093,17.8,17.7,100,14.39,69,13.7,300.1,342.4,302.7
896.8,1098,17.7,17.7,100,14.33,69,13.7,300.1,342.2,302.7
896.3,1103,17.7,17.6,99,14.28,69,13.7,300.1,342.1,302.6
895.8,1107,17.6,17.6,99,14.25,69,13.7,300.1,342.0,302.6
895.3,1112,17.6,17.6,100,14.27,69,13.8,300.1,342.0,302.6
894.8,1118,17.6,17.6,100,14.26,70,13.8,300.1,342.1,302.7
894.2,1123,17.6,17.6,100,14.28,70,13.9,300.2,342.2,302.7
893.7,1128,17.6,17.6,100,14.29,70,14.0,300.2,342.3,302.8
893.1,1133,17.6,17.5,100,14.26,70,14.0,300.3,342.2,302.8
892.6,1139,17.5,17.5,100,14.21,70,14.1,300.3,342.1,302.8
892.0,1144,17.5,17.4,100,14.18,70,14.2,300.3,342.0,302.8
891.5,1149,17.4,17.4,100,14.15,70,14.3,300.3,341.9,302.8
891.0,1154,17.4,17.4,100,14.16,70,14.4,300.3,342.0,302.8
890.4,1159,17.4,17.4,100,14.16,70,14.5,300.3,342.0,302.9
889.9,1164,17.4,17.4,100,14.15,69,14.7,300.3,342.0,302.9
889.4,1170,17.3,17.3,100,14.12,69,14.8,300.4,341.9,302.9
888.9,1175,17.3,17.2,100,14.06,69,14.9,300.3,341.7,302.9
888.3,1180,17.2,17.1,99,13.93,69,15.0,300.3,341.3,302.8
887.8,1185,17.1,16.9,99,13.80,69,15.1,300.3,340.9,302.8
887.2,1190,17.1,16.9,99,13.80,69,15.2,300.3,340.9,302.8
886.7,1196,17.0,17.0,100,13.84,69,15.3,300.3,341.1,302.8
886.1,1201,17.0,17.0,100,13.88,69,15.4,300.4,341.2,302.9
885.5,1207,17.0,17.0,100,13.88,69,15.5,300.4,341.3,302.9
885.0,1212,17.0,16.9,100,13.86,69,15.6,300.5,341.3,303.0
884.4,1217,17.0,16.9,99,13.81,69,15.6,300.5,341.2,303.0
883.9,1223,17.0,16.7,98,13.70,68,15.7,300.5,340.9,303.0
883.3,1228,16.9,16.7,98,13.64,68,15.7,300.5,340.7,303.0
882.8,1233,16.9,16.7,99,13.66,68,15.7,300.6,340.8,303.0
882.3,1238,16.9,16.7,99,13.69,68,15.8,300.6,340.9,303.1
881.7,1243,16.9,16.7,99,13.66,68,15.8,300.6,340.9,303.1
881.2,1249,16.8,16.7,99,13.69,68,15.7,300.6,341.0,303.1
880.7,1254,16.8,16.7,99,13.70,68,15.7,300.7,341.1,303.1
880.2,1259,16.8,16.6,99,13.61,68,15.7,300.7,340.8,303.1
879.7,1264,16.7,16.4,98,13.50,67,15.7,300.7,340.5,303.1
879.2,1268,16.7,16.4,98,13.45,67,15.6,300.7,340.3,303.1
878.7,1273,16.6,16.4,98,13.44,67,15.5,300.7,340.3,303.1
878.3,1277,16.6,16.3,98,13.43,67,15.5,300.7,340.3,303.1
877.8,1282,16.6,16.4,99,13.46,67,15.4,300.7,340.4,303.1
877.3,1286,16.5,16.4,99,13.49,67,15.3,300.7,340.5,303.1
876.8,1291,16.5,16.4,100,13.51,67,15.3,300.7,340.6,303.1
876.3,1296,16.4,16.4,100,13.49,67,15.2,300.7,340.5,303.1
875.8,1302,16.4,16.3,100,13.45,67,15.1,300.7,340.4,303.1
875.2,1307,16.3,16.2,99,13.39,67,15.0,300.7,340.2,303.1
874.7,1312,16.3,16.2,99,13.37,67,14.9,300.7,340.2,303.1
874.2,1317,16.3,16.2,99,13.37,67,14.8,300.8,340.2,303.2
873.7,1321,16.2,16.2,100,13.40,67,14.7,300.8,340.3,303.2
873.2,1326,16.2,16.2,100,13.40,67,14.7,300.8,340.3,303.2
872.7,1331,16.2,16.2,100,13.37,67,14.6,300.8,340.3,303.2
872.2,1337,16.1,16.1,100,13.35,67,14.5,300.8,340.2,303.2
871.6,1342,16.1,16.1,100,13.36,67,14.4,300.9,340.3,303.3
871.0,1348,16.1,16.1,100,13.36,67,14.3,300.9,340.4,303.3
870.4,1354,16.1,16.1,100,13.35,67,14.2,301.0,340.4,303.4
869.9,1359,16.1,16.1,100,13.31,68,14.1,301.0,340.3,303.4
869.3,1365,16.1,16.0,100,13.26,68,14.0,301.0,340.2,303.4
868.8,1370,16.0,15.9,99,13.22,68,14.0,301.0,340.1,303.4
868.3,1375,16.0,15.9,99,13.24,68,13.9,301.1,340.2,303.5
867.8,1379,16.0,16.0,100,13.26,69,13.8,301.1,340.3,303.5
867.4,1384,16.0,16.0,100,13.28,69,13.8,301.2,340.4,303.6
866.9,1388,16.0,16.0,100,13.31,69,13.8,301.2,340.5,303.6
866.5,1392,16.0,16.0,100,13.31,70,13.7,301.2,340.6,303.6
866.1,1397,16.0,16.0,100,13.31,70,13.7,301.3,340.6,303.7
865.6,1401,16.0,16.0,100,13.32,71,13.7,301.3,340.7,303.7
865.2,1406,16.0,16.0,100,13.32,71,13.7,301.3,340.8,303.8
864.7,1410,16.0,15.9,100,13.30,71,13.7,301.4,340.7,303.8
864.3,1415,16.0,15.9,99,13.25,72,13.8,301.4,340.6,303.8
863.8,1419,15.9,15.8,99,13.22,72,13.8,301.4,340.6,303.8
863.4,1423,15.9,15.8,99,13.20,72,13.9,301.5,340.5,303.8
863.0,1427,15.9,15.8,99,13.19,73,13.9,301.5,340.5,303.9
862.6,1431,15.9,15.8,99,13.20,73,14.0,301.5,340.6,303.9
862.2,1435,15.9,15.8,99,13.20,73,14.1,301.5,340.6,303.9
861.8,1439,15.8,15.8,100,13.19,74,14.2,301.5,340.6,303.9
861.4,1443,15.8,15.8,100,13.18,74,14.3,301.5,340.6,303.9
861.0,1447,15.8,15.8,100,13.20,74,14.4,301.6,340.7,304.0
860.5,1451,15.8,15.7,100,13.19,74,14.5,301.6,340.7,304.0
860.1,1456,15.8,15.7,100,13.16,74,14.6,301.6,340.6,304.0
859.7,1460,15.7,15.7,100,13.12,74,14.6,301.6,340.5,304.0
859.2,1464,15.7,15.6,99,13.08,74,14.7,301.6,340.4,304.0
858.8,1469,15.6,15.6,99,13.05,74,14.8,301.6,340.3,304.0
858.4,1473,15.6,15.5,100,13.05,74,14.9,301.6,340.3,304.0
857.9,1477,15.6,15.5,100,13.06,74,15.0,301.7,340.4,304.0
857.5,1481,15.6,15.5,100,13.06,73,15.0,301.7,340.4,304.1
857.1,1485,15.6,15.5,100,13.05,73,15.1,301.7,340.4,304.1
856.8,1489,15.6,15.5,100,13.05,73,15.1,301.8,340.4,304.1
856.4,1493,15.6,15.5,100,13.04,73,15.2,301.8,340.4,304.1
856.0,1497,15.5,15.5,100,13.05,73,15.2,301.8,340.5,304.2
855.6,1501,15.5,15.5,100,13.03,72,15.2,301.8,340.5,304.2
855.1,1505,15.5,15.5,100,13.03,72,15.2,301.9,340.5,304.2
854.7,1509,15.5,15.4,100,13.01,72,15.2,301.9,340.5,304.2
854.3,1514,15.5,15.4,100,13.01,72,15.2,301.9,340.5,304.3
853.8,1518,15.5,15.4,100,13.01,72,15.2,301.9,340.5,304.3
853.3,1524,15.4,15.4,100,13.01,72,15.2,302.0,340.6,304.3
852.7,1529,15.4,15.4,100,13.00,72,15.2,302.0,340.6,304.3
852.2,1535,15.4,15.3,100,12.96,72,15.2,302.0,340.5,304.3
851.6,1540,15.3,15.3,100,12.92,72,15.2,302.0,340.4,304.4
851.0,1546,15.3,15.2,99,12.87,72,15.2,302.0,340.2,304.4
850.5,1551,15.2,15.1,99,12.79,72,15.1,302.0,340.0,304.4
850.0,1556,15.2,15.0,99,12.74,72,15.1,302.0,339.9,304.4
849.9,1557,15.2,15.0,99,12.73,72,15.1,302.1,339.9,304.4
849.4,1562,15.2,15.0,99,12.72,73,15.1,302.1,339.9,304.4
848.9,1567,15.2,15.0,99,12.73,73,15.1,302.1,340.0,304.4
848.4,1572,15.2,15.0,99,12.77,73,15.1,302.2,340.1,304.5
847.9,1577,15.1,15.0,99,12.79,73,15.1,302.2,340.2,304.5
847.4,1582,15.1,15.0,99,12.79,74,15.1,302.2,340.2,304.6
847.0,1587,15.1,15.0,99,12.74,74,15.1,302.2,340.1,304.6
846.5,1591,15.1,14.9,99,12.67,74,15.1,302.3,339.9,304.6
846.1,1596,15.0,14.8,99,12.59,74,15.1,302.2,339.7,304.5
845.6,1600,15.0,14.7,99,12.57,75,15.1,302.3,339.6,304.5
845.2,1604,15.0,14.8,99,12.61,75,15.1,302.3,339.8,304.6
844.8,1609,14.9,14.9,99,12.68,75,15.2,302.3,340.0,304.6
844.4,1613,14.9,14.9,100,12.72,75,15.2,302.4,340.2,304.7
843.9,1617,15.0,14.9,99,12.71,76,15.2,302.4,340.2,304.7
843.5,1621,14.9,14.8,99,12.65,76,15.3,302.4,340.1,304.7
843.1,1626,14.9,14.7,99,12.60,76,15.3,302.4,339.9,304.7
842.6,1630,14.9,14.7,99,12.59,76,15.4,302.5,339.9,304.7
842.2,1635,14.8,14.7,99,12.60,76,15.5,302.5,340.0,304.8
841.7,1639,14.8,14.7,99,12.62,76,15.6,302.5,340.0,304.8
841.3,1644,14.8,14.7,99,12.63,76,15.6,302.5,340.1,304.8
840.8,1649,14.8,14.7,99,12.65,76,15.7,302.6,340.3,304.9
840.3,1653,14.8,14.7,99,12.64,76,15.8,302.6,340.3,304.9
839.9,1658,14.8,14.7,99,12.63,76,15.9,302.7,340.3,305.0
839.4,1663,14.8,14.7,99,12.59,76,16.0,302.7,340.2,305.0
838.9,1668,14.8,14.6,99,12.55,76,16.2,302.8,340.2,305.1
838.5,1672,14.8,14.5,98,12.51,76,16.3,302.8,340.1,305.1
838.0,1677,14.8,14.5,99,12.52,75,16.4,302.8,340.2,305.1
837.6,1681,14.8,14.6,99,12.60,75,16.5,302.9,340.4,305.2
837.1,1686,14.8,14.7,100,12.70,75,16.6,302.9,340.8,305.2
836.7,1690,14.8,14.8,100,12.76,75,16.7,303.0,341.0,305.3
836.2,1695,14.9,14.9,100,12.82,75,16.9,303.1,341.3,305.4
835.7,1700,14.9,14.9,100,12.84,74,17.0,303.2,341.6,305.6
835.3,1705,15.0,14.8,99,12.81,74,17.1,303.3,341.6,305.7
834.8,1709,15.0,14.8,99,12.76,74,17.2,303.4,341.5,305.7
834.4,1713,15.0,14.7,98,12.70,74,17.2,303.4,341.4,305.7
834.0,1717,15.0,14.6,98,12.67,74,17.3,303.4,341.3,305.8
833.6,1721,15.0,14.6,98,12.67,73,17.4,303.5,341.3,305.8
