PRES,HGHT,TEMP,DWPT,RELH,MIXR,DRCT,SPED,THTA,THTE,THTV
1013.4,31,28.5,21.8,67,16.45,77,5.2,300.5,349.0,303.5
1012.7,37,27.3,21.9,72,16.51,87,3.7,299.4,347.8,302.4
1012.2,41,26.5,21.6,74,16.25,91,3.6,298.6,346.1,301.5
1011.5,47,26.0,21.5,76,16.12,92,3.7,298.1,345.1,301.0
1011.0,52,25.7,21.4,77,16.06,92,4.0,297.9,344.7,300.8
1010.6,55,25.7,21.3,77,15.97,91,4.3,297.9,344.4,300.7
1010.0,60,25.6,21.2,77,15.88,91,4.7,297.9,344.2,300.7
1009.3,67,25.6,21.1,76,15.81,90,4.9,297.9,344.0,300.7
1008.7,72,25.5,21.1,76,15.77,90,5.2,297.9,343.9,300.7
1008.1,77,25.5,21.0,76,15.71,90,5.5,297.9,343.7,300.7
1007.5,83,25.4,20.9,76,15.65,89,5.8,297.9,343.5,300.7
1006.9,88,25.4,20.9,76,15.62,89,6.1,297.9,343.4,300.7
1006.3,93,25.3,20.8,76,15.59,89,6.3,297.9,343.3,300.7
1005.7,98,25.3,20.8,76,15.56,88,6.6,297.9,343.3,300.7
1005.1,103,25.2,20.8,76,15.53,88,6.8,297.9,343.2,300.7
1004.6,108,25.2,20.7,76,15.50,88,7.0,297.9,343.1,300.7
1004.0,113,25.1,20.7,77,15.51,87,7.2,297.9,343.1,300.7
1003.5,117,25.1,20.8,77,15.55,87,7.4,297.9,343.3,300.7
1003.0,122,25.1,20.8,77,15.63,86,7.6,297.9,343.5,300.7
1002.4,127,25.0,20.9,78,15.76,86,7.8,298.0,343.9,300.8
1001.8,132,25.0,21.1,79,15.90,86,8.0,298.0,344.3,300.8
1001.3,137,24.9,21.1,79,15.96,85,8.1,298.0,344.5,300.8
1000.7,142,24.9,21.1,80,15.93,85,8.3,298.0,344.4,300.8
1000.1,147,24.8,21.0,79,15.87,84,8.4,298.0,344.2,300.8
1000.0,148,24.8,21.0,79,15.85,84,8.5,297.9,344.1,300.8
999.6,152,24.8,20.9,79,15.80,84,8.5,297.9,344.0,300.8
999.0,156,24.7,20.9,79,15.77,84,8.6,297.9,343.9,300.8
998.5,161,24.7,20.9,80,15.77,84,8.6,297.9,343.9,300.8
998.0,166,24.6,20.9,80,15.74,83,8.7,297.9,343.8,300.7
997.4,171,24.6,20.8,79,15.65,83,8.8,298.0,343.6,300.7
996.9,175,24.5,20.6,79,15.55,83,8.8,297.9,343.3,300.7
996.4,180,24.5,20.6,79,15.52,83,8.8,297.9,343.2,300.7
995.8,185,24.4,20.6,79,15.52,83,8.8,297.9,343.2,300.7
995.2,190,24.4,20.6,79,15.52,83,8.8,297.9,343.2,300.7
994.6,196,24.3,20.6,80,15.53,83,8.8,298.0,343.2,300.7
994.0,201,24.3,20.6,80,15.54,84,8.8,297.9,343.2,300.7
993.4,207,24.2,20.6,80,15.53,84,8.7,297.9,343.2,300.7
992.7,213,24.2,20.5,80,15.47,84,8.7,297.9,343.0,300.7
992.0,218,24.1,20.4,80,15.38,84,8.7,297.9,342.8,300.7
991.3,225,24.1,20.4,80,15.36,85,8.6,298.0,342.7,300.7
990.6,231,24.0,20.4,80,15.39,85,8.5,298.0,342.8,300.7
989.9,237,24.0,20.4,81,15.42,86,8.5,298.0,342.9,300.7
989.2,243,23.9,20.4,81,15.44,86,8.4,298.0,342.9,300.7
988.5,249,23.8,20.4,81,15.40,87,8.4,298.0,342.8,300.7
987.9,255,23.8,20.3,81,15.32,87,8.3,297.9,342.6,300.7
987.3,261,23.7,20.1,80,15.21,88,8.3,297.9,342.3,300.6
986.7,266,23.7,20.0,80,15.12,89,8.2,297.9,342.0,300.6
986.2,270,23.6,20.0,80,15.10,89,8.2,298.0,342.0,300.7
985.7,275,23.6,20.0,80,15.11,90,8.2,298.0,342.0,300.7
985.2,279,23.6,20.0,80,15.12,90,8.1,298.0,342.0,300.7
984.8,283,23.5,20.0,81,15.16,91,8.1,298.0,342.2,300.7
984.3,287,23.5,20.1,81,15.21,91,8.1,298.0,342.3,300.7
983.8,291,23.4,20.1,82,15.25,92,8.1,298.0,342.4,300.7
983.4,295,23.4,20.1,82,15.27,92,8.0,298.0,342.4,300.7
982.9,300,23.3,20.1,82,15.25,92,8.0,298.0,342.4,300.7
982.4,304,23.3,20.1,82,15.26,92,8.0,298.0,342.4,300.7
981.9,309,23.3,20.1,83,15.27,92,8.0,298.0,342.4,300.7
981.3,313,23.2,20.1,83,15.29,92,8.0,298.0,342.5,300.7
980.8,318,23.2,20.1,83,15.31,92,8.0,298.0,342.6,300.7
980.3,322,23.1,20.2,83,15.33,92,8.1,298.0,342.6,300.7
979.9,327,23.1,20.1,84,15.33,91,8.1,297.9,342.6,300.7
979.4,331,23.0,20.1,83,15.25,91,8.1,297.9,342.4,300.7
978.9,336,23.0,19.9,83,15.10,90,8.1,298.0,342.0,300.7
978.4,340,23.0,19.7,82,14.93,89,8.1,298.0,341.5,300.7
977.9,344,23.0,19.6,82,14.88,89,8.2,298.0,341.4,300.7
977.4,349,22.9,19.7,82,14.98,88,8.2,298.0,341.7,300.7
976.9,353,22.9,19.9,83,15.11,87,8.2,298.0,342.0,300.7
976.4,358,22.8,19.9,84,15.16,86,8.3,298.0,342.2,300.7
975.9,362,22.8,19.9,84,15.14,85,8.3,298.0,342.1,300.7
975.3,367,22.7,19.8,84,15.08,84,8.4,298.0,341.9,300.7
974.8,372,22.7,19.7,83,14.99,83,8.4,298.0,341.7,300.7
974.3,376,22.7,19.7,83,14.95,82,8.4,298.0,341.6,300.7
973.8,381,22.6,19.6,83,14.95,81,8.5,298.0,341.6,300.7
973.3,385,22.6,19.6,83,14.94,80,8.5,298.0,341.6,300.7
972.8,389,22.6,19.6,83,14.91,80,8.6,298.0,341.5,300.7
972.4,393,22.5,19.5,83,14.86,79,8.6,298.0,341.4,300.7
972.0,397,22.5,19.5,83,14.83,78,8.7,298.1,341.3,300.7
971.6,401,22.5,19.4,83,14.78,77,8.7,298.1,341.2,300.7
971.2,405,22.5,19.3,83,14.69,77,8.8,298.1,340.9,300.7
970.7,408,22.4,19.2,82,14.57,76,8.8,298.1,340.6,300.7
970.3,412,22.4,19.1,81,14.45,76,8.8,298.1,340.3,300.7
969.9,416,22.4,18.9,81,14.35,76,8.8,298.2,340.1,300.7
969.5,419,22.4,18.9,80,14.30,75,8.9,298.2,339.9,300.7
969.1,423,22.4,18.8,80,14.24,75,8.9,298.2,339.8,300.8
968.7,427,22.4,18.7,80,14.16,75,8.9,298.2,339.6,300.8
968.3,431,22.4,18.7,80,14.12,75,8.9,298.3,339.5,300.8
967.8,434,22.3,18.7,80,14.17,76,8.9,298.3,339.6,300.8
967.4,438,22.3,18.8,81,14.26,76,8.9,298.3,339.9,300.8
967.0,442,22.3,18.9,81,14.34,76,8.9,298.3,340.1,300.8
966.5,446,22.2,18.9,81,14.36,77,8.9,298.2,340.2,300.8
966.1,450,22.2,18.8,81,14.28,77,8.9,298.3,339.9,300.8
965.7,454,22.2,18.7,81,14.18,78,8.9,298.3,339.7,300.8
965.2,458,22.2,18.7,81,14.18,78,8.9,298.3,339.7,300.8
964.8,462,22.1,18.8,81,14.26,79,8.8,298.3,339.9,300.8
964.3,466,22.1,18.8,82,14.26,80,8.8,298.3,339.9,300.8
963.9,470,22.0,18.6,81,14.15,80,8.8,298.3,339.6,300.8
963.4,474,22.0,18.4,80,13.96,81,8.8,298.3,339.1,300.8
963.0,478,22.0,18.2,79,13.82,82,8.8,298.4,338.7,300.8
962.5,482,22.0,18.2,79,13.81,82,8.9,298.4,338.7,300.9
962.1,487,22.0,18.3,79,13.85,83,8.9,298.4,338.9,300.9
961.6,491,21.9,18.3,80,13.93,83,8.9,298.4,339.1,300.9
961.1,496,21.9,18.5,81,14.06,84,8.9,298.4,339.4,300.9
960.6,500,21.8,18.6,82,14.20,84,8.9,298.3,339.8,300.9
960.0,505,21.7,18.8,84,14.38,84,9.0,298.3,340.3,300.9
959.5,510,21.6,19.0,85,14.61,85,9.0,298.2,340.9,300.9
959.0,515,21.5,19.2,87,14.77,85,9.1,298.2,341.3,300.8
958.5,519,21.4,19.2,87,14.79,85,9.1,298.1,341.3,300.8
958.0,524,21.3,19.2,88,14.81,85,9.2,298.1,341.3,300.8
957.5,528,21.3,19.3,88,14.87,85,9.2,298.1,341.5,300.8
957.0,533,21.2,19.3,89,14.89,85,9.3,298.1,341.5,300.8
956.5,537,21.2,19.3,89,14.91,85,9.4,298.1,341.6,300.8
956.1,541,21.1,19.4,90,14.99,85,9.4,298.1,341.8,300.8
955.6,545,21.1,19.5,91,15.07,85,9.5,298.1,342.0,300.8
955.2,549,21.0,19.5,91,15.08,85,9.6,298.1,342.0,300.7
954.7,553,21.0,19.4,91,15.02,85,9.7,298.1,341.8,300.7
954.3,557,21.0,19.3,90,14.89,84,9.8,298.1,341.5,300.7
953.9,561,21.0,19.0,89,14.69,84,9.9,298.1,340.9,300.7
953.4,565,21.0,18.8,87,14.43,84,10.0,298.2,340.3,300.7
953.0,569,21.0,18.4,85,14.11,84,10.1,298.2,339.4,300.7
952.6,573,21.0,17.9,82,13.69,83,10.3,298.3,338.2,300.7
952.2,577,21.1,17.5,80,13.32,83,10.4,298.4,337.3,300.7
951.7,581,21.1,17.2,78,13.09,83,10.5,298.5,336.7,300.8
951.3,585,21.2,16.9,77,12.87,83,10.6,298.6,336.2,300.9
950.8,589,21.2,16.9,76,12.84,82,10.7,298.6,336.2,300.9
950.4,593,21.2,17.0,77,12.96,82,10.8,298.6,336.6,300.9
950.0,596,21.1,17.2,78,13.08,82,10.9,298.6,336.9,300.9
949.6,600,21.1,17.2,79,13.13,82,11.1,298.6,337.0,300.9
949.2,604,21.0,17.2,79,13.10,82,11.2,298.6,336.9,300.9
948.8,608,21.0,17.0,78,12.97,81,11.3,298.6,336.5,300.9
948.4,611,21.0,16.8,77,12.78,81,11.4,298.6,336.1,300.9
948.0,615,21.0,16.6,76,12.66,81,11.4,298.7,335.8,301.0
947.6,618,21.0,16.6,76,12.63,81,11.5,298.7,335.7,301.0
947.2,622,21.0,16.6,76,12.63,81,11.6,298.7,335.8,301.0
946.8,625,21.0,16.6,76,12.62,81,11.6,298.8,335.7,301.0
946.4,629,21.0,16.5,76,12.61,81,11.7,298.8,335.7,301.0
946.0,633,20.9,16.5,76,12.60,81,11.7,298.8,335.7,301.0
945.6,637,20.9,16.5,76,12.60,81,11.7,298.8,335.7,301.0
945.2,640,20.9,16.5,76,12.62,81,11.8,298.8,335.8,301.1
944.8,644,20.8,16.5,76,12.63,81,11.8,298.8,335.8,301.1
944.3,648,20.8,16.6,77,12.65,81,11.7,298.8,335.9,301.1
943.9,652,20.8,16.6,77,12.70,81,11.7,298.8,336.0,301.1
943.5,656,20.7,16.7,78,12.76,81,11.7,298.8,336.2,301.1
943.0,660,20.7,16.7,78,12.81,81,11.6,298.8,336.3,301.1
942.6,664,20.7,16.8,78,12.83,81,11.6,298.8,336.4,301.1
942.1,668,20.6,16.7,78,12.83,81,11.5,298.8,336.4,301.1
941.7,672,20.6,16.7,78,12.80,81,11.4,298.8,336.3,301.1
941.2,677,20.5,16.6,78,12.76,81,11.4,298.8,336.2,301.1
940.7,681,20.5,16.6,79,12.76,81,11.3,298.8,336.2,301.1
940.3,686,20.4,16.7,79,12.82,81,11.2,298.8,336.3,301.1
939.8,690,20.4,16.7,80,12.87,81,11.1,298.8,336.5,301.1
939.3,695,20.3,16.7,80,12.87,81,11.0,298.8,336.5,301.1
938.8,699,20.3,16.7,80,12.85,81,10.9,298.8,336.4,301.1
938.3,704,20.3,16.7,80,12.83,81,10.7,298.8,336.4,301.1
937.8,708,20.2,16.7,80,12.87,80,10.6,298.8,336.5,301.1
937.3,713,20.2,16.8,81,12.92,80,10.5,298.8,336.6,301.1
936.8,717,20.1,16.8,81,12.94,80,10.4,298.8,336.7,301.1
936.4,722,20.1,16.8,81,12.96,80,10.3,298.8,336.7,301.1
935.9,726,20.0,16.8,82,12.99,80,10.2,298.8,336.8,301.1
935.4,730,20.0,16.9,82,13.05,80,10.1,298.8,337.0,301.1
935.0,734,19.9,17.0,83,13.11,80,10.0,298.8,337.2,301.1
934.6,738,19.9,17.0,83,13.16,80,9.9,298.8,337.3,301.1
934.1,742,19.9,17.0,84,13.17,80,9.9,298.8,337.3,301.1
933.7,746,19.8,16.9,83,13.11,79,9.8,298.8,337.1,301.1
933.2,751,19.8,16.8,83,13.03,79,9.7,298.8,336.9,301.1
932.8,755,19.8,16.8,83,13.00,79,9.6,298.8,336.8,301.1
932.3,759,19.7,16.8,83,13.02,79,9.6,298.8,336.9,301.1
931.8,764,19.7,16.9,84,13.07,79,9.5,298.8,337.1,301.1
931.3,768,19.6,16.9,84,13.13,80,9.4,298.8,337.2,301.1
930.8,773,19.6,17.0,85,13.18,80,9.4,298.8,337.4,301.1
930.3,778,19.5,17.0,85,13.20,80,9.3,298.8,337.4,301.1
929.8,782,19.5,17.0,86,13.25,80,9.3,298.8,337.5,301.1
929.3,787,19.4,17.1,86,13.29,80,9.2,298.8,337.7,301.1
928.9,791,19.4,17.1,86,13.28,81,9.2,298.7,337.6,301.1
928.4,795,19.3,17.0,86,13.26,81,9.1,298.8,337.6,301.1
928.0,799,19.3,17.0,86,13.25,82,9.1,298.8,337.5,301.1
927.5,803,19.3,17.0,87,13.27,82,9.0,298.8,337.6,301.1
927.1,808,19.2,17.1,87,13.31,83,9.0,298.8,337.7,301.1
926.6,812,19.2,17.1,88,13.34,83,8.9,298.8,337.8,301.1
926.1,816,19.1,17.1,88,13.36,84,8.9,298.8,337.9,301.2
925.7,821,19.1,17.1,88,13.35,84,8.8,298.8,337.8,301.2
925.2,825,19.1,17.0,88,13.33,85,8.8,298.8,337.8,301.2
925.0,827,19.1,17.0,88,13.32,85,8.7,298.8,337.8,301.2
924.7,829,19.0,17.0,88,13.32,85,8.7,298.8,337.8,301.2
924.3,834,19.0,17.0,88,13.33,86,8.7,298.8,337.8,301.2
923.8,838,19.0,17.0,88,13.34,86,8.6,298.8,337.9,301.2
923.3,842,19.0,17.0,89,13.36,87,8.6,298.8,338.0,301.2
922.8,847,18.9,17.1,89,13.37,87,8.6,298.9,338.0,301.2
922.3,852,18.9,17.1,89,13.39,87,8.5,298.8,338.0,301.2
921.8,857,18.8,17.1,90,13.41,88,8.5,298.8,338.1,301.2
921.3,862,18.8,17.1,90,13.40,88,8.5,298.8,338.1,301.2
920.7,867,18.7,17.1,90,13.40,89,8.5,298.9,338.1,301.3
920.2,872,18.7,17.0,90,13.40,89,8.4,298.8,338.1,301.2
919.6,877,18.6,17.1,91,13.43,89,8.4,298.9,338.2,301.3
919.1,882,18.6,17.1,91,13.48,89,8.4,298.8,338.3,301.3
918.6,887,18.5,17.1,92,13.51,90,8.4,298.9,338.4,301.3
918.1,892,18.5,17.1,92,13.50,90,8.4,298.9,338.4,301.3
917.6,897,18.5,17.1,92,13.46,90,8.4,298.9,338.3,301.3
917.1,901,18.4,17.0,92,13.45,90,8.4,298.9,338.3,301.3
916.6,906,18.4,17.1,92,13.47,91,8.4,298.9,338.3,301.3
916.1,911,18.4,17.1,92,13.53,91,8.4,298.9,338.5,301.3
915.6,915,18.3,17.2,93,13.58,91,8.4,298.9,338.7,301.4
915.1,920,18.3,17.1,93,13.57,91,8.4,298.9,338.6,301.4
914.6,924,18.2,17.1,93,13.52,91,8.4,298.9,338.5,301.3
914.1,929,18.2,17.0,93,13.48,91,8.4,298.9,338.4,301.3
913.6,934,18.2,17.0,93,13.45,92,8.4,298.9,338.3,301.4
913.1,939,18.1,17.0,93,13.43,92,8.4,299.0,338.3,301.4
912.6,943,18.1,16.9,93,13.40,92,8.4,299.0,338.2,301.4
912.1,948,18.1,16.8,92,13.34,92,8.4,299.0,338.1,301.4
911.5,953,18.1,16.7,92,13.26,92,8.4,299.1,338.0,301.5
911.0,958,18.1,16.7,91,13.20,92,8.3,299.1,337.8,301.5
910.5,963,18.1,16.6,91,13.19,91,8.3,299.2,337.8,301.5
910.0,967,18.1,16.6,91,13.19,91,8.3,299.2,337.9,301.5
909.6,972,18.0,16.7,92,13.23,91,8.3,299.2,338.0,301.6
909.1,976,18.0,16.7,92,13.28,91,8.2,299.2,338.1,301.6
908.6,981,18.0,16.8,93,13.33,91,8.2,299.2,338.3,301.6
908.2,985,17.9,16.8,93,13.35,90,8.2,299.2,338.3,301.6
907.7,989,17.9,16.7,93,13.31,90,8.1,299.2,338.2,301.6
907.2,994,17.8,16.6,93,13.25,89,8.1,299.2,338.0,301.6
906.8,998,17.8,16.6,93,13.21,89,8.0,299.2,337.9,301.6
906.4,1002,17.8,16.6,93,13.20,89,8.0,299.2,337.9,301.6
906.0,1006,17.7,16.6,93,13.23,88,7.9,299.2,338.0,301.6
905.6,1010,17.7,16.6,93,13.26,88,7.9,299.2,338.1,301.6
905.2,1013,17.7,16.6,94,13.26,87,7.8,299.2,338.1,301.6
904.8,1017,17.7,16.6,93,13.24,87,7.8,299.2,338.0,301.6
904.4,1020,17.6,16.5,93,13.18,86,7.7,299.3,337.9,301.6
904.1,1024,17.6,16.4,92,13.09,86,7.7,299.3,337.7,301.6
903.7,1027,17.7,16.3,92,13.00,85,7.6,299.3,337.5,301.7
903.3,1031,17.7,16.1,90,12.87,85,7.6,299.4,337.2,301.7
902.9,1035,17.8,16.0,89,12.77,84,7.5,299.5,337.1,301.8
902.5,1039,17.8,16.0,89,12.75,84,7.5,299.6,337.0,301.9
902.1,1042,17.8,15.9,89,12.73,84,7.4,299.6,337.0,301.9
901.7,1046,17.8,15.9,89,12.72,84,7.4,299.6,337.0,301.9
901.3,1050,17.8,15.9,89,12.69,84,7.3,299.7,337.0,301.9
900.9,1054,17.7,15.8,89,12.65,84,7.3,299.7,336.9,302.0
900.5,1058,17.7,15.8,88,12.62,83,7.2,299.7,336.8,302.0
900.0,1062,17.7,15.7,88,12.59,83,7.2,299.7,336.8,302.0
899.6,1067,17.7,15.7,88,12.55,84,7.2,299.8,336.7,302.0
899.1,1071,17.7,15.6,88,12.51,84,7.1,299.8,336.6,302.0
898.6,1076,17.6,15.6,88,12.52,84,7.1,299.8,336.6,302.0
898.1,1081,17.6,15.6,89,12.54,84,7.0,299.8,336.6,302.0
897.6,1086,17.5,15.6,88,12.50,84,7.0,299.8,336.5,302.0
897.1,1091,17.5,15.5,88,12.40,84,7.0,299.8,336.3,302.0
896.5,1096,17.5,15.3,87,12.31,84,6.9,299.8,336.1,302.0
896.0,1101,17.4,15.2,87,12.25,85,6.9,299.8,335.9,302.0
895.5,1105,17.4,15.2,87,12.25,85,6.8,299.9,335.9,302.1
895.0,1110,17.4,15.2,87,12.26,85,6.8,299.9,336.0,302.1
894.5,1115,17.3,15.2,87,12.24,85,6.8,299.9,335.9,302.1
894.0,1120,17.3,15.1,87,12.17,85,6.7,299.9,335.8,302.1
893.5,1125,17.3,15.0,86,12.08,85,6.7,300.0,335.5,302.1
893.0,1130,17.3,14.9,86,12.03,85,6.7,300.0,335.4,302.2
892.5,1134,17.3,14.9,86,12.02,85,6.7,300.0,335.4,302.2
892.0,1139,17.3,14.9,86,12.04,85,6.6,300.0,335.5,302.2
891.6,1143,17.2,14.9,86,12.06,84,6.6,300.0,335.6,302.2
891.1,1148,17.2,14.9,87,12.08,84,6.6,300.1,335.7,302.3
890.7,1152,17.2,14.9,87,12.08,84,6.6,300.1,335.7,302.3
890.2,1156,17.1,14.9,87,12.07,84,6.6,300.1,335.7,302.3
889.8,1161,17.1,14.9,87,12.06,84,6.6,300.1,335.7,302.3
889.3,1165,17.1,14.9,87,12.03,83,6.6,300.1,335.6,302.3
888.9,1169,17.1,14.7,86,11.94,83,6.6,300.1,335.4,302.3
888.4,1174,17.1,14.6,85,11.84,83,6.6,300.2,335.1,302.3
887.9,1178,17.1,14.5,85,11.74,82,6.6,300.2,334.9,302.4
887.5,1183,17.1,14.4,84,11.67,82,6.6,300.3,334.7,302.4
887.0,1187,17.1,14.3,84,11.63,82,6.6,300.3,334.7,302.4
886.5,1192,17.1,14.3,84,11.65,82,6.7,300.4,334.8,302.5
886.0,1196,17.0,14.3,84,11.66,82,6.7,300.4,334.8,302.5
885.6,1201,17.0,14.3,84,11.63,82,6.7,300.4,334.8,302.5
885.1,1206,17.0,14.2,83,11.57,82,6.8,300.4,334.6,302.5
884.6,1210,17.0,14.1,83,11.50,82,6.8,300.5,334.5,302.6
884.2,1214,17.0,14.0,83,11.44,82,6.8,300.5,334.3,302.6
883.8,1218,16.9,13.9,82,11.38,82,6.9,300.5,334.2,302.6
883.4,1222,16.9,13.9,82,11.34,83,6.9,300.5,334.1,302.6
883.0,1225,16.9,13.8,82,11.32,83,7.0,300.6,334.1,302.6
882.7,1229,16.9,13.8,82,11.34,83,7.0,300.6,334.1,302.6
882.3,1232,16.9,13.9,83,11.38,84,7.1,300.6,334.3,302.7
881.9,1236,16.8,14.0,83,11.44,84,7.1,300.6,334.4,302.7
881.5,1240,16.8,14.0,83,11.47,84,7.2,300.6,334.5,302.7
881.1,1244,16.8,14.0,84,11.47,85,7.2,300.6,334.5,302.7
880.7,1249,16.7,14.0,84,11.45,86,7.3,300.6,334.5,302.7
880.2,1253,16.7,13.9,84,11.45,86,7.3,300.6,334.5,302.7
879.7,1258,16.7,13.9,84,11.44,87,7.3,300.6,334.4,302.7
879.2,1263,16.6,13.9,84,11.43,87,7.4,300.6,334.4,302.7
878.7,1268,16.6,13.9,84,11.43,88,7.4,300.6,334.4,302.7
878.2,1273,16.5,13.9,84,11.45,88,7.4,300.6,334.5,302.7
877.7,1277,16.5,13.9,85,11.43,89,7.4,300.6,334.4,302.7
877.2,1282,16.5,13.8,84,11.38,89,7.5,300.6,334.3,302.7
876.8,1286,16.4,13.7,84,11.31,90,7.5,300.7,334.1,302.7
876.3,1291,16.4,13.6,84,11.28,90,7.5,300.7,334.1,302.7
875.9,1295,16.4,13.6,84,11.27,91,7.5,300.7,334.0,302.7
875.4,1299,16.3,13.6,84,11.27,91,7.5,300.7,334.1,302.7
875.0,1304,16.3,13.6,84,11.26,92,7.5,300.7,334.0,302.7
874.5,1308,16.2,13.6,84,11.25,92,7.5,300.7,334.0,302.7
874.1,1313,16.2,13.6,84,11.24,92,7.5,300.7,333.9,302.7
873.6,1317,16.2,13.5,84,11.20,92,7.5,300.7,333.8,302.7
873.1,1322,16.1,13.5,84,11.18,93,7.5,300.7,333.8,302.7
872.6,1327,16.1,13.5,84,11.20,93,7.4,300.7,333.9,302.7
872.2,1331,16.1,13.5,85,11.23,93,7.4,300.7,333.9,302.8
871.7,1336,16.0,13.5,85,11.24,93,7.4,300.8,334.0,302.8
871.2,1340,16.0,13.5,85,11.22,94,7.4,300.8,334.0,302.8
870.8,1345,16.0,13.5,85,11.21,94,7.3,300.8,334.0,302.8
870.3,1350,16.0,13.5,85,11.23,94,7.3,300.8,334.1,302.9
869.8,1354,15.9,13.5,85,11.26,94,7.2,300.8,334.2,302.9
869.3,1359,15.9,13.5,85,11.23,94,7.2,300.9,334.1,302.9
868.9,1363,15.9,13.4,85,11.16,95,7.1,300.9,333.9,302.9
868.4,1368,15.9,13.3,85,11.11,95,7.0,300.9,333.8,302.9
868.0,1372,15.8,13.3,85,11.11,95,7.0,300.9,333.8,302.9
867.5,1377,15.8,13.3,85,11.15,96,6.9,300.9,334.0,302.9
867.1,1381,15.8,13.4,86,11.20,96,6.8,300.9,334.1,302.9
866.6,1386,15.7,13.4,86,11.23,96,6.7,300.9,334.2,303.0
866.1,1390,15.7,13.4,86,11.23,97,6.6,301.0,334.2,303.0
865.6,1395,15.7,13.4,86,11.22,97,6.6,301.0,334.2,303.0
865.2,1400,15.6,13.4,86,11.21,98,6.5,300.9,334.1,303.0
864.7,1405,15.5,13.3,87,11.19,98,6.4,300.9,334.1,303.0
864.2,1409,15.5,13.3,87,11.17,99,6.3,300.9,334.0,303.0
863.7,1414,15.5,13.2,87,11.14,99,6.2,300.9,334.0,303.0
863.3,1418,15.4,13.2,87,11.13,100,6.1,300.9,333.9,303.0
862.9,1422,15.4,13.2,87,11.15,100,6.0,300.9,334.0,303.0
862.5,1426,15.4,13.3,87,11.17,101,5.9,301.0,334.1,303.0
862.1,1430,15.3,13.3,88,11.20,102,5.8,301.0,334.2,303.0
861.7,1434,15.3,13.3,88,11.23,102,5.7,301.0,334.2,303.0
861.3,1438,15.3,13.3,88,11.25,102,5.6,301.0,334.3,303.0
860.9,1442,15.2,13.4,89,11.26,103,5.6,301.0,334.3,303.0
860.5,1446,15.2,13.4,89,11.27,103,5.5,301.0,334.3,303.0
860.1,1450,15.1,13.4,89,11.27,103,5.4,301.0,334.4,303.0
859.7,1454,15.1,13.4,89,11.28,103,5.3,301.0,334.4,303.0
859.3,1458,15.1,13.4,89,11.28,103,5.3,301.0,334.4,303.0
858.8,1462,15.0,13.4,90,11.31,103,5.2,301.0,334.5,303.0
858.4,1466,15.0,13.4,90,11.33,103,5.2,301.0,334.6,303.1
858.0,1471,15.0,13.4,90,11.32,103,5.1,301.0,334.5,303.1
857.5,1475,14.9,13.3,90,11.29,102,5.1,301.0,334.5,303.1
857.1,1480,14.9,13.3,90,11.28,102,5.0,301.0,334.4,303.1
856.6,1484,14.9,13.3,90,11.28,101,5.0,301.0,334.5,303.1
856.1,1489,14.8,13.3,91,11.30,101,4.9,301.0,334.5,303.1
855.7,1494,14.8,13.3,91,11.32,100,4.9,301.0,334.6,303.1
855.2,1498,14.7,13.3,91,11.33,99,4.9,301.0,334.6,303.1
854.7,1503,14.7,13.3,91,11.32,98,4.9,301.0,334.6,303.1
854.2,1508,14.6,13.3,92,11.30,98,4.8,301.0,334.5,303.1
853.8,1513,14.6,13.3,92,11.28,97,4.8,301.1,334.5,303.1
853.3,1517,14.6,13.2,92,11.28,96,4.8,301.1,334.5,303.1
852.8,1522,14.6,13.2,92,11.27,95,4.7,301.1,334.5,303.1
852.4,1526,14.5,13.2,92,11.26,94,4.7,301.1,334.5,303.1
851.9,1531,14.5,13.1,92,11.23,93,4.7,301.1,334.4,303.1
851.5,1535,14.5,13.1,91,11.19,92,4.6,301.1,334.3,303.1
851.1,1539,14.4,13.0,91,11.14,91,4.6,301.1,334.2,303.1
850.6,1544,14.4,12.9,91,11.09,91,4.6,301.1,334.0,303.2
850.2,1548,14.4,12.9,91,11.03,90,4.5,301.2,333.9,303.2
850.0,1550,14.4,12.8,90,11.00,89,4.5,301.2,333.8,303.2
849.8,1552,14.4,12.7,90,10.96,89,4.5,301.2,333.7,303.2
849.3,1557,14.3,12.6,90,10.89,88,4.5,301.2,333.5,303.2
848.9,1561,14.3,12.5,89,10.80,88,4.4,301.2,333.3,303.2
848.4,1566,14.3,12.4,88,10.74,87,4.4,301.3,333.2,303.2
847.9,1571,14.3,12.4,88,10.70,87,4.4,301.3,333.1,303.3
847.5,1575,14.3,12.3,88,10.65,86,4.3,301.3,333.0,303.3
847.0,1580,14.3,12.2,87,10.61,86,4.3,301.4,332.9,303.3
846.5,1585,14.2,12.1,87,10.57,85,4.3,301.4,332.8,303.3
846.0,1590,14.2,12.1,87,10.56,85,4.3,301.4,332.8,303.3
845.4,1596,14.2,12.2,88,10.59,85,4.3,301.4,332.9,303.3
844.9,1601,14.1,12.2,88,10.63,85,4.3,301.5,333.0,303.4
844.3,1607,14.1,12.2,89,10.65,85,4.3,301.5,333.1,303.4
843.8,1612,14.1,12.2,89,10.65,85,4.3,301.5,333.1,303.4
843.2,1618,14.0,12.2,89,10.62,85,4.3,301.5,333.1,303.4
842.7,1623,14.0,12.1,89,10.60,86,4.4,301.5,333.0,303.4
842.1,1629,13.9,12.1,89,10.60,86,4.4,301.5,333.0,303.4
841.6,1634,13.9,12.0,89,10.56,86,4.4,301.5,332.9,303.5
841.1,1639,13.9,11.9,88,10.47,87,4.5,301.6,332.7,303.5
840.6,1644,13.8,11.7,87,10.32,88,4.5,301.6,332.3,303.4
