PRES,HGHT,TEMP,DWPT,RELH,MIXR,DRCT,SPED,THTA,THTE,THTV
1014.5,31,24.7,19.3,72,14.05,45,8.1,296.6,337.4,299.1
1014.2,33,24.4,18.8,71,13.60,51,5.6,296.3,335.7,298.7
1013.5,39,23.8,18.5,72,13.33,56,4.8,295.8,334.3,298.2
1013.0,44,23.3,18.1,73,13.04,58,4.7,295.3,333.0,297.6
1012.4,49,23.0,18.1,74,12.98,58,4.9,295.1,332.6,297.4
1011.7,54,23.0,18.1,74,13.01,58,5.3,295.2,332.7,297.5
1011.1,60,22.8,17.8,73,12.82,57,5.7,295.0,332.0,297.3
1010.4,66,22.7,17.7,73,12.67,57,6.0,294.9,331.5,297.2
1009.8,72,22.6,17.6,73,12.60,57,6.4,294.9,331.2,297.1
1009.1,77,22.6,17.5,73,12.54,56,6.6,294.9,331.1,297.2
1008.5,83,22.5,17.4,73,12.52,56,6.9,295.0,331.1,297.2
1007.8,88,22.6,17.5,73,12.60,56,7.2,295.1,331.4,297.3
1007.2,94,22.5,17.5,73,12.60,55,7.4,295.0,331.4,297.3
1006.6,99,22.4,17.4,73,12.51,55,7.7,295.0,331.0,297.2
1005.9,105,22.3,17.3,73,12.45,55,7.9,294.9,330.8,297.1
1005.3,110,22.2,17.3,74,12.43,54,8.1,294.9,330.7,297.1
1004.6,116,22.2,17.3,74,12.43,54,8.3,294.9,330.8,297.1
1004.0,121,22.1,17.3,74,12.49,53,8.5,294.9,330.9,297.1
1003.4,126,22.1,17.4,75,12.53,53,8.7,294.9,331.1,297.2
1002.8,132,22.0,17.4,75,12.53,53,8.9,294.9,331.1,297.1
1002.2,137,22.0,17.3,75,12.51,52,9.0,294.9,331.0,297.1
1001.6,142,21.9,17.4,75,12.55,52,9.2,294.9,331.1,297.2
1001.0,148,21.9,17.4,76,12.60,52,9.3,295.0,331.3,297.2
1000.4,153,21.8,17.4,76,12.63,52,9.4,294.9,331.3,297.2
1000.0,156,21.8,17.4,76,12.63,52,9.4,294.9,331.4,297.2
999.7,159,21.8,17.5,76,12.65,51,9.5,294.9,331.4,297.2
999.0,165,21.7,17.4,77,12.64,51,9.6,294.9,331.4,297.2
998.3,171,21.7,17.4,77,12.66,51,9.7,294.9,331.4,297.2
997.6,177,21.6,17.4,77,12.66,51,9.8,294.9,331.4,297.2
996.9,183,21.5,17.4,77,12.64,51,9.9,295.0,331.4,297.2
996.1,190,21.5,17.4,78,12.64,51,10.0,295.0,331.4,297.2
995.4,196,21.4,17.4,78,12.64,51,10.0,294.9,331.4,297.2
994.6,203,21.4,17.3,78,12.62,51,10.1,295.0,331.3,297.2
993.9,210,21.3,17.3,78,12.61,52,10.1,294.9,331.3,297.2
993.1,216,21.2,17.3,78,12.61,52,10.2,294.9,331.3,297.2
992.3,223,21.1,17.3,79,12.59,52,10.2,294.9,331.2,297.1
991.5,230,21.1,17.2,79,12.57,53,10.3,294.9,331.2,297.2
990.8,237,21.0,17.3,79,12.61,53,10.3,294.9,331.3,297.2
990.0,243,20.9,17.3,80,12.68,54,10.3,294.9,331.5,297.2
989.3,250,20.9,17.4,80,12.71,54,10.3,294.9,331.5,297.2
988.5,256,20.8,17.3,80,12.69,55,10.3,294.9,331.5,297.2
987.8,263,20.8,17.3,80,12.64,55,10.3,294.9,331.3,297.2
987.1,269,20.7,17.1,80,12.50,56,10.3,294.9,330.9,297.1
986.5,274,20.6,16.9,79,12.35,56,10.3,294.9,330.5,297.1
985.9,280,20.6,16.8,79,12.29,57,10.3,294.9,330.3,297.1
985.3,285,20.5,16.8,79,12.29,57,10.3,294.9,330.3,297.1
984.7,290,20.5,16.8,79,12.32,58,10.3,294.9,330.4,297.1
984.2,295,20.4,16.8,80,12.31,58,10.3,294.9,330.4,297.1
983.6,300,20.4,16.8,80,12.31,59,10.3,294.9,330.4,297.1
983.1,304,20.3,16.8,80,12.35,59,10.3,294.9,330.5,297.1
982.5,309,20.3,16.9,81,12.39,59,10.2,294.9,330.6,297.1
981.9,314,20.2,16.9,81,12.39,59,10.2,294.9,330.6,297.1
981.4,319,20.1,16.8,81,12.36,59,10.2,294.9,330.5,297.1
980.9,323,20.1,16.7,81,12.30,59,10.2,294.9,330.3,297.1
980.4,328,20.1,16.7,81,12.26,59,10.1,294.9,330.2,297.1
979.9,332,20.1,16.7,81,12.26,59,10.1,294.9,330.2,297.1
979.4,336,20.0,16.7,81,12.30,59,10.1,294.9,330.4,297.1
978.9,341,20.0,16.7,82,12.34,58,10.1,294.9,330.5,297.1
978.4,345,19.9,16.7,82,12.32,58,10.0,294.9,330.4,297.1
977.9,349,19.9,16.7,82,12.30,58,10.0,294.9,330.4,297.1
977.5,354,19.8,16.7,82,12.29,57,10.0,294.9,330.3,297.1
977.0,358,19.8,16.6,82,12.28,57,10.0,294.9,330.3,297.1
976.4,363,19.8,16.6,82,12.27,56,10.0,294.9,330.3,297.1
975.9,367,19.7,16.6,82,12.29,55,10.0,294.9,330.4,297.1
975.4,372,19.7,16.7,83,12.34,55,10.0,294.9,330.5,297.1
974.8,377,19.6,16.7,83,12.39,54,10.0,294.9,330.6,297.1
974.2,382,19.6,16.8,84,12.42,54,10.0,294.9,330.7,297.1
973.6,387,19.5,16.7,84,12.40,53,10.0,294.9,330.6,297.1
973.1,393,19.5,16.7,84,12.34,53,10.0,294.9,330.5,297.1
972.5,398,19.4,16.6,84,12.30,53,10.0,294.9,330.4,297.1
971.8,403,19.4,16.6,84,12.29,52,10.0,294.9,330.4,297.1
971.2,409,19.3,16.5,84,12.28,52,10.0,294.9,330.3,297.1
970.6,415,19.3,16.5,84,12.23,52,10.0,294.9,330.2,297.1
969.9,420,19.2,16.4,84,12.17,52,10.0,294.9,330.0,297.1
969.3,426,19.2,16.4,84,12.16,52,10.0,294.9,330.0,297.1
968.6,432,19.1,16.4,84,12.19,52,10.0,294.9,330.1,297.1
968.0,438,19.1,16.4,84,12.18,52,10.0,294.9,330.0,297.1
967.3,444,19.0,16.3,84,12.14,52,10.0,294.9,329.9,297.1
966.7,449,19.0,16.3,84,12.11,52,10.0,295.0,329.9,297.1
966.1,455,18.9,16.2,84,12.10,52,10.1,295.0,329.8,297.1
965.5,460,18.9,16.3,85,12.13,53,10.1,294.9,329.9,297.1
964.9,465,18.8,16.3,86,12.20,53,10.1,294.9,330.1,297.1
964.3,470,18.7,16.4,86,12.22,53,10.1,294.9,330.1,297.1
963.8,475,18.7,16.4,86,12.24,53,10.2,294.9,330.2,297.1
963.2,480,18.6,16.5,87,12.31,53,10.2,294.9,330.4,297.1
962.6,485,18.6,16.5,88,12.37,54,10.3,294.9,330.6,297.1
962.1,491,18.5,16.5,88,12.38,54,10.3,294.9,330.6,297.1
961.5,496,18.5,16.5,88,12.35,54,10.4,294.9,330.5,297.1
960.8,502,18.4,16.4,88,12.32,54,10.5,294.9,330.4,297.1
960.2,508,18.4,16.3,88,12.26,54,10.5,294.9,330.2,297.1
959.5,513,18.3,16.2,87,12.15,54,10.6,294.9,329.9,297.1
958.9,519,18.3,16.0,86,11.99,54,10.7,294.9,329.5,297.0
958.3,525,18.2,15.9,86,11.92,54,10.8,295.0,329.3,297.1
957.7,530,18.2,15.9,86,11.96,54,10.9,295.0,329.5,297.1
957.1,535,18.2,16.0,87,12.02,53,11.0,295.0,329.7,297.1
956.6,540,18.1,16.0,87,12.06,53,11.0,295.0,329.8,297.1
956.1,544,18.1,16.0,88,12.04,53,11.1,295.0,329.7,297.1
955.6,549,18.1,15.9,87,11.96,53,11.2,295.0,329.5,297.1
955.0,554,18.0,15.8,87,11.91,53,11.3,295.0,329.4,297.1
954.5,558,18.0,15.8,87,11.90,53,11.4,295.0,329.4,297.1
954.0,563,17.9,15.8,87,11.91,52,11.4,295.0,329.4,297.1
953.5,567,17.9,15.8,87,11.91,52,11.5,295.0,329.4,297.1
953.0,572,17.9,15.8,88,11.92,52,11.5,295.0,329.4,297.1
952.6,576,17.8,15.8,88,11.96,52,11.6,295.0,329.5,297.2
952.1,580,17.8,15.8,88,11.94,52,11.6,295.0,329.5,297.2
951.6,584,17.7,15.7,88,11.87,52,11.7,295.0,329.3,297.1
951.2,588,17.7,15.6,87,11.78,52,11.7,295.1,329.0,297.1
950.8,592,17.7,15.5,87,11.71,52,11.7,295.1,328.9,297.2
950.4,596,17.7,15.4,87,11.68,52,11.7,295.1,328.8,297.2
949.9,599,17.7,15.3,86,11.59,52,11.8,295.2,328.6,297.2
949.5,603,17.7,15.2,85,11.52,52,11.8,295.2,328.5,297.2
949.1,607,17.7,15.3,86,11.56,52,11.8,295.2,328.6,297.2
948.7,611,17.6,15.3,87,11.63,52,11.8,295.2,328.8,297.2
948.2,615,17.6,15.5,88,11.74,52,11.8,295.2,329.0,297.2
947.8,619,17.5,15.5,88,11.78,52,11.8,295.1,329.1,297.2
947.3,623,17.4,15.5,88,11.76,52,11.8,295.1,329.1,297.2
946.8,628,17.4,15.5,88,11.75,52,11.8,295.1,329.0,297.2
946.3,632,17.4,15.5,89,11.75,53,11.9,295.1,329.1,297.2
945.8,637,17.3,15.4,89,11.73,53,11.9,295.1,329.0,297.2
945.3,642,17.3,15.4,88,11.68,53,11.9,295.1,328.9,297.2
944.7,647,17.2,15.2,88,11.58,53,12.0,295.1,328.6,297.2
944.1,652,17.2,15.0,87,11.40,53,12.0,295.2,328.1,297.2
943.6,657,17.2,14.8,86,11.30,53,12.0,295.2,327.9,297.2
943.0,662,17.2,14.7,86,11.24,53,12.1,295.2,327.7,297.2
942.5,667,17.1,14.5,85,11.10,53,12.1,295.2,327.3,297.2
941.9,672,17.1,14.3,84,10.97,53,12.2,295.3,327.0,297.2
941.4,677,17.1,14.3,83,10.96,53,12.2,295.3,327.1,297.3
940.9,681,17.1,14.4,84,11.04,52,12.3,295.4,327.3,297.3
940.5,685,17.1,14.5,85,11.10,52,12.3,295.4,327.5,297.3
940.0,689,17.0,14.5,85,11.12,52,12.3,295.4,327.5,297.3
939.6,694,17.0,14.5,85,11.12,52,12.4,295.4,327.5,297.3
939.1,698,17.0,14.5,85,11.09,52,12.4,295.4,327.4,297.3
938.6,702,16.9,14.4,85,11.08,52,12.4,295.4,327.4,297.3
938.1,707,16.9,14.4,85,11.06,53,12.4,295.4,327.4,297.3
937.6,711,16.8,14.3,85,11.00,53,12.4,295.4,327.2,297.3
937.1,716,16.8,14.1,84,10.87,53,12.4,295.4,326.9,297.3
936.6,721,16.8,14.0,83,10.80,53,12.4,295.4,326.7,297.4
936.0,726,16.8,14.0,83,10.76,53,12.4,295.5,326.7,297.4
935.5,731,16.8,13.9,83,10.73,53,12.4,295.5,326.6,297.4
934.9,736,16.7,13.9,83,10.71,54,12.3,295.5,326.6,297.4
934.4,740,16.7,13.8,83,10.70,54,12.3,295.5,326.5,297.4
933.9,745,16.7,13.9,83,10.72,54,12.3,295.5,326.6,297.4
933.4,750,16.6,13.9,84,10.74,55,12.2,295.5,326.7,297.4
932.8,755,16.6,13.9,84,10.75,55,12.2,295.5,326.7,297.4
932.3,760,16.5,13.9,84,10.74,55,12.1,295.5,326.7,297.4
931.7,765,16.5,13.8,84,10.72,56,12.0,295.6,326.6,297.5
931.2,770,16.5,13.8,84,10.68,56,12.0,295.6,326.5,297.5
930.6,776,16.4,13.7,84,10.66,57,11.9,295.6,326.5,297.5
930.0,781,16.4,13.7,84,10.64,57,11.9,295.6,326.5,297.5
929.4,787,16.4,13.6,84,10.59,58,11.8,295.6,326.3,297.5
928.8,792,16.3,13.5,83,10.52,58,11.8,295.7,326.2,297.5
928.2,798,16.3,13.4,83,10.49,59,11.7,295.7,326.1,297.5
927.6,803,16.3,13.4,83,10.48,59,11.7,295.7,326.1,297.6
927.0,808,16.2,13.4,83,10.47,60,11.7,295.7,326.1,297.6
926.4,814,16.2,13.3,83,10.40,60,11.6,295.7,325.9,297.6
925.8,819,16.2,13.2,83,10.35,61,11.6,295.8,325.8,297.6
925.3,824,16.1,13.2,83,10.35,61,11.6,295.8,325.8,297.6
925.0,827,16.1,13.2,83,10.35,62,11.6,295.8,325.8,297.6
924.7,830,16.1,13.2,83,10.35,62,11.6,295.8,325.8,297.6
924.1,835,16.1,13.1,83,10.33,62,11.6,295.8,325.8,297.6
923.5,841,16.0,13.1,83,10.30,63,11.6,295.8,325.7,297.6
922.9,847,16.0,13.0,83,10.26,63,11.5,295.8,325.6,297.7
922.2,852,15.9,12.9,82,10.19,63,11.5,295.8,325.5,297.7
921.6,858,15.9,12.7,81,10.08,64,11.6,295.9,325.2,297.7
921.0,864,15.9,12.5,80,9.93,64,11.6,295.9,324.8,297.7
920.4,869,15.9,12.4,80,9.87,64,11.6,296.0,324.7,297.7
919.8,875,15.8,12.4,80,9.90,64,11.6,296.0,324.8,297.7
919.2,881,15.8,12.5,81,9.92,64,11.6,296.0,324.8,297.7
918.6,886,15.7,12.4,81,9.90,64,11.6,296.0,324.8,297.7
918.0,892,15.7,12.4,81,9.87,64,11.6,296.0,324.7,297.7
917.3,898,15.6,12.3,81,9.86,64,11.6,296.0,324.7,297.8
916.7,903,15.6,12.3,81,9.84,64,11.7,296.0,324.6,297.8
916.1,909,15.6,12.2,80,9.81,64,11.7,296.1,324.6,297.8
915.5,914,15.6,12.2,80,9.81,64,11.7,296.1,324.6,297.8
914.9,920,15.5,12.2,81,9.82,64,11.8,296.1,324.7,297.9
914.4,925,15.5,12.1,80,9.77,64,11.8,296.1,324.6,297.9
913.8,931,15.5,12.0,80,9.69,64,11.8,296.2,324.4,297.9
913.2,936,15.5,11.9,80,9.66,64,11.9,296.2,324.3,297.9
912.6,942,15.4,11.9,80,9.66,64,11.9,296.2,324.3,297.9
912.0,948,15.3,11.9,80,9.64,64,12.0,296.2,324.3,297.9
911.4,953,15.3,11.8,80,9.60,64,12.0,296.2,324.2,297.9
910.8,958,15.2,11.8,80,9.60,64,12.1,296.2,324.2,297.9
910.2,964,15.2,11.9,80,9.63,64,12.2,296.2,324.3,297.9
909.7,969,15.2,12.0,81,9.72,64,12.2,296.2,324.5,297.9
909.2,974,15.1,12.1,82,9.83,64,12.3,296.2,324.8,297.9
908.7,978,15.0,12.2,83,9.89,64,12.3,296.2,325.0,297.9
908.1,983,15.0,12.2,83,9.87,64,12.4,296.2,324.9,298.0
907.6,988,15.0,12.1,83,9.81,64,12.5,296.2,324.8,298.0
907.1,993,14.9,12.0,83,9.75,64,12.5,296.2,324.6,297.9
906.5,998,14.9,11.9,83,9.72,64,12.6,296.2,324.5,298.0
906.0,1003,14.8,11.9,83,9.71,64,12.6,296.2,324.5,298.0
905.5,1008,14.8,11.9,83,9.71,64,12.6,296.2,324.5,298.0
905.0,1013,14.8,11.9,83,9.71,64,12.6,296.2,324.5,298.0
904.5,1017,14.7,11.9,83,9.72,64,12.7,296.2,324.6,298.0
904.0,1022,14.7,11.9,84,9.74,64,12.7,296.2,324.6,298.0
903.5,1026,14.6,11.9,84,9.75,64,12.7,296.2,324.6,298.0
903.0,1031,14.6,11.9,84,9.73,64,12.6,296.2,324.6,298.0
902.5,1036,14.5,11.8,84,9.69,64,12.6,296.2,324.5,298.0
902.0,1041,14.5,11.7,83,9.63,64,12.6,296.2,324.3,298.0
901.5,1045,14.5,11.7,83,9.61,63,12.6,296.3,324.3,298.0
901.0,1050,14.4,11.7,84,9.61,63,12.5,296.3,324.3,298.0
900.4,1055,14.4,11.7,84,9.61,63,12.4,296.3,324.3,298.0
899.9,1060,14.3,11.6,84,9.60,63,12.4,296.3,324.2,298.0
899.4,1065,14.3,11.6,84,9.59,62,12.3,296.3,324.2,298.0
898.9,1070,14.2,11.6,84,9.58,62,12.2,296.3,324.2,298.0
898.4,1075,14.2,11.6,84,9.57,62,12.1,296.3,324.2,298.0
897.9,1080,14.2,11.5,84,9.54,61,12.0,296.3,324.1,298.0
897.4,1084,14.2,11.4,84,9.50,61,11.9,296.3,324.0,298.0
896.9,1089,14.1,11.4,83,9.46,60,11.8,296.4,324.0,298.1
896.4,1093,14.1,11.3,83,9.45,60,11.8,296.4,324.0,298.1
895.9,1098,14.1,11.3,84,9.46,59,11.7,296.4,324.0,298.1
895.5,1102,14.0,11.3,84,9.46,59,11.6,296.4,324.0,298.1
895.0,1107,14.0,11.3,84,9.47,58,11.5,296.4,324.0,298.1
894.5,1112,14.0,11.4,84,9.48,58,11.4,296.4,324.1,298.1
894.0,1116,13.9,11.4,85,9.50,57,11.3,296.4,324.1,298.1
893.5,1121,13.9,11.4,85,9.54,57,11.3,296.4,324.3,298.1
893.0,1126,13.9,11.5,86,9.58,56,11.2,296.4,324.4,298.1
892.5,1130,13.8,11.5,86,9.61,56,11.2,296.4,324.5,298.1
892.0,1135,13.8,11.6,87,9.65,55,11.1,296.4,324.6,298.2
891.5,1140,13.7,11.6,87,9.67,55,11.1,296.4,324.6,298.2
891.0,1144,13.7,11.6,87,9.66,55,11.0,296.4,324.6,298.2
890.5,1149,13.6,11.5,87,9.62,55,11.0,296.5,324.5,298.2
890.0,1154,13.6,11.4,87,9.58,54,11.0,296.5,324.4,298.2
889.5,1159,13.6,11.4,86,9.54,54,11.0,296.5,324.3,298.2
888.9,1164,13.6,11.2,86,9.46,54,10.9,296.5,324.1,298.2
888.3,1170,13.5,11.0,85,9.32,54,10.9,296.5,323.8,298.2
887.7,1175,13.5,10.9,84,9.29,54,10.9,296.6,323.7,298.2
887.1,1181,13.5,11.0,85,9.34,54,10.9,296.6,323.9,298.3
886.5,1187,13.4,11.0,85,9.35,54,10.9,296.6,323.9,298.3
885.9,1193,13.4,11.0,86,9.35,54,10.9,296.6,323.9,298.3
885.3,1199,13.3,11.0,86,9.33,54,10.9,296.6,323.9,298.3
884.7,1205,13.3,11.0,86,9.34,55,10.9,296.6,323.9,298.3
884.1,1210,13.2,11.0,86,9.38,55,10.9,296.6,324.0,298.3
883.5,1216,13.2,11.0,87,9.39,55,10.9,296.6,324.1,298.3
882.9,1221,13.1,11.0,87,9.35,55,10.9,296.7,324.0,298.3
882.4,1227,13.1,10.9,87,9.33,55,10.9,296.6,323.9,298.3
881.8,1232,13.0,10.9,87,9.34,55,10.9,296.7,324.0,298.3
881.3,1237,13.0,10.8,87,9.30,56,10.9,296.7,323.8,298.3
880.7,1242,13.0,10.6,86,9.17,56,10.8,296.7,323.5,298.4
880.2,1248,13.0,10.4,84,9.02,56,10.8,296.7,323.1,298.4
879.6,1253,13.0,10.2,84,8.94,56,10.8,296.8,323.0,298.4
879.0,1259,12.9,10.2,83,8.91,57,10.8,296.8,322.9,298.4
878.4,1265,12.9,10.2,84,8.93,57,10.8,296.8,323.0,298.4
877.8,1270,12.8,10.3,84,8.97,57,10.8,296.8,323.1,298.4
877.2,1276,12.8,10.3,85,8.98,58,10.7,296.8,323.1,298.4
876.5,1282,12.7,10.3,85,9.00,58,10.7,296.8,323.2,298.4
875.9,1288,12.6,10.3,86,9.02,58,10.7,296.8,323.2,298.4
875.3,1294,12.6,10.3,86,9.00,59,10.7,296.8,323.2,298.4
874.7,1300,12.5,10.2,86,8.97,59,10.7,296.8,323.1,298.4
874.2,1305,12.5,10.2,86,8.98,59,10.7,296.8,323.1,298.5
873.7,1310,12.5,10.2,86,9.01,60,10.7,296.9,323.2,298.5
873.1,1315,12.4,10.2,86,8.99,60,10.7,296.9,323.2,298.5
872.7,1320,12.4,10.1,85,8.90,60,10.7,296.9,323.0,298.5
872.2,1324,12.5,9.9,84,8.80,61,10.7,297.0,322.8,298.6
871.7,1329,12.5,9.7,83,8.72,61,10.7,297.1,322.7,298.6
871.2,1334,12.5,9.6,82,8.65,62,10.8,297.2,322.6,298.7
870.6,1339,12.5,9.5,82,8.62,62,10.8,297.2,322.5,298.8
870.0,1345,12.5,9.6,82,8.63,63,10.8,297.3,322.6,298.8
869.4,1351,12.5,9.6,82,8.66,63,10.9,297.3,322.7,298.9
868.7,1358,12.5,9.6,83,8.66,63,10.9,297.3,322.8,298.9
868.0,1365,12.4,9.5,83,8.64,64,10.9,297.3,322.7,298.9
867.2,1372,12.3,9.5,83,8.62,64,11.0,297.3,322.6,298.9
866.5,1380,12.3,9.4,83,8.58,65,11.0,297.4,322.6,298.9
865.7,1387,12.3,9.3,82,8.52,65,11.1,297.4,322.4,298.9
865.0,1394,12.2,9.2,82,8.46,66,11.1,297.5,322.3,299.0
864.3,1401,12.2,9.1,81,8.41,66,11.2,297.5,322.2,299.0
863.6,1407,12.2,8.9,81,8.33,67,11.2,297.5,322.0,299.0
863.0,1413,12.1,8.7,80,8.22,67,11.2,297.5,321.7,299.0
862.5,1418,12.1,8.6,79,8.17,68,11.3,297.6,321.7,299.1
861.9,1423,12.1,8.7,80,8.22,68,11.3,297.6,321.8,299.1
861.4,1429,12.1,8.9,81,8.33,68,11.3,297.6,322.1,299.1
860.9,1434,12.0,9.1,82,8.44,69,11.3,297.6,322.5,299.1
860.4,1439,12.0,9.2,83,8.53,69,11.3,297.6,322.7,299.2
859.9,1444,11.9,9.3,84,8.57,69,11.3,297.6,322.8,299.2
859.3,1449,11.9,9.3,84,8.57,69,11.3,297.6,322.8,299.2
858.8,1454,11.8,9.3,84,8.57,70,11.2,297.6,322.8,299.2
858.2,1460,11.8,9.2,84,8.56,70,11.2,297.6,322.8,299.2
857.6,1466,11.7,9.2,85,8.57,70,11.1,297.6,322.9,299.2
857.1,1471,11.7,9.2,85,8.58,70,11.0,297.6,322.9,299.2
856.5,1477,11.6,9.2,85,8.55,70,11.0,297.7,322.8,299.2
855.9,1482,11.6,9.1,84,8.49,70,10.9,297.7,322.7,299.2
855.3,1488,11.6,8.9,84,8.41,70,10.8,297.8,322.5,299.3
854.8,1493,11.6,8.8,83,8.36,69,10.7,297.8,322.4,299.3
854.3,1499,11.6,8.8,83,8.34,69,10.6,297.8,322.4,299.3
853.7,1504,11.6,8.8,83,8.34,69,10.5,297.9,322.5,299.4
853.2,1509,11.6,8.8,83,8.36,69,10.4,297.9,322.6,299.4
852.8,1513,11.5,8.9,84,8.41,69,10.3,297.9,322.7,299.4
852.3,1518,11.5,8.9,84,8.42,68,10.2,297.9,322.8,299.5
851.8,1523,11.5,8.8,83,8.35,68,10.2,298.0,322.6,299.5
851.3,1527,11.5,8.6,82,8.27,68,10.1,298.0,322.4,299.5
850.9,1532,11.5,8.5,82,8.22,67,10.0,298.1,322.3,299.5
850.4,1536,11.5,8.4,82,8.18,67,9.9,298.1,322.2,299.6
850.0,1540,11.5,8.4,81,8.14,67,9.9,298.1,322.2,299.6
849.9,1541,11.5,8.3,81,8.13,66,9.8,298.1,322.1,299.6
849.4,1546,11.5,8.2,80,8.05,66,9.8,298.2,322.0,299.6
849.0,1551,11.5,8.0,79,7.94,66,9.7,298.2,321.7,299.7
848.4,1556,11.5,8.0,79,7.95,65,9.7,298.3,321.8,299.7
847.9,1561,11.5,8.2,80,8.06,65,9.6,298.3,322.2,299.8
847.4,1566,11.4,8.3,81,8.16,65,9.6,298.3,322.5,299.8
846.9,1571,11.3,8.4,82,8.21,64,9.6,298.3,322.6,299.8
846.4,1576,11.3,8.5,83,8.24,64,9.6,298.3,322.7,299.8
845.9,1581,11.2,8.4,83,8.22,64,9.5,298.3,322.6,299.8
845.4,1586,11.2,8.4,83,8.19,63,9.5,298.3,322.5,299.8
844.9,1591,11.2,8.3,83,8.17,63,9.5,298.3,322.5,299.8
844.5,1595,11.1,8.3,83,8.17,63,9.5,298.3,322.5,299.8
844.0,1600,11.1,8.3,83,8.18,63,9.5,298.4,322.5,299.8
843.6,1604,11.1,8.3,83,8.18,63,9.5,298.4,322.5,299.8
843.1,1609,11.0,8.3,83,8.18,63,9.5,298.3,322.5,299.8
842.6,1613,11.0,8.3,83,8.16,62,9.5,298.4,322.5,299.8
842.2,1618,10.9,8.2,83,8.14,62,9.5,298.3,322.4,299.8
841.7,1623,10.9,8.2,83,8.12,62,9.5,298.4,322.4,299.8
841.2,1628,10.8,8.2,83,8.11,62,9.5,298.4,322.4,299.8
840.7,1633,10.8,8.1,83,8.08,62,9.5,298.4,322.3,299.9
840.2,1638,10.8,7.9,82,7.96,62,9.5,298.5,322.0,299.9
839.6,1643,10.9,7.5,80,7.76,62,9.5,298.5,321.5,299.9
839.1,1648,10.9,7.1,77,7.56,62,9.5,298.6,321.0,300.0
838.6,1654,10.9,6.8,76,7.42,62,9.5,298.7,320.7,300.0
838.1,1659,10.9,6.7,75,7.37,62,9.5,298.7,320.6,300.1
837.5,1664,10.9,6.7,75,7.35,62,9.5,298.8,320.6,300.1
837.0,1669,10.9,6.5,75,7.29,62,9.5,298.8,320.5,300.1
836.5,1674,10.9,6.5,74,7.25,62,9.5,298.9,320.4,300.2
836.1,1679,10.8,6.3,74,7.20,63,9.5,298.9,320.3,300.2
835.6,1683,10.8,6.2,73,7.16,63,9.5,298.9,320.2,300.2
835.1,1688,10.8,6.2,73,7.14,63,9.5,298.9,320.2,300.2
834.6,1693,10.8,6.2,73,7.14,63,9.5,299.0,320.2,300.3
834.1,1698,10.7,6.2,74,7.16,63,9.5,299.0,320.3,300.3
833.7,1703,10.7,6.2,74,7.17,64,9.5,299.0,320.3,300.3
833.1,1708,10.7,6.2,74,7.16,64,9.5,299.0,320.3,300.3
832.6,1713,10.6,6.2,74,7.14,64,9.5,299.0,320.3,300.3
832.1,1718,10.6,6.1,74,7.12,65,9.5,299.0,320.3,300.3
831.6,1723,10.6,6.1,74,7.12,65,9.5,299.1,320.3,300.4
831.1,1728,10.5,6.1,74,7.12,65,9.5,299.1,320.3,300.4
830.6,1734,10.5,6.1,74,7.11,66,9.5,299.1,320.3,300.4
830.1,1739,10.5,6.1,74,7.13,66,9.5,299.1,320.4,300.4
829.5,1744,10.4,6.2,75,7.19,67,9.6,299.1,320.6,300.4
829.0,1750,10.4,6.5,77,7.32,67,9.6,299.1,320.9,300.4
828.5,1755,10.3,6.7,78,7.45,67,9.6,299.1,321.3,300.4
827.9,1760,10.3,6.9,80,7.56,68,9.7,299.1,321.6,300.5
827.4,1766,10.2,7.0,80,7.61,68,9.7,299.1,321.7,300.5
826.9,1771,10.2,6.9,80,7.58,69,9.7,299.1,321.7,300.5
826.4,1776,10.1,6.9,80,7.56,69,9.8,299.1,321.6,300.5
825.9,1781,10.1,6.9,80,7.57,69,9.8,299.2,321.7,300.5
825.5,1785,10.1,6.9,81,7.58,70,9.9,299.2,321.7,300.5
825.0,1790,10.1,6.9,81,7.61,70,9.9,299.2,321.8,300.6
824.6,1794,10.0,7.0,81,7.65,70,9.9,299.2,322.0,300.6
824.1,1798,10.0,7.1,82,7.68,70,10.0,299.3,322.1,300.6
823.7,1803,10.0,7.1,82,7.68,71,10.0,299.3,322.1,300.6
823.2,1808,9.9,7.0,82,7.66,71,10.1,299.3,322.1,300.7
822.7,1813,9.9,7.0,82,7.64,71,10.1,299.3,322.0,300.7
822.2,1818,9.9,6.9,82,7.61,71,10.1,299.3,321.9,300.7
821.8,1823,9.9,6.8,81,7.57,71,10.2,299.3,321.8,300.7
821.3,1828,9.8,6.8,81,7.55,71,10.2,299.3,321.8,300.7
820.8,1833,9.8,6.7,81,7.50,71,10.2,299.3,321.7,300.7
820.3,1838,9.7,6.5,80,7.43,71,10.2,299.4,321.5,300.7
819.8,1843,9.7,6.4,80,7.36,70,10.2,299.4,321.3,300.7
819.3,1848,9.7,6.3,79,7.31,70,10.2,299.4,321.2,300.7
818.8,1852,9.7,6.1,78,7.24,70,10.2,299.4,321.0,300.8
818.4,1857,9.7,6.0,78,7.18,70,10.2,299.5,320.9,300.8
817.9,1861,9.7,5.9,78,7.16,70,10.2,299.5,320.9,300.8
817.5,1866,9.6,5.9,77,7.13,70,10.2,299.5,320.8,300.8
817.1,1870,9.6,5.8,77,7.10,69,10.2,299.6,320.8,300.9
816.7,1874,9.7,5.8,77,7.09,69,10.2,299.7,320.8,300.9
816.2,1879,9.7,5.9,77,7.14,69,10.2,299.7,321.0,301.0
815.8,1883,9.6,6.0,78,7.20,69,10.2,299.7,321.2,301.0
815.4,1887,9.6,6.0,78,7.23,69,10.1,299.7,321.3,301.0
814.9,1892,9.6,6.0,79,7.23,69,10.1,299.7,321.3,301.1
