PRES,HGHT,TEMP,DWPT,RELH,MIXR,DRCT,SPED,THTA,THTE,THTV
1012.2,31,19.4,17.6,89,12.57,348,4.5,291.5,327.2,293.7
1011.8,34,19.5,17.8,90,12.79,1,4.3,291.7,328.0,293.9
1011.1,40,19.5,17.8,90,12.76,2,4.6,291.8,328.0,294.0
1010.3,47,19.5,17.7,89,12.70,1,5.0,291.8,327.9,294.0
1009.7,52,19.5,17.6,89,12.62,1,5.4,291.8,327.7,294.0
1009.2,56,19.4,17.5,89,12.57,1,5.7,291.8,327.5,294.0
1008.7,61,19.4,17.5,89,12.55,1,6.1,291.8,327.5,294.0
1008.1,66,19.4,17.4,89,12.52,2,6.4,291.8,327.4,294.0
1007.5,71,19.3,17.3,88,12.43,2,6.8,291.8,327.2,294.0
1006.9,76,19.4,17.2,87,12.33,2,7.1,291.9,327.0,294.1
1006.4,80,19.5,17.2,86,12.35,3,7.5,292.1,327.3,294.3
1005.8,85,19.5,17.1,86,12.32,3,7.8,292.2,327.2,294.3
1005.2,90,19.4,16.9,86,12.16,3,8.1,292.1,326.7,294.2
1004.6,95,19.5,16.7,84,12.00,4,8.4,292.3,326.5,294.4
1004.1,100,19.9,16.5,81,11.81,5,8.7,292.7,326.4,294.7
1003.5,105,20.2,16.2,78,11.64,5,8.9,293.1,326.4,295.1
1002.9,110,20.4,16.1,76,11.58,6,9.2,293.3,326.5,295.4
1002.4,115,20.4,16.2,77,11.60,6,9.5,293.4,326.6,295.4
1001.8,120,20.4,16.2,77,11.65,7,9.7,293.4,326.8,295.5
1001.2,125,20.4,16.2,77,11.68,8,9.9,293.4,326.9,295.5
1000.6,130,20.4,16.2,77,11.68,9,10.2,293.5,327.0,295.5
1000.0,135,20.4,16.2,77,11.66,9,10.2,293.5,327.0,295.6
999.3,141,20.3,16.2,77,11.63,10,10.6,293.5,326.8,295.5
998.7,146,20.2,16.1,77,11.62,11,10.8,293.5,326.8,295.5
998.1,152,20.1,16.1,77,11.59,11,11.0,293.4,326.7,295.5
997.5,157,20.1,16.0,78,11.56,12,11.2,293.4,326.6,295.5
996.9,162,20.1,16.0,77,11.51,13,11.4,293.5,326.5,295.5
996.4,167,20.1,15.9,77,11.48,13,11.6,293.5,326.5,295.6
995.8,172,20.0,15.9,77,11.45,14,11.8,293.5,326.3,295.5
995.3,176,20.0,15.8,77,11.41,14,12.0,293.5,326.2,295.5
994.7,181,20.0,15.8,76,11.40,15,12.2,293.6,326.4,295.6
994.2,186,20.0,15.7,76,11.34,15,12.3,293.6,326.2,295.6
993.6,191,20.0,15.6,76,11.28,16,12.5,293.7,326.1,295.7
993.1,195,20.0,15.5,75,11.18,16,12.7,293.7,325.8,295.7
992.5,200,20.0,15.2,74,11.04,17,12.8,293.8,325.5,295.7
992.0,205,20.1,15.0,73,10.88,17,12.9,293.9,325.2,295.8
991.5,209,20.2,15.0,72,10.84,17,13.1,294.1,325.3,296.0
990.9,214,20.2,15.0,72,10.86,18,13.2,294.1,325.4,296.0
990.4,219,20.2,15.0,72,10.90,18,13.3,294.1,325.5,296.0
989.9,223,20.2,15.1,73,10.97,18,13.3,294.2,325.8,296.1
989.3,228,20.2,15.2,73,11.06,18,13.4,294.2,326.1,296.2
988.8,233,20.2,15.2,73,11.08,18,13.5,294.2,326.2,296.2
988.3,237,20.1,15.2,73,11.06,19,13.5,294.2,326.1,296.2
987.7,242,20.1,15.1,73,11.02,19,13.5,294.2,326.0,296.2
987.2,247,20.0,15.1,74,11.02,19,13.6,294.2,326.0,296.2
986.7,251,20.0,15.2,74,11.06,19,13.6,294.2,326.1,296.2
986.1,256,19.9,15.2,74,11.10,19,13.6,294.2,326.2,296.2
985.6,261,19.9,15.3,75,11.14,19,13.6,294.2,326.3,296.2
985.1,265,19.8,15.3,75,11.16,20,13.6,294.2,326.4,296.2
984.5,270,19.8,15.3,75,11.15,20,13.6,294.3,326.4,296.2
984.0,275,19.8,15.2,75,11.13,20,13.6,294.3,326.3,296.2
983.5,279,19.7,15.2,75,11.11,20,13.5,294.2,326.2,296.2
983.0,284,19.7,15.2,75,11.10,20,13.5,294.2,326.2,296.2
982.5,288,19.6,15.2,75,11.09,20,13.5,294.2,326.2,296.2
981.9,293,19.6,15.1,75,11.04,20,13.5,294.3,326.1,296.2
981.4,297,19.5,15.0,75,10.99,21,13.5,294.3,325.9,296.2
980.9,302,19.5,14.9,75,10.93,21,13.5,294.2,325.7,296.2
980.4,306,19.5,14.8,75,10.87,21,13.5,294.3,325.6,296.2
979.9,311,19.4,14.7,74,10.82,21,13.5,294.3,325.5,296.2
979.3,316,19.4,14.7,74,10.79,21,13.5,294.3,325.4,296.2
978.8,320,19.4,14.7,74,10.79,21,13.5,294.3,325.4,296.2
978.3,325,19.3,14.7,74,10.80,21,13.5,294.3,325.4,296.2
977.7,330,19.3,14.7,75,10.82,21,13.5,294.3,325.5,296.2
977.2,334,19.2,14.7,75,10.83,21,13.6,294.3,325.5,296.2
976.7,339,19.2,14.7,75,10.84,21,13.6,294.3,325.5,296.2
976.2,344,19.1,14.7,75,10.81,22,13.6,294.3,325.5,296.2
975.6,348,19.1,14.6,75,10.78,22,13.6,294.3,325.4,296.2
975.1,353,19.1,14.6,75,10.78,22,13.7,294.3,325.4,296.2
974.6,358,19.0,14.6,76,10.79,22,13.7,294.3,325.4,296.2
974.0,362,19.0,14.6,76,10.77,22,13.7,294.3,325.4,296.2
973.5,367,18.9,14.5,75,10.72,22,13.8,294.3,325.2,296.2
972.9,372,18.9,14.4,75,10.67,22,13.8,294.4,325.1,296.2
972.4,377,18.9,14.4,75,10.64,22,13.8,294.4,325.0,296.2
971.8,382,18.8,14.3,75,10.61,22,13.8,294.4,325.0,296.2
971.3,387,18.8,14.3,75,10.59,22,13.9,294.4,324.9,296.2
970.8,391,18.7,14.2,75,10.55,22,13.9,294.4,324.8,296.2
970.2,396,18.7,14.2,75,10.52,22,13.9,294.4,324.8,296.3
969.7,401,18.7,14.1,75,10.51,22,13.9,294.4,324.7,296.3
969.2,405,18.7,14.1,75,10.48,22,13.9,294.4,324.7,296.3
968.7,410,18.6,14.1,75,10.47,22,14.0,294.4,324.7,296.3
968.2,414,18.6,14.1,75,10.47,22,14.0,294.4,324.7,296.3
967.7,419,18.5,14.1,75,10.47,22,14.0,294.4,324.7,296.3
967.1,423,18.5,14.0,75,10.45,22,14.0,294.4,324.6,296.3
966.6,428,18.4,14.0,75,10.42,22,14.0,294.4,324.5,296.3
966.1,433,18.4,13.9,75,10.38,22,14.0,294.4,324.4,296.3
965.6,437,18.4,13.8,75,10.32,22,14.0,294.5,324.3,296.3
965.1,442,18.3,13.7,74,10.28,22,14.0,294.5,324.1,296.3
964.6,446,18.3,13.7,74,10.23,22,14.1,294.5,324.0,296.3
964.1,451,18.3,13.6,74,10.18,22,14.1,294.5,323.9,296.3
963.6,455,18.3,13.4,73,10.10,22,14.1,294.5,323.7,296.3
963.1,460,18.2,13.4,73,10.06,22,14.1,294.5,323.6,296.3
962.5,464,18.2,13.3,73,10.04,22,14.1,294.5,323.6,296.3
962.0,469,18.2,13.3,73,10.04,22,14.1,294.6,323.6,296.3
961.5,474,18.1,13.3,73,10.04,22,14.2,294.6,323.6,296.3
960.9,479,18.1,13.3,74,10.05,22,14.2,294.6,323.6,296.3
960.4,484,18.0,13.3,74,10.06,22,14.2,294.6,323.7,296.4
959.8,489,18.0,13.4,74,10.08,22,14.3,294.6,323.7,296.4
959.3,493,17.9,13.4,75,10.13,22,14.3,294.6,323.8,296.4
958.7,498,17.9,13.5,75,10.17,22,14.3,294.6,324.0,296.4
958.2,503,17.8,13.4,75,10.16,22,14.4,294.6,323.9,296.4
957.7,508,17.8,13.4,76,10.16,22,14.4,294.6,323.9,296.4
957.2,512,17.8,13.5,76,10.20,22,14.4,294.6,324.1,296.4
956.6,517,17.7,13.6,77,10.26,22,14.5,294.6,324.2,296.4
956.1,522,17.7,13.7,77,10.35,22,14.5,294.6,324.5,296.4
955.6,527,17.7,13.8,78,10.40,21,14.6,294.6,324.6,296.4
955.1,531,17.6,13.7,78,10.39,21,14.6,294.6,324.6,296.4
954.5,536,17.6,13.7,78,10.38,21,14.6,294.6,324.6,296.4
954.0,541,17.5,13.7,78,10.38,21,14.7,294.6,324.6,296.4
953.4,546,17.5,13.7,78,10.39,21,14.7,294.6,324.6,296.5
952.9,551,17.4,13.7,79,10.39,21,14.7,294.6,324.6,296.5
952.3,556,17.4,13.7,79,10.40,21,14.8,294.6,324.6,296.5
951.7,561,17.3,13.7,79,10.39,21,14.8,294.6,324.6,296.5
951.1,566,17.3,13.6,79,10.36,21,14.8,294.6,324.6,296.5
950.5,572,17.3,13.5,79,10.31,21,14.9,294.6,324.4,296.5
949.9,578,17.2,13.4,78,10.22,21,14.9,294.7,324.2,296.5
949.3,583,17.2,13.3,78,10.18,21,14.9,294.7,324.1,296.5
948.6,589,17.1,13.3,78,10.17,21,14.9,294.7,324.1,296.5
948.0,595,17.1,13.2,78,10.12,21,14.9,294.7,324.0,296.5
947.3,601,17.1,13.1,77,10.02,21,14.9,294.7,323.7,296.5
946.7,606,17.0,12.9,77,9.93,21,14.9,294.7,323.5,296.5
946.1,612,17.0,12.9,77,9.90,21,14.9,294.8,323.4,296.5
945.4,618,16.9,12.9,77,9.91,21,14.9,294.8,323.5,296.5
944.8,623,16.9,12.9,77,9.92,21,14.9,294.8,323.5,296.5
944.2,629,16.8,12.8,77,9.91,21,14.9,294.8,323.5,296.5
943.7,634,16.8,12.8,77,9.88,21,14.9,294.8,323.4,296.5
943.1,639,16.7,12.8,77,9.87,21,14.9,294.8,323.4,296.5
942.6,643,16.7,12.7,77,9.86,21,14.9,294.8,323.3,296.5
942.1,648,16.7,12.7,77,9.82,21,14.9,294.8,323.2,296.5
941.6,652,16.6,12.6,77,9.77,21,14.8,294.8,323.1,296.5
941.1,657,16.6,12.6,77,9.75,20,14.8,294.8,323.1,296.6
940.6,662,16.6,12.5,77,9.75,20,14.8,294.9,323.1,296.6
940.1,666,16.6,12.5,77,9.75,20,14.8,294.9,323.1,296.6
939.5,671,16.6,12.5,77,9.75,20,14.8,294.9,323.1,296.6
939.0,676,16.5,12.5,77,9.74,20,14.8,294.9,323.1,296.6
938.4,681,16.5,12.5,77,9.73,20,14.8,294.9,323.1,296.6
937.9,686,16.4,12.5,77,9.73,20,14.8,294.9,323.1,296.6
937.4,691,16.4,12.4,78,9.72,20,14.7,294.9,323.1,296.6
936.9,696,16.3,12.4,78,9.71,19,14.7,294.9,323.0,296.6
936.4,700,16.3,12.4,78,9.73,19,14.7,294.9,323.1,296.6
935.9,705,16.2,12.4,78,9.73,19,14.7,294.9,323.1,296.6
935.4,709,16.2,12.4,78,9.72,19,14.7,294.9,323.1,296.6
934.9,713,16.2,12.4,78,9.70,19,14.8,294.9,323.0,296.6
934.5,717,16.1,12.3,78,9.68,19,14.8,294.9,323.0,296.7
934.0,721,16.1,12.3,78,9.67,19,14.8,294.9,323.0,296.7
933.6,725,16.1,12.3,78,9.68,19,14.8,295.0,323.0,296.7
933.2,729,16.0,12.3,79,9.69,19,14.8,295.0,323.1,296.7
932.7,733,16.0,12.4,79,9.71,19,14.8,295.0,323.1,296.7
932.3,737,16.0,12.4,79,9.73,19,14.9,295.0,323.2,296.7
931.9,741,15.9,12.4,80,9.75,19,14.9,295.0,323.2,296.7
931.4,745,15.9,12.4,80,9.77,19,14.9,295.0,323.3,296.7
931.0,749,15.9,12.4,80,9.77,19,14.9,295.0,323.3,296.7
930.5,753,15.8,12.4,80,9.76,19,14.9,295.0,323.2,296.7
930.0,758,15.8,12.3,80,9.73,20,14.9,295.0,323.2,296.7
929.6,762,15.8,12.3,80,9.68,20,15.0,295.0,323.1,296.7
929.1,767,15.8,12.2,79,9.63,20,15.0,295.0,323.0,296.7
928.5,772,15.7,12.1,79,9.60,20,15.0,295.1,322.9,296.8
928.0,776,15.7,12.1,79,9.59,20,15.0,295.1,322.9,296.8
927.5,781,15.7,12.1,79,9.60,21,15.0,295.1,322.9,296.8
926.9,786,15.6,12.1,79,9.59,21,15.0,295.1,322.9,296.8
926.3,792,15.6,12.1,79,9.59,21,15.0,295.1,323.0,296.9
925.7,797,15.6,12.0,79,9.58,21,15.0,295.2,323.0,296.9
925.1,803,15.5,12.0,80,9.57,21,15.0,295.2,322.9,296.9
925.0,804,15.5,12.0,80,9.58,22,15.0,295.2,322.9,296.9
924.5,808,15.5,12.0,80,9.57,22,15.0,295.2,322.9,296.9
923.9,814,15.4,12.0,80,9.57,22,15.0,295.2,322.9,296.9
923.3,820,15.4,12.0,80,9.58,22,14.9,295.2,323.0,296.9
922.7,825,15.3,12.0,81,9.59,23,14.9,295.2,323.0,296.9
922.1,831,15.2,12.0,81,9.58,23,14.9,295.2,322.9,296.9
921.5,836,15.2,11.9,81,9.56,23,14.8,295.2,322.9,296.9
920.9,842,15.2,11.9,81,9.55,24,14.8,295.2,322.9,296.9
920.4,847,15.2,11.9,81,9.55,24,14.7,295.2,323.0,296.9
919.8,852,15.2,11.9,81,9.59,24,14.7,295.3,323.1,297.0
919.3,856,15.2,12.0,81,9.64,25,14.6,295.3,323.3,297.0
918.8,861,15.1,12.1,82,9.71,25,14.6,295.4,323.5,297.1
918.3,866,15.1,12.2,83,9.77,25,14.5,295.4,323.7,297.1
917.8,870,15.1,12.2,83,9.78,26,14.5,295.4,323.8,297.1
917.3,875,15.1,12.1,83,9.73,26,14.4,295.4,323.7,297.1
916.8,879,15.1,11.9,81,9.58,26,14.4,295.5,323.3,297.2
916.4,884,15.1,11.7,80,9.47,26,14.4,295.5,323.1,297.2
915.9,888,15.1,11.6,80,9.43,27,14.3,295.6,323.0,297.2
915.4,893,15.0,11.6,80,9.40,27,14.3,295.6,322.9,297.2
914.9,898,15.0,11.4,79,9.31,27,14.3,295.6,322.7,297.2
914.3,902,15.0,11.3,78,9.25,27,14.3,295.7,322.6,297.3
913.8,907,15.0,11.3,78,9.22,27,14.3,295.7,322.5,297.3
913.3,912,15.0,11.2,78,9.19,27,14.3,295.7,322.4,297.3
912.7,918,14.9,11.1,78,9.15,27,14.3,295.7,322.3,297.3
912.1,923,14.9,11.1,78,9.14,27,14.3,295.7,322.3,297.3
911.6,928,14.8,11.1,78,9.12,27,14.3,295.7,322.3,297.3
911.0,933,14.8,11.0,78,9.10,27,14.4,295.7,322.2,297.3
910.4,939,14.7,11.0,78,9.08,27,14.4,295.7,322.2,297.3
909.9,944,14.7,11.0,78,9.09,27,14.4,295.7,322.2,297.3
909.4,949,14.6,11.0,79,9.11,27,14.5,295.7,322.2,297.3
908.8,954,14.6,11.1,79,9.15,27,14.6,295.7,322.4,297.3
908.3,958,14.5,11.1,80,9.19,26,14.6,295.7,322.5,297.3
907.8,963,14.5,11.1,80,9.20,26,14.7,295.7,322.5,297.3
907.3,968,14.4,11.1,80,9.19,26,14.8,295.7,322.5,297.3
906.9,972,14.4,11.1,80,9.18,26,14.9,295.7,322.4,297.3
906.4,977,14.4,11.1,80,9.17,25,14.9,295.7,322.4,297.4
905.9,981,14.4,11.1,81,9.18,25,15.0,295.7,322.5,297.4
905.3,986,14.3,11.1,81,9.18,25,15.1,295.8,322.5,297.4
904.8,991,14.3,11.0,81,9.17,24,15.2,295.8,322.5,297.4
904.2,997,14.2,11.0,81,9.16,24,15.2,295.8,322.4,297.4
903.6,1002,14.2,11.0,81,9.14,24,15.3,295.8,322.4,297.4
903.0,1008,14.1,10.9,81,9.12,23,15.4,295.8,322.3,297.4
902.5,1013,14.1,10.9,81,9.11,23,15.4,295.7,322.3,297.4
901.9,1018,14.0,10.9,82,9.11,23,15.5,295.7,322.3,297.4
901.3,1024,14.0,10.9,82,9.12,23,15.5,295.8,322.3,297.4
900.8,1029,13.9,10.9,82,9.12,22,15.6,295.7,322.3,297.4
900.3,1034,13.9,10.9,82,9.13,22,15.6,295.8,322.4,297.4
899.8,1038,13.8,10.9,83,9.16,22,15.6,295.7,322.4,297.4
899.2,1043,13.8,10.9,83,9.16,22,15.7,295.8,322.4,297.4
898.7,1048,13.7,10.9,83,9.16,22,15.7,295.8,322.4,297.4
898.2,1053,13.7,10.9,83,9.16,22,15.7,295.8,322.4,297.4
897.6,1058,13.6,10.9,84,9.16,22,15.7,295.8,322.5,297.4
897.1,1064,13.6,10.9,84,9.16,22,15.7,295.8,322.5,297.4
896.5,1069,13.6,10.8,84,9.14,22,15.6,295.8,322.4,297.4
895.9,1074,13.5,10.8,83,9.09,22,15.6,295.8,322.3,297.4
895.4,1080,13.5,10.6,83,9.02,22,15.6,295.8,322.1,297.5
894.8,1086,13.5,10.5,82,8.95,22,15.6,295.9,322.0,297.5
894.1,1091,13.5,10.4,82,8.91,23,15.5,296.0,322.0,297.6
893.5,1097,13.5,10.4,82,8.92,23,15.5,296.0,322.1,297.6
892.8,1104,13.5,10.5,82,8.95,23,15.5,296.1,322.2,297.7
892.2,1110,13.4,10.5,82,8.97,23,15.4,296.1,322.2,297.7
891.5,1116,13.4,10.5,83,8.96,24,15.4,296.1,322.2,297.7
890.9,1122,13.3,10.4,83,8.95,24,15.3,296.1,322.2,297.7
890.2,1129,13.3,10.4,82,8.93,24,15.3,296.1,322.2,297.7
889.6,1135,13.3,10.4,82,8.91,25,15.2,296.2,322.2,297.8
888.9,1141,13.3,10.4,83,8.92,25,15.2,296.2,322.3,297.8
888.3,1147,13.2,10.4,83,8.93,25,15.2,296.2,322.3,297.8
887.6,1153,13.2,10.4,83,8.94,25,15.1,296.3,322.4,297.9
887.0,1159,13.1,10.3,83,8.93,26,15.1,296.3,322.3,297.9
886.3,1166,13.1,10.3,83,8.91,26,15.0,296.3,322.3,297.9
885.7,1172,13.0,10.2,83,8.86,26,15.0,296.3,322.2,297.9
885.0,1178,13.0,10.2,83,8.83,26,14.9,296.3,322.1,297.9
884.4,1183,12.9,10.1,83,8.83,26,14.8,296.3,322.1,297.9
883.9,1189,12.9,10.1,83,8.82,26,14.8,296.3,322.1,297.9
883.3,1194,12.9,10.1,83,8.79,26,14.7,296.3,322.0,297.9
882.7,1200,12.8,10.0,83,8.79,26,14.7,296.3,322.0,297.9
882.2,1205,12.8,10.0,83,8.78,26,14.6,296.4,322.0,297.9
881.6,1210,12.8,10.0,83,8.75,26,14.6,296.4,322.0,298.0
881.1,1215,12.8,9.9,82,8.71,26,14.5,296.5,321.9,298.0
880.5,1221,12.8,9.8,82,8.68,26,14.5,296.5,322.0,298.1
879.9,1226,12.8,9.8,82,8.68,26,14.4,296.6,322.0,298.1
879.3,1232,12.8,9.8,82,8.69,26,14.4,296.6,322.1,298.2
878.8,1237,12.7,9.9,83,8.72,26,14.3,296.6,322.2,298.2
878.2,1243,12.7,10.0,83,8.80,26,14.3,296.7,322.4,298.2
877.6,1249,12.6,10.1,85,8.89,26,14.3,296.7,322.7,298.2
877.0,1254,12.6,10.3,86,9.00,26,14.2,296.6,322.9,298.2
876.5,1260,12.5,10.3,87,9.04,25,14.2,296.6,323.1,298.2
875.9,1265,12.5,10.3,87,9.04,25,14.1,296.6,323.1,298.3
875.4,1270,12.4,10.4,87,9.07,25,14.1,296.6,323.2,298.3
874.9,1275,12.4,10.4,88,9.10,25,14.1,296.7,323.3,298.3
874.4,1279,12.4,10.5,88,9.16,25,14.0,296.7,323.5,298.3
873.9,1284,12.4,10.5,89,9.19,24,14.0,296.7,323.6,298.4
873.4,1289,12.3,10.5,88,9.16,24,14.0,296.7,323.5,298.4
872.9,1294,12.3,10.4,88,9.13,24,14.0,296.8,323.5,298.4
872.4,1298,12.3,10.4,88,9.12,24,14.0,296.8,323.4,298.4
871.9,1303,12.2,10.4,89,9.13,24,13.9,296.8,323.5,298.4
871.4,1309,12.2,10.4,89,9.15,24,13.9,296.8,323.5,298.4
870.8,1314,12.2,10.5,89,9.17,23,13.9,296.8,323.6,298.4
870.3,1319,12.1,10.5,90,9.18,23,13.9,296.8,323.7,298.5
869.8,1324,12.1,10.4,89,9.13,23,13.9,296.8,323.5,298.5
869.2,1329,12.1,10.3,89,9.07,23,13.9,296.9,323.4,298.5
868.7,1334,12.0,10.2,89,9.04,22,13.9,296.9,323.4,298.5
868.2,1339,12.0,10.2,89,9.05,22,13.9,296.9,323.4,298.5
867.7,1344,12.0,10.2,89,9.07,22,14.0,296.9,323.5,298.5
867.2,1349,11.9,10.3,89,9.08,21,14.0,296.9,323.5,298.5
866.7,1354,11.9,10.2,89,9.05,21,14.0,296.9,323.5,298.6
866.2,1359,11.9,10.1,89,8.99,21,14.1,297.0,323.3,298.6
865.6,1364,11.8,9.9,88,8.90,21,14.1,297.0,323.1,298.6
865.1,1370,11.8,9.7,87,8.78,20,14.2,297.0,322.8,298.6
864.5,1375,11.8,9.5,86,8.68,20,14.3,297.1,322.6,298.6
863.8,1381,11.8,9.5,86,8.66,20,14.3,297.2,322.6,298.7
863.2,1387,11.8,9.5,85,8.65,20,14.4,297.2,322.6,298.8
862.6,1394,11.8,9.4,85,8.60,19,14.5,297.3,322.5,298.8
861.9,1400,11.8,9.3,85,8.56,19,14.6,297.3,322.4,298.8
861.3,1406,11.7,9.2,85,8.54,19,14.7,297.3,322.4,298.8
860.7,1412,11.7,9.2,85,8.52,19,14.8,297.3,322.3,298.8
860.1,1418,11.6,9.2,85,8.51,19,14.9,297.3,322.3,298.8
859.5,1423,11.6,9.1,85,8.47,19,15.0,297.3,322.2,298.8
859.0,1428,11.5,9.1,85,8.45,19,15.2,297.3,322.1,298.8
858.5,1433,11.5,9.0,85,8.45,19,15.3,297.3,322.2,298.9
858.1,1437,11.5,9.1,85,8.48,19,15.4,297.4,322.3,298.9
857.7,1441,11.5,9.2,86,8.53,20,15.5,297.4,322.5,298.9
857.3,1445,11.5,9.2,86,8.58,20,15.6,297.4,322.6,298.9
856.8,1449,11.5,9.2,86,8.57,20,15.7,297.4,322.6,299.0
856.4,1453,11.4,9.2,86,8.54,20,15.8,297.5,322.6,299.0
856.0,1457,11.4,9.1,86,8.53,21,15.9,297.5,322.5,299.0
855.6,1462,11.3,9.1,86,8.51,21,15.9,297.5,322.5,299.0
855.2,1466,11.3,9.1,86,8.50,21,16.0,297.5,322.4,299.0
854.7,1471,11.3,9.1,86,8.50,21,16.0,297.5,322.5,299.0
854.2,1476,11.2,9.1,87,8.51,22,16.1,297.5,322.5,299.0
853.6,1481,11.2,9.1,87,8.54,22,16.1,297.5,322.6,299.0
853.1,1486,11.1,9.2,88,8.59,22,16.1,297.5,322.7,299.0
852.5,1492,11.1,9.2,88,8.60,22,16.1,297.5,322.8,299.0
852.0,1497,11.1,9.1,88,8.55,23,16.1,297.5,322.7,299.1
851.4,1503,11.1,9.0,87,8.49,23,16.1,297.6,322.6,299.1
850.9,1508,11.2,8.9,86,8.44,23,16.0,297.7,322.6,299.2
850.3,1513,11.2,8.9,86,8.44,23,16.0,297.8,322.7,299.3
850.0,1517,11.2,8.9,86,8.45,23,16.0,297.8,322.7,299.3
849.8,1518,11.2,8.9,86,8.45,23,15.9,297.8,322.7,299.4
849.3,1524,11.1,8.9,86,8.48,23,15.8,297.9,322.8,299.4
848.7,1529,11.1,8.9,87,8.49,23,15.7,297.9,322.9,299.4
848.2,1534,11.1,8.9,87,8.48,23,15.6,297.9,322.9,299.4
847.6,1540,11.0,8.9,87,8.46,23,15.5,297.9,322.8,299.4
847.1,1546,11.0,8.8,86,8.44,23,15.4,298.0,322.8,299.5
846.5,1551,11.0,8.8,86,8.42,23,15.3,298.0,322.8,299.5
845.9,1557,10.9,8.7,86,8.38,23,15.2,298.0,322.7,299.5
845.4,1562,10.9,8.6,86,8.35,23,15.1,298.0,322.6,299.5
844.8,1567,10.9,8.6,86,8.33,23,15.0,298.1,322.6,299.5
844.3,1573,10.9,8.6,86,8.31,23,14.9,298.1,322.6,299.6
843.8,1578,10.8,8.6,86,8.32,23,14.9,298.1,322.7,299.6
843.3,1583,10.9,8.6,86,8.35,23,14.8,298.2,322.8,299.7
842.7,1588,10.8,8.7,86,8.39,23,14.7,298.2,323.0,299.7
842.1,1594,10.8,8.7,87,8.41,23,14.7,298.2,323.0,299.7
841.5,1600,10.7,8.7,87,8.41,23,14.6,298.2,323.0,299.7
840.9,1606,10.7,8.6,87,8.39,23,14.6,298.2,323.0,299.7
840.3,1613,10.6,8.6,87,8.39,23,14.6,298.2,323.0,299.7
839.6,1620,10.5,8.6,88,8.38,23,14.6,298.2,322.9,299.7
838.9,1626,10.5,8.5,88,8.36,23,14.6,298.2,322.9,299.7
838.3,1633,10.4,8.5,88,8.32,23,14.6,298.2,322.8,299.7
837.7,1639,10.4,8.4,87,8.27,23,14.6,298.3,322.7,299.7
837.1,1644,10.3,8.3,87,8.25,23,14.6,298.3,322.6,299.7
836.6,1650,10.3,8.3,87,8.25,23,14.6,298.3,322.6,299.8
836.0,1655,10.3,8.3,87,8.25,23,14.6,298.3,322.7,299.8
835.5,1660,10.3,8.2,87,8.21,23,14.6,298.4,322.6,299.9
835.0,1665,10.3,8.1,86,8.15,23,14.7,298.4,322.5,299.9
834.5,1670,10.3,8.0,86,8.11,23,14.7,298.5,322.5,300.0
834.0,1675,10.3,8.0,86,8.10,23,14.7,298.5,322.5,300.0
833.5,1680,10.3,8.0,86,8.10,23,14.7,298.5,322.5,300.0
833.0,1685,10.2,8.0,86,8.09,23,14.7,298.6,322.5,300.0
832.5,1690,10.2,8.0,86,8.09,23,14.7,298.6,322.5,300.0
832.0,1695,10.2,8.0,86,8.10,23,14.7,298.6,322.6,300.1
831.5,1700,10.2,7.9,86,8.08,23,14.7,298.6,322.5,300.1
831.0,1705,10.1,7.8,85,8.02,23,14.6,298.7,322.4,300.1
830.5,1710,10.2,7.6,84,7.93,23,14.6,298.8,322.3,300.2
830.0,1715,10.2,7.5,83,7.85,23,14.6,298.9,322.1,300.3
829.5,1720,10.2,7.4,83,7.81,23,14.5,298.9,322.1,300.3
829.1,1725,10.2,7.4,83,7.81,23,14.5,298.9,322.1,300.3
828.6,1729,10.1,7.3,83,7.79,23,14.4,298.9,322.0,300.3
828.2,1734,10.1,7.3,83,7.77,23,14.4,298.9,322.0,300.3
827.7,1738,10.1,7.3,83,7.76,23,14.3,298.9,322.0,300.3
827.2,1743,10.0,7.2,83,7.74,23,14.2,299.0,321.9,300.4
826.7,1748,10.0,7.2,82,7.71,23,14.2,299.0,321.9,300.4
826.2,1753,10.0,7.1,82,7.66,23,14.1,299.0,321.8,300.4
825.7,1759,10.0,7.0,81,7.61,23,14.1,299.1,321.7,300.4
825.1,1765,10.0,6.9,81,7.58,23,14.0,299.1,321.6,300.5
824.5,1770,10.0,6.9,81,7.58,23,14.0,299.2,321.7,300.5
823.9,1776,10.0,6.9,81,7.58,23,14.0,299.2,321.8,300.6
823.4,1782,9.9,6.8,81,7.53,23,14.0,299.2,321.6,300.6
822.8,1788,9.9,6.6,80,7.44,24,14.0,299.3,321.4,300.6
822.2,1794,9.9,6.5,79,7.39,24,14.0,299.3,321.3,300.6
821.7,1799,9.8,6.4,79,7.38,24,14.0,299.3,321.3,300.7
821.2,1804,9.8,6.5,80,7.42,24,14.0,299.4,321.4,300.7
820.7,1809,9.8,6.6,80,7.46,25,14.0,299.4,321.6,300.7
820.2,1814,9.8,6.7,81,7.52,25,14.1,299.4,321.8,300.8
819.7,1820,9.8,6.8,82,7.61,26,14.1,299.4,322.1,300.8
819.1,1825,9.7,7.0,83,7.69,26,14.2,299.5,322.4,300.9
818.6,1830,9.7,7.0,83,7.71,26,14.2,299.5,322.5,300.9
818.1,1835,9.7,6.9,83,7.68,27,14.3,299.5,322.4,300.9
817.6,1841,9.7,6.9,83,7.65,27,14.3,299.5,322.3,300.9
817.1,1846,9.6,6.9,83,7.65,28,14.4,299.5,322.3,300.9
816.6,1851,9.5,6.9,83,7.65,28,14.4,299.5,322.3,300.9
816.1,1856,9.5,6.8,83,7.64,28,14.5,299.6,322.3,300.9
815.6,1861,9.5,6.8,84,7.64,29,14.5,299.6,322.3,300.9
815.1,1866,9.4,6.8,84,7.65,29,14.6,299.6,322.4,301.0
