PRES,HGHT,TEMP,DWPT,RELH,MIXR,DRCT,SPED,THTA,THTE,THTV
1016.3,31,26.2,17.1,57,12.12,54,9.1,298.0,333.4,300.1
1015.8,35,26.0,16.9,57,12.00,47,7.4,297.8,332.9,300.0
1015.4,39,25.8,16.6,57,11.81,44,7.1,297.6,332.1,299.8
1014.5,46,25.5,16.3,57,11.55,43,7.4,297.4,331.1,299.4
1014.2,49,25.2,16.1,57,11.42,43,7.9,297.2,330.5,299.2
1013.7,53,25.2,16.1,57,11.40,43,8.5,297.1,330.4,299.2
1013.2,58,25.2,16.0,57,11.35,44,9.0,297.2,330.3,299.2
1012.8,61,25.2,15.9,56,11.30,44,9.5,297.2,330.2,299.2
1012.4,65,25.0,15.7,56,11.15,44,10.0,297.1,329.6,299.1
1011.9,69,24.9,15.6,56,11.07,44,10.4,297.0,329.3,299.0
1011.4,73,24.8,15.6,56,11.08,44,10.8,297.0,329.3,299.0
1010.9,77,24.8,15.6,57,11.08,44,11.2,297.0,329.3,299.0
1010.4,82,24.7,15.5,56,11.01,44,11.6,297.0,329.1,299.0
1009.8,87,24.6,15.4,56,10.96,44,11.9,297.0,328.9,298.9
1009.3,92,24.6,15.4,57,10.95,44,12.2,296.9,328.9,298.9
1008.7,96,24.5,15.4,57,10.96,44,12.4,296.9,328.9,298.9
1008.2,101,24.5,15.4,57,10.99,44,12.6,296.9,329.0,298.9
1007.6,106,24.4,15.5,57,11.02,44,12.8,296.9,329.1,298.9
1007.1,111,24.4,15.5,58,11.03,44,13.0,296.9,329.1,298.9
1006.5,115,24.3,15.5,58,11.03,44,13.1,296.9,329.1,298.9
1006.0,120,24.3,15.5,58,11.04,44,13.2,296.9,329.1,298.9
1005.5,124,24.3,15.5,58,11.04,44,13.3,296.9,329.1,298.9
1005.0,129,24.2,15.4,58,11.03,44,13.4,296.9,329.1,298.9
1004.5,133,24.2,15.4,58,11.02,44,13.5,296.9,329.1,298.9
1003.9,138,24.1,15.5,58,11.06,43,13.5,296.9,329.2,298.9
1003.4,143,24.1,15.6,59,11.14,43,13.5,296.9,329.4,298.9
1002.8,148,24.0,15.6,59,11.17,43,13.5,296.9,329.5,298.9
1002.2,153,24.0,15.5,59,11.12,43,13.5,296.9,329.3,298.9
1001.6,159,23.9,15.4,59,11.06,43,13.5,296.9,329.2,298.9
1001.0,164,23.8,15.4,59,11.05,43,13.5,296.9,329.1,298.9
1000.3,169,23.8,15.4,59,11.07,43,13.5,296.9,329.2,298.9
1000.0,172,23.8,15.4,60,11.09,43,13.5,296.9,329.3,298.9
999.7,175,23.8,15.5,60,11.11,42,13.5,296.9,329.3,298.9
999.1,180,23.7,15.4,60,11.11,42,13.5,296.9,329.3,298.9
998.5,185,23.7,15.4,60,11.05,42,13.5,296.9,329.1,298.9
997.9,191,23.6,15.3,60,11.01,42,13.5,296.9,329.0,298.9
997.3,196,23.6,15.2,60,10.98,42,13.5,296.9,329.0,298.9
996.7,202,23.5,15.2,60,10.95,42,13.5,296.9,328.9,298.9
996.0,207,23.4,15.2,60,10.95,42,13.5,296.9,328.8,298.9
995.4,213,23.4,15.2,60,10.94,42,13.5,296.9,328.8,298.9
994.8,218,23.3,15.1,60,10.93,42,13.5,296.9,328.8,298.9
994.2,224,23.3,15.2,60,10.95,42,13.5,296.9,328.8,298.9
993.6,229,23.2,15.2,61,11.00,42,13.5,296.9,329.0,298.9
993.0,234,23.2,15.2,61,11.02,42,13.5,296.9,329.0,298.9
992.4,239,23.1,15.2,61,11.03,43,13.5,296.9,329.1,298.9
991.8,244,23.1,15.3,61,11.06,43,13.5,296.9,329.2,298.9
991.2,249,23.0,15.2,61,11.04,43,13.5,296.9,329.1,298.9
990.7,254,23.0,15.2,61,11.02,43,13.5,296.9,329.1,298.9
990.1,259,22.9,15.2,62,11.02,43,13.5,296.9,329.1,298.9
989.5,265,22.9,15.2,62,11.03,43,13.5,296.9,329.1,298.9
988.9,270,22.8,15.1,62,11.01,43,13.5,296.9,329.0,298.9
988.3,275,22.8,15.0,62,10.93,43,13.5,296.9,328.8,298.9
987.8,280,22.7,15.0,62,10.88,43,13.5,296.9,328.6,298.9
987.2,285,22.7,14.9,62,10.87,44,13.4,296.9,328.6,298.9
986.6,290,22.6,14.9,62,10.87,44,13.4,296.9,328.6,298.9
986.1,295,22.6,14.9,62,10.86,44,13.4,296.9,328.6,298.8
985.5,300,22.5,14.9,62,10.84,44,13.4,296.9,328.5,298.9
985.0,304,22.5,14.9,62,10.85,44,13.4,296.9,328.5,298.8
984.4,309,22.4,14.9,63,10.91,44,13.4,296.9,328.7,298.9
983.9,314,22.4,15.0,63,10.95,44,13.4,296.9,328.9,298.9
983.3,319,22.4,15.0,63,10.93,44,13.4,296.9,328.8,298.9
982.8,324,22.3,14.9,63,10.91,44,13.4,296.9,328.7,298.9
982.2,329,22.3,14.9,63,10.92,45,13.5,296.9,328.8,298.9
981.7,334,22.2,14.9,63,10.91,45,13.5,296.9,328.7,298.9
981.1,339,22.2,14.8,63,10.87,45,13.5,296.9,328.6,298.9
980.5,344,22.1,14.8,63,10.86,45,13.5,296.9,328.6,298.9
980.0,349,22.1,14.8,63,10.86,45,13.5,296.9,328.6,298.9
979.4,354,22.0,14.8,63,10.85,45,13.5,297.0,328.6,298.9
978.8,359,22.0,14.8,64,10.85,45,13.6,297.0,328.6,298.9
978.2,365,21.9,14.8,64,10.88,46,13.6,296.9,328.7,298.9
977.6,370,21.9,14.9,64,10.94,46,13.6,296.9,328.8,298.9
976.9,376,21.8,15.0,65,11.01,46,13.6,296.9,329.0,298.9
976.3,381,21.8,15.0,66,11.07,46,13.6,296.9,329.2,298.9
975.7,387,21.7,15.1,66,11.09,46,13.7,296.9,329.2,298.9
975.0,393,21.6,15.0,66,11.07,46,13.7,296.9,329.2,298.9
974.3,399,21.6,15.0,66,11.06,47,13.7,296.9,329.2,298.9
973.7,405,21.5,15.0,66,11.10,47,13.8,296.9,329.3,298.9
973.0,411,21.5,15.1,67,11.14,47,13.8,296.9,329.4,298.9
972.4,417,21.4,15.0,67,11.12,47,13.8,296.9,329.3,298.9
971.7,422,21.3,15.0,67,11.07,47,13.9,296.9,329.1,298.9
971.1,428,21.3,14.9,67,11.03,48,13.9,296.9,329.0,298.9
970.5,433,21.2,14.9,67,11.04,48,13.9,296.9,329.1,298.9
969.9,439,21.2,14.9,67,11.06,48,13.9,296.9,329.1,298.9
969.3,444,21.1,14.9,67,11.04,48,13.9,296.9,329.1,298.9
968.8,449,21.1,14.8,67,10.98,48,13.9,296.9,328.9,298.9
968.3,453,21.0,14.7,67,10.95,48,14.0,296.9,328.8,298.9
967.8,458,21.0,14.7,67,10.95,49,14.0,296.9,328.8,298.9
967.3,462,21.0,14.8,68,10.98,49,14.0,296.9,328.9,298.9
966.8,467,20.9,14.8,68,11.00,49,14.0,296.9,329.0,298.9
966.3,471,20.9,14.8,68,11.01,49,14.0,296.9,329.0,298.9
965.8,476,20.8,14.8,68,11.00,49,14.0,296.9,329.0,298.9
965.3,480,20.8,14.8,68,11.01,49,14.0,296.9,329.0,298.9
964.8,485,20.8,14.8,69,11.01,49,13.9,296.9,329.0,298.9
964.2,489,20.7,14.8,69,11.01,49,13.9,296.9,329.0,298.9
963.7,494,20.7,14.8,69,11.02,49,13.9,296.9,329.1,298.9
963.2,499,20.6,14.7,69,11.01,49,13.9,296.9,329.0,298.9
962.7,503,20.6,14.7,69,11.01,49,13.9,296.9,329.0,298.9
962.2,508,20.5,14.7,69,11.01,49,13.9,296.9,329.0,298.9
961.7,512,20.5,14.7,70,11.03,49,13.9,296.9,329.1,298.9
961.2,517,20.5,14.8,70,11.05,49,13.8,296.9,329.1,298.9
960.7,521,20.4,14.8,70,11.05,49,13.8,296.9,329.1,298.9
960.3,525,20.4,14.8,70,11.05,49,13.8,296.9,329.2,298.9
959.8,529,20.3,14.8,70,11.06,49,13.8,297.0,329.2,298.9
959.3,533,20.3,14.7,70,11.06,49,13.8,297.0,329.2,298.9
958.8,538,20.3,14.7,70,11.04,49,13.8,296.9,329.1,298.9
958.4,542,20.2,14.7,70,11.02,49,13.8,296.9,329.1,298.9
957.9,547,20.2,14.6,70,10.99,49,13.8,296.9,329.0,298.9
957.4,551,20.1,14.6,70,10.98,49,13.8,297.0,329.0,298.9
956.9,555,20.1,14.6,71,10.98,49,13.7,297.0,329.0,298.9
956.4,560,20.1,14.6,71,10.98,49,13.7,297.0,329.0,298.9
956.0,564,20.0,14.6,71,10.97,49,13.7,297.0,328.9,298.9
955.5,568,20.0,14.6,71,10.98,49,13.7,297.0,329.0,298.9
955.0,572,19.9,14.6,71,11.02,49,13.7,297.0,329.1,298.9
954.6,576,19.9,14.7,72,11.06,49,13.7,297.0,329.2,298.9
954.1,581,19.9,14.7,72,11.06,50,13.7,297.0,329.2,298.9
953.6,585,19.8,14.7,72,11.06,50,13.7,297.0,329.2,298.9
953.2,589,19.8,14.7,72,11.06,50,13.6,296.9,329.2,298.9
952.6,594,19.7,14.6,73,11.06,50,13.6,297.0,329.2,298.9
952.1,599,19.7,14.6,73,11.06,50,13.6,296.9,329.2,298.9
951.6,604,19.6,14.6,73,11.08,50,13.6,296.9,329.2,298.9
951.0,609,19.6,14.6,73,11.08,50,13.5,296.9,329.2,298.9
950.4,614,19.5,14.6,73,11.06,50,13.5,296.9,329.2,298.9
949.9,619,19.5,14.6,73,11.04,50,13.5,296.9,329.1,298.9
949.3,624,19.4,14.5,73,11.01,50,13.5,297.0,329.0,298.9
948.8,629,19.4,14.5,73,11.01,50,13.4,296.9,329.0,298.9
948.3,634,19.3,14.5,74,11.03,50,13.4,296.9,329.1,298.9
947.8,638,19.3,14.5,74,11.04,51,13.4,296.9,329.1,298.9
947.2,643,19.2,14.5,74,11.04,51,13.3,297.0,329.1,298.9
946.7,648,19.2,14.6,74,11.07,51,13.3,297.0,329.2,298.9
946.1,653,19.1,14.6,75,11.12,51,13.3,297.0,329.4,298.9
945.6,658,19.1,14.7,76,11.17,51,13.2,296.9,329.5,298.9
945.0,663,19.0,14.7,76,11.19,51,13.2,296.9,329.5,298.9
944.4,669,19.0,14.7,76,11.20,51,13.2,296.9,329.6,298.9
943.8,675,18.9,14.7,76,11.19,51,13.2,296.9,329.5,298.9
943.1,680,18.9,14.6,77,11.18,51,13.2,296.9,329.5,298.9
942.5,686,18.8,14.6,77,11.16,51,13.2,296.9,329.4,298.9
941.9,692,18.7,14.6,77,11.14,51,13.2,296.9,329.4,298.9
941.3,697,18.7,14.6,77,11.13,51,13.2,296.9,329.4,298.9
940.7,703,18.6,14.5,77,11.13,51,13.2,296.9,329.3,298.9
940.1,708,18.6,14.5,77,11.12,52,13.2,296.9,329.3,298.9
939.5,714,18.5,14.5,77,11.13,52,13.2,296.9,329.3,298.9
938.9,719,18.5,14.5,78,11.15,52,13.2,296.9,329.4,298.9
938.4,724,18.4,14.5,78,11.16,52,13.3,296.9,329.4,298.9
937.9,729,18.4,14.5,78,11.16,52,13.3,296.9,329.4,298.9
937.3,733,18.3,14.5,78,11.14,52,13.3,296.9,329.4,298.9
936.9,738,18.3,14.4,78,11.11,52,13.3,296.9,329.3,298.9
936.4,742,18.3,14.4,78,11.10,52,13.3,296.9,329.3,298.9
935.9,747,18.2,14.4,78,11.11,52,13.3,296.9,329.3,298.9
935.4,751,18.2,14.5,79,11.13,52,13.4,297.0,329.4,298.9
935.0,755,18.2,14.4,79,11.11,53,13.4,296.9,329.3,298.9
934.5,759,18.1,14.4,79,11.10,53,13.4,296.9,329.3,298.9
934.0,764,18.1,14.4,79,11.10,53,13.4,296.9,329.3,298.9
933.6,768,18.0,14.4,79,11.09,53,13.4,296.9,329.2,298.9
933.1,772,18.0,14.3,79,11.08,53,13.4,296.9,329.2,298.9
932.6,777,17.9,14.3,79,11.08,53,13.4,296.9,329.2,298.9
932.1,781,17.9,14.3,80,11.08,53,13.4,296.9,329.2,298.9
931.6,786,17.8,14.3,80,11.07,53,13.4,296.9,329.2,298.9
931.2,790,17.8,14.3,80,11.09,53,13.3,296.9,329.2,298.9
930.7,795,17.8,14.3,80,11.11,53,13.3,296.9,329.3,298.9
930.2,799,17.7,14.3,81,11.11,53,13.3,296.9,329.3,298.9
929.7,804,17.7,14.3,81,11.10,53,13.3,296.9,329.3,298.9
929.2,808,17.6,14.3,81,11.07,53,13.3,296.9,329.2,298.9
928.7,813,17.6,14.2,81,11.05,53,13.3,296.9,329.2,298.9
928.2,817,17.6,14.2,81,11.04,53,13.2,297.0,329.1,298.9
927.7,822,17.5,14.2,81,11.03,53,13.2,297.0,329.1,298.9
927.2,827,17.5,14.2,81,11.06,53,13.2,297.0,329.2,298.9
926.6,832,17.4,14.3,82,11.10,53,13.2,297.0,329.3,298.9
926.1,837,17.4,14.3,82,11.14,53,13.2,296.9,329.4,298.9
925.5,842,17.3,14.3,83,11.14,53,13.2,296.9,329.4,298.9
925.0,847,17.3,14.2,82,11.09,53,13.2,297.0,329.3,298.9
924.4,852,17.2,14.1,82,11.03,53,13.2,297.0,329.1,298.9
923.8,858,17.2,14.1,82,10.99,53,13.2,297.0,329.0,298.9
923.3,863,17.1,14.1,82,10.99,53,13.2,297.0,329.0,298.9
922.7,869,17.1,14.1,83,11.03,53,13.2,297.0,329.1,298.9
922.0,874,17.0,14.1,83,11.02,53,13.2,297.0,329.1,298.9
921.4,880,17.0,14.0,83,10.97,53,13.3,297.0,328.9,298.9
920.8,886,16.9,13.9,82,10.91,53,13.3,297.0,328.8,298.9
920.2,891,16.9,13.9,83,10.91,53,13.3,297.0,328.8,298.9
919.6,897,16.8,13.9,83,10.95,53,13.4,297.0,328.9,298.9
919.0,903,16.7,14.0,84,11.02,52,13.4,297.0,329.1,298.9
918.4,908,16.7,14.1,84,11.05,52,13.5,297.0,329.1,298.9
917.8,914,16.6,14.1,85,11.05,52,13.5,297.0,329.2,298.9
917.2,919,16.6,14.0,85,11.05,52,13.5,297.0,329.2,298.9
916.6,925,16.5,14.0,85,11.05,52,13.6,297.0,329.2,298.9
916.0,931,16.5,14.0,86,11.05,52,13.6,297.0,329.2,298.9
915.4,936,16.4,14.0,86,11.04,52,13.7,297.0,329.1,298.9
914.8,942,16.4,14.0,86,11.02,52,13.7,297.0,329.1,298.9
914.2,947,16.3,14.0,86,11.02,52,13.8,297.0,329.1,298.9
913.6,952,16.3,14.0,86,11.05,52,13.8,297.0,329.2,298.9
913.1,958,16.2,14.0,87,11.07,52,13.9,297.0,329.2,298.9
912.5,963,16.2,14.0,87,11.10,52,13.9,297.0,329.3,298.9
911.9,969,16.1,14.0,88,11.11,53,13.9,297.0,329.3,298.9
911.3,974,16.0,14.0,88,11.10,53,14.0,297.0,329.3,298.9
910.7,980,16.0,14.0,88,11.07,53,14.0,297.0,329.2,298.9
910.2,985,15.9,14.0,88,11.08,53,14.0,297.0,329.2,298.9
909.6,991,15.9,14.0,88,11.10,53,14.0,297.0,329.3,298.9
909.0,996,15.8,13.9,89,11.07,53,14.0,297.0,329.2,298.9
908.4,1001,15.8,13.9,88,11.02,53,14.0,297.0,329.1,298.9
907.9,1006,15.7,13.8,88,10.99,54,14.0,297.0,329.0,298.9
907.4,1011,15.7,13.7,88,10.96,54,14.0,297.0,328.9,298.9
906.8,1016,15.6,13.7,88,10.94,54,14.0,297.0,328.9,298.9
906.3,1021,15.6,13.7,88,10.93,54,14.0,297.0,328.8,298.9
905.8,1026,15.6,13.7,89,10.92,54,14.0,297.0,328.8,298.9
905.3,1030,15.5,13.7,89,10.92,54,13.9,297.0,328.8,298.9
904.8,1035,15.5,13.7,89,10.92,54,13.9,297.0,328.8,298.9
904.3,1040,15.4,13.6,89,10.92,54,13.9,297.0,328.8,298.9
903.8,1044,15.4,13.6,89,10.91,54,13.9,297.0,328.8,298.9
903.3,1049,15.4,13.5,89,10.85,54,13.9,297.0,328.7,299.0
902.8,1054,15.4,13.4,88,10.77,54,13.9,297.1,328.5,299.0
902.2,1059,15.3,13.2,87,10.60,54,13.9,297.1,328.0,299.0
901.7,1065,15.4,12.7,84,10.29,54,13.9,297.2,327.2,299.0
901.1,1070,15.4,12.3,81,10.00,54,13.9,297.3,326.5,299.1
900.5,1076,15.4,12.0,80,9.85,53,13.9,297.4,326.2,299.1
899.9,1081,15.5,11.9,79,9.74,53,13.9,297.4,326.0,299.2
899.3,1087,15.5,11.8,79,9.71,53,13.9,297.5,325.9,299.2
898.7,1092,15.4,11.8,79,9.72,53,13.9,297.5,326.0,299.2
898.2,1098,15.4,11.8,79,9.71,52,14.0,297.5,326.0,299.2
897.6,1103,15.3,11.8,79,9.71,52,14.0,297.5,326.0,299.3
897.0,1109,15.3,11.8,80,9.75,51,14.1,297.5,326.1,299.3
896.5,1114,15.2,12.0,81,9.84,51,14.1,297.5,326.3,299.3
895.9,1119,15.1,12.1,82,9.94,51,14.2,297.4,326.5,299.2
895.3,1125,15.0,12.2,83,10.02,50,14.3,297.4,326.7,299.2
894.7,1131,14.9,12.2,84,10.06,50,14.3,297.3,326.8,299.1
894.1,1136,14.8,12.2,85,10.06,50,14.4,297.3,326.7,299.1
893.5,1142,14.8,12.2,85,10.04,49,14.5,297.3,326.7,299.1
893.0,1147,14.7,12.2,85,10.04,49,14.5,297.3,326.7,299.1
892.4,1152,14.6,12.2,85,10.02,49,14.6,297.3,326.6,299.1
891.9,1157,14.6,12.1,85,10.02,49,14.7,297.3,326.6,299.1
891.4,1162,14.6,12.3,86,10.10,48,14.7,297.3,326.8,299.1
890.8,1167,14.5,12.4,87,10.22,48,14.8,297.3,327.1,299.1
890.3,1173,14.4,12.5,88,10.25,48,14.8,297.3,327.2,299.1
889.7,1178,14.4,12.3,87,10.14,48,14.9,297.3,326.9,299.1
889.2,1183,14.3,12.0,86,9.96,48,14.9,297.3,326.4,299.1
888.7,1188,14.3,11.9,86,9.93,48,14.9,297.3,326.3,299.1
888.1,1193,14.2,12.2,87,10.08,48,15.0,297.3,326.8,299.1
887.6,1199,14.2,12.3,88,10.17,48,15.0,297.3,327.0,299.1
887.0,1204,14.1,12.1,88,10.05,48,15.0,297.3,326.7,299.1
886.4,1209,14.1,11.7,86,9.81,48,15.0,297.3,326.0,299.1
885.8,1215,14.1,11.3,84,9.56,48,15.0,297.3,325.3,299.0
885.2,1221,14.1,11.0,82,9.38,48,14.9,297.4,324.9,299.1
884.6,1227,14.0,11.1,82,9.39,48,14.9,297.4,324.9,299.1
884.0,1233,14.0,11.2,84,9.51,48,14.9,297.4,325.3,299.1
883.3,1239,13.9,11.4,85,9.63,49,14.8,297.4,325.6,299.1
882.7,1245,13.8,11.5,86,9.71,49,14.8,297.4,325.8,299.1
882.0,1252,13.8,11.6,87,9.76,49,14.7,297.4,326.0,299.1
881.4,1258,13.7,11.5,87,9.72,49,14.7,297.4,325.9,299.1
880.7,1264,13.7,11.3,86,9.61,49,14.6,297.4,325.6,299.1
880.1,1270,13.6,11.2,85,9.51,49,14.6,297.4,325.3,299.1
879.5,1275,13.6,11.0,84,9.44,50,14.5,297.5,325.2,299.2
879.0,1281,13.6,10.9,84,9.37,50,14.5,297.5,325.0,299.2
878.5,1286,13.6,10.8,83,9.29,50,14.5,297.5,324.8,299.2
877.9,1291,13.6,10.6,83,9.20,50,14.4,297.6,324.6,299.2
877.4,1295,13.6,10.4,81,9.08,51,14.4,297.6,324.3,299.3
877.0,1300,13.6,10.3,80,8.98,51,14.3,297.7,324.1,299.3
876.5,1305,13.6,10.2,80,8.98,51,14.3,297.7,324.1,299.3
876.0,1309,13.6,10.2,80,8.95,51,14.3,297.8,324.1,299.4
875.5,1314,13.5,10.1,80,8.90,51,14.3,297.8,324.0,299.4
875.0,1319,13.5,10.0,79,8.86,52,14.2,297.8,323.9,299.4
874.5,1323,13.5,10.0,79,8.83,52,14.2,297.8,323.8,299.4
874.1,1328,13.5,9.9,79,8.80,52,14.2,297.9,323.8,299.4
873.6,1333,13.4,9.9,79,8.80,52,14.2,297.9,323.7,299.4
873.1,1338,13.4,9.9,79,8.81,52,14.2,297.9,323.8,299.4
872.5,1343,13.3,9.9,80,8.83,52,14.2,297.9,323.9,299.5
872.0,1348,13.3,9.9,80,8.82,53,14.2,297.9,323.8,299.5
871.5,1353,13.3,9.9,80,8.81,53,14.1,297.9,323.8,299.5
871.0,1358,13.2,9.9,80,8.83,53,14.1,297.9,323.9,299.5
870.5,1363,13.2,9.9,80,8.84,53,14.1,297.9,323.9,299.5
870.0,1367,13.2,9.9,80,8.83,53,14.1,298.0,323.9,299.5
869.5,1372,13.2,9.9,81,8.85,53,14.1,298.0,324.0,299.6
869.0,1377,13.1,9.9,81,8.87,53,14.0,298.0,324.1,299.6
868.5,1382,13.1,10.0,81,8.90,53,14.0,298.0,324.2,299.6
868.0,1386,13.1,10.0,82,8.93,53,13.9,298.0,324.3,299.6
867.6,1391,13.0,10.0,82,8.94,53,13.9,298.0,324.3,299.6
867.1,1396,13.0,10.0,82,8.94,53,13.8,298.0,324.4,299.6
866.6,1400,13.0,10.1,83,8.99,53,13.8,298.1,324.5,299.7
866.1,1405,12.9,10.2,84,9.06,53,13.7,298.1,324.7,299.7
865.5,1411,12.9,10.3,84,9.11,53,13.6,298.1,324.9,299.7
865.0,1416,12.8,10.3,85,9.13,53,13.5,298.1,324.9,299.7
864.4,1421,12.8,10.3,85,9.12,53,13.4,298.1,324.9,299.7
863.9,1427,12.7,10.3,85,9.12,53,13.4,298.1,324.9,299.7
863.3,1433,12.7,10.3,86,9.15,54,13.3,298.1,325.0,299.7
862.7,1438,12.6,10.3,86,9.17,54,13.2,298.1,325.0,299.7
862.1,1444,12.6,10.3,86,9.16,54,13.1,298.1,325.0,299.7
861.6,1449,12.5,10.3,86,9.16,54,13.0,298.1,325.0,299.7
861.0,1455,12.5,10.3,87,9.17,54,12.9,298.1,325.0,299.7
860.5,1460,12.4,10.3,87,9.17,54,12.8,298.1,325.0,299.7
859.9,1465,12.4,10.3,87,9.20,54,12.8,298.1,325.1,299.7
859.4,1471,12.3,10.3,88,9.21,54,12.7,298.1,325.2,299.7
858.9,1476,12.3,10.4,88,9.23,54,12.7,298.1,325.2,299.8
858.4,1480,12.2,10.4,89,9.27,55,12.6,298.1,325.4,299.8
857.9,1485,12.2,10.5,89,9.31,55,12.6,298.1,325.5,299.8
857.5,1490,12.1,10.5,90,9.34,55,12.5,298.1,325.5,299.8
857.0,1494,12.1,10.5,90,9.34,55,12.5,298.1,325.6,299.8
856.6,1498,12.1,10.5,90,9.33,55,12.5,298.1,325.5,299.8
856.2,1502,12.0,10.4,90,9.31,55,12.5,298.1,325.5,299.8
855.8,1506,12.0,10.4,90,9.30,55,12.5,298.1,325.5,299.8
855.4,1510,12.0,10.4,90,9.31,55,12.5,298.1,325.5,299.8
855.0,1514,11.9,10.4,90,9.31,55,12.6,298.1,325.5,299.8
854.6,1518,11.9,10.4,91,9.30,55,12.6,298.1,325.5,299.8
854.1,1522,11.9,10.4,91,9.32,55,12.6,298.1,325.5,299.8
853.7,1526,11.8,10.5,91,9.36,55,12.7,298.1,325.6,299.8
853.3,1530,11.8,10.5,92,9.39,55,12.7,298.1,325.7,299.8
852.8,1535,11.7,10.5,92,9.39,54,12.7,298.2,325.8,299.8
852.4,1539,11.7,10.5,92,9.39,54,12.8,298.1,325.7,299.8
852.0,1543,11.7,10.5,92,9.37,54,12.8,298.1,325.7,299.8
851.6,1547,11.6,10.4,92,9.36,54,12.9,298.1,325.7,299.8
851.2,1551,11.6,10.4,92,9.34,54,12.9,298.1,325.6,299.8
850.8,1555,11.6,10.4,92,9.33,53,12.9,298.2,325.6,299.8
850.4,1559,11.5,10.4,93,9.33,53,13.0,298.2,325.6,299.8
850.0,1563,11.5,10.3,93,9.32,53,13.0,298.2,325.6,299.8
849.6,1566,11.5,10.3,93,9.32,53,13.0,298.2,325.6,299.8
849.2,1570,11.4,10.3,93,9.32,53,13.0,298.2,325.6,299.8
848.8,1575,11.4,10.3,93,9.32,52,13.0,298.2,325.6,299.8
848.3,1579,11.3,10.3,94,9.34,52,13.0,298.2,325.6,299.8
847.9,1584,11.3,10.3,94,9.33,52,12.9,298.2,325.6,299.8
847.3,1589,11.2,10.3,94,9.32,52,12.9,298.2,325.6,299.8
846.8,1594,11.2,10.3,94,9.33,51,12.9,298.2,325.6,299.8
846.3,1600,11.1,10.3,94,9.33,51,12.9,298.2,325.6,299.8
845.7,1605,11.1,10.2,94,9.30,51,12.8,298.2,325.5,299.9
845.2,1611,11.1,10.2,94,9.28,51,12.8,298.2,325.5,299.9
844.6,1616,11.0,10.2,94,9.26,50,12.7,298.2,325.5,299.9
844.1,1621,11.0,10.1,95,9.26,50,12.6,298.2,325.5,299.9
843.5,1627,10.9,10.1,95,9.26,50,12.6,298.2,325.5,299.9
843.0,1632,10.9,10.1,95,9.24,50,12.5,298.2,325.4,299.9
842.5,1637,10.8,10.0,95,9.19,49,12.5,298.2,325.3,299.9
842.0,1642,10.8,9.9,94,9.12,49,12.4,298.2,325.1,299.9
841.5,1647,10.8,9.8,94,9.09,49,12.3,298.3,325.0,299.9
841.0,1651,10.7,9.8,94,9.07,49,12.3,298.3,325.0,299.9
840.6,1656,10.7,9.7,94,9.03,48,12.2,298.3,324.9,299.9
840.1,1661,10.7,9.6,93,8.98,48,12.2,298.3,324.8,299.9
839.6,1665,10.7,9.5,93,8.94,48,12.1,298.3,324.7,300.0
839.1,1670,10.7,9.5,93,8.92,47,12.1,298.4,324.7,300.0
838.6,1675,10.6,9.4,92,8.89,47,12.1,298.4,324.6,300.0
838.1,1681,10.6,9.4,92,8.86,47,12.0,298.4,324.5,300.0
837.6,1686,10.5,9.4,92,8.85,47,12.0,298.4,324.5,300.0
837.1,1691,10.5,9.3,93,8.85,47,12.0,298.4,324.5,300.0
836.5,1696,10.5,9.3,93,8.83,46,12.0,298.4,324.5,300.0
836.0,1701,10.4,9.3,93,8.80,46,11.9,298.5,324.4,300.0
835.5,1706,10.4,9.2,92,8.77,46,11.9,298.5,324.3,300.0
835.0,1711,10.3,9.1,92,8.74,46,11.9,298.5,324.3,300.0
834.6,1716,10.3,9.1,92,8.74,46,11.9,298.5,324.3,300.0
834.1,1720,10.3,9.1,93,8.76,46,11.9,298.5,324.3,300.1
833.7,1725,10.2,9.1,93,8.76,46,11.8,298.5,324.3,300.1
833.2,1730,10.2,9.1,93,8.75,47,11.8,298.5,324.3,300.1
832.7,1734,10.1,9.1,93,8.73,47,11.8,298.5,324.2,300.1
832.2,1739,10.1,9.0,93,8.71,47,11.8,298.5,324.2,300.1
831.8,1744,10.1,9.0,93,8.68,47,11.8,298.5,324.1,300.1
831.3,1749,10.0,8.9,93,8.63,48,11.8,298.5,324.0,300.1
830.8,1754,10.0,8.8,92,8.60,48,11.8,298.6,323.9,300.1
830.3,1759,10.0,8.8,93,8.61,49,11.7,298.6,324.0,300.1
829.7,1764,9.9,8.8,93,8.63,49,11.7,298.6,324.1,300.2
829.2,1769,9.9,8.9,93,8.64,49,11.7,298.6,324.1,300.2
828.7,1775,9.9,8.9,94,8.66,50,11.7,298.6,324.2,300.2
828.2,1780,9.8,8.9,94,8.67,50,11.7,298.6,324.2,300.2
827.7,1785,9.8,8.8,94,8.65,51,11.7,298.6,324.1,300.2
827.1,1790,9.7,8.8,94,8.61,51,11.7,298.6,324.1,300.2
826.7,1795,9.7,8.7,94,8.60,52,11.7,298.6,324.0,300.2
826.2,1800,9.6,8.7,94,8.60,52,11.7,298.6,324.0,300.2
825.7,1805,9.6,8.8,95,8.63,52,11.6,298.6,324.1,300.2
825.2,1810,9.5,8.8,95,8.64,52,11.6,298.6,324.2,300.2
824.8,1814,9.5,8.8,95,8.65,53,11.6,298.6,324.2,300.2
824.3,1819,9.5,8.8,96,8.67,53,11.6,298.7,324.2,300.2
823.8,1824,9.4,8.8,96,8.67,53,11.6,298.7,324.3,300.2
