PRES,HGHT,TEMP,DWPT,RELH,MIXR,DRCT,SPED,THTA,THTE,THTV
1014.3,31,23.6,20.9,85,15.57,31,4.1,295.5,340.4,298.3
1013.9,34,23.5,21.4,88,15.98,33,2.7,295.4,341.5,298.3
1013.3,39,23.4,21.3,88,15.97,34,2.4,295.4,341.4,298.2
1012.8,44,23.4,21.4,89,16.00,35,2.4,295.4,341.5,298.3
1012.2,49,23.3,21.3,88,15.97,36,2.6,295.5,341.5,298.3
1011.5,55,23.3,21.2,88,15.88,37,2.9,295.5,341.2,298.3
1010.9,60,23.3,21.1,88,15.76,37,3.1,295.5,340.9,298.3
1010.1,67,23.2,20.9,87,15.58,38,3.3,295.5,340.5,298.3
1009.4,73,23.2,20.7,85,15.36,38,3.5,295.6,339.9,298.3
1008.8,78,23.3,20.4,84,15.16,39,3.7,295.7,339.4,298.4
1008.1,84,23.3,20.3,83,15.06,39,3.9,295.8,339.2,298.4
1007.5,90,23.3,20.3,83,15.05,40,4.1,295.8,339.3,298.5
1006.8,95,23.3,20.3,83,15.03,40,4.3,295.8,339.2,298.5
1006.2,101,23.2,20.2,83,14.96,41,4.5,295.8,339.0,298.5
1005.5,107,23.2,20.1,83,14.87,41,4.6,295.9,338.8,298.5
1004.9,112,23.2,20.0,82,14.77,42,4.8,295.9,338.6,298.5
1004.3,117,23.2,19.9,82,14.69,42,4.9,295.9,338.4,298.5
1003.7,122,23.2,19.8,81,14.66,43,5.1,296.0,338.4,298.6
1003.2,127,23.2,19.8,81,14.64,43,5.2,296.1,338.4,298.7
1002.6,132,23.2,19.8,81,14.64,44,5.3,296.1,338.5,298.7
1002.2,136,23.2,19.8,81,14.67,44,5.4,296.2,338.6,298.8
1001.7,140,23.2,19.8,81,14.70,45,5.5,296.2,338.7,298.8
1001.2,144,23.2,19.8,82,14.71,45,5.6,296.2,338.8,298.8
1000.8,148,23.1,19.9,82,14.73,46,5.7,296.2,338.8,298.8
1000.4,151,23.1,19.9,82,14.74,46,5.7,296.2,338.8,298.8
1000.0,155,23.0,19.9,82,14.74,46,5.7,296.2,338.8,298.8
999.6,158,23.0,19.8,82,14.74,47,5.8,296.2,338.8,298.8
999.2,162,23.0,19.8,82,14.73,47,5.9,296.2,338.8,298.8
998.8,165,22.9,19.8,83,14.73,47,5.9,296.2,338.8,298.8
998.4,169,22.9,19.8,83,14.74,48,6.0,296.2,338.8,298.8
998.0,172,22.9,19.8,83,14.73,48,6.0,296.2,338.8,298.8
997.6,176,22.9,19.8,83,14.73,48,6.1,296.2,338.8,298.8
997.2,179,22.9,19.8,83,14.72,49,6.1,296.2,338.8,298.8
996.8,183,22.9,19.8,83,14.72,49,6.1,296.3,338.9,298.9
996.4,186,22.8,19.8,83,14.73,49,6.2,296.3,338.9,298.9
996.0,190,22.8,19.8,83,14.76,49,6.2,296.3,338.9,298.9
995.6,193,22.7,19.8,84,14.77,49,6.2,296.3,339.0,298.9
995.2,197,22.7,19.8,84,14.77,49,6.2,296.2,339.0,298.9
994.8,200,22.6,19.8,84,14.75,49,6.3,296.2,338.9,298.8
994.4,204,22.6,19.8,84,14.75,49,6.3,296.2,338.9,298.9
994.0,207,22.6,19.7,84,14.73,49,6.3,296.3,338.9,298.9
993.6,211,22.6,19.7,84,14.71,49,6.3,296.3,338.8,298.9
993.3,214,22.6,19.7,84,14.70,49,6.3,296.3,338.8,298.9
992.9,217,22.5,19.7,84,14.70,50,6.3,296.3,338.8,298.9
992.5,220,22.5,19.7,84,14.67,50,6.3,296.3,338.7,298.9
992.2,224,22.5,19.6,84,14.64,50,6.3,296.3,338.7,298.9
991.8,227,22.5,19.6,84,14.63,50,6.3,296.3,338.7,298.9
991.4,231,22.5,19.6,84,14.65,50,6.3,296.4,338.8,299.0
990.9,234,22.4,19.6,84,14.65,50,6.3,296.3,338.8,298.9
990.5,238,22.4,19.6,84,14.66,50,6.3,296.3,338.8,298.9
990.0,243,22.4,19.6,85,14.70,50,6.3,296.4,338.9,299.0
989.5,247,22.3,19.7,85,14.71,50,6.3,296.3,338.9,299.0
989.0,251,22.2,19.7,85,14.72,51,6.3,296.3,338.9,298.9
988.5,256,22.2,19.6,85,14.67,51,6.2,296.3,338.8,298.9
988.0,260,22.2,19.5,85,14.57,51,6.2,296.3,338.5,298.9
987.5,264,22.1,19.3,84,14.45,52,6.2,296.4,338.2,298.9
987.1,269,22.2,19.3,84,14.40,52,6.2,296.4,338.1,299.0
986.6,273,22.2,19.3,84,14.41,52,6.2,296.5,338.2,299.0
986.1,277,22.2,19.3,84,14.43,53,6.2,296.5,338.3,299.0
985.6,281,22.1,19.3,84,14.47,53,6.2,296.5,338.4,299.1
985.2,285,22.1,19.4,85,14.54,54,6.2,296.5,338.6,299.1
984.7,289,22.0,19.5,86,14.63,54,6.2,296.5,338.8,299.1
984.3,293,22.0,19.5,86,14.69,55,6.2,296.5,339.0,299.1
983.8,297,21.9,19.6,86,14.71,55,6.2,296.4,339.0,299.1
983.4,301,21.9,19.5,87,14.69,56,6.3,296.4,339.0,299.0
983.0,305,21.9,19.5,87,14.70,56,6.3,296.5,339.0,299.1
982.5,309,21.9,19.5,87,14.68,57,6.3,296.5,339.0,299.1
982.1,313,21.9,19.4,86,14.63,57,6.4,296.5,338.9,299.1
981.6,317,21.9,19.4,85,14.56,57,6.5,296.6,338.8,299.2
981.1,321,22.0,19.3,85,14.53,58,6.5,296.7,338.9,299.3
980.6,326,22.0,19.3,85,14.53,58,6.6,296.8,338.9,299.4
980.1,331,21.9,19.3,85,14.51,59,6.7,296.7,338.8,299.3
979.5,335,21.9,19.3,85,14.51,59,6.8,296.8,338.9,299.4
979.0,340,21.9,19.3,85,14.52,60,6.9,296.8,338.9,299.4
978.5,345,21.8,19.2,85,14.50,60,7.0,296.8,338.9,299.4
978.0,349,21.8,19.2,85,14.46,60,7.1,296.9,338.8,299.4
977.5,354,22.0,19.2,84,14.48,61,7.2,297.0,339.1,299.6
977.0,358,22.1,19.3,84,14.57,61,7.3,297.2,339.5,299.8
976.4,363,22.1,19.3,84,14.62,61,7.4,297.3,339.8,299.9
975.9,367,21.9,19.3,85,14.60,62,7.5,297.2,339.6,299.8
975.4,372,21.8,19.3,85,14.57,62,7.6,297.1,339.4,299.7
974.9,377,21.8,19.3,85,14.56,62,7.7,297.1,339.4,299.7
974.4,381,21.8,19.2,85,14.56,63,7.8,297.1,339.4,299.7
973.8,386,21.7,19.2,86,14.52,63,8.0,297.1,339.3,299.7
973.4,390,21.7,19.1,85,14.46,63,8.1,297.1,339.1,299.7
972.9,395,21.7,19.1,85,14.42,63,8.2,297.2,339.1,299.8
972.4,399,21.8,19.0,84,14.40,63,8.3,297.3,339.1,299.8
971.9,404,21.8,19.0,84,14.39,63,8.4,297.3,339.1,299.9
971.4,408,21.7,19.0,85,14.40,64,8.5,297.3,339.2,299.9
970.8,413,21.7,19.0,85,14.43,64,8.6,297.3,339.3,299.9
970.3,418,21.7,19.0,85,14.44,64,8.7,297.4,339.3,299.9
969.7,423,21.6,19.0,85,14.43,64,8.8,297.4,339.3,299.9
969.2,428,21.6,19.0,85,14.40,64,8.9,297.4,339.2,299.9
968.6,433,21.5,19.0,85,14.40,63,8.9,297.4,339.2,299.9
968.0,438,21.5,19.0,86,14.42,63,9.0,297.4,339.3,299.9
967.4,443,21.4,19.0,86,14.44,63,9.1,297.4,339.3,299.9
966.9,449,21.4,19.0,86,14.44,63,9.2,297.4,339.4,299.9
966.3,454,21.3,19.0,87,14.46,63,9.3,297.4,339.4,299.9
965.7,459,21.2,19.0,87,14.49,63,9.4,297.3,339.5,299.9
965.1,464,21.2,19.0,88,14.52,63,9.5,297.3,339.5,299.9
964.6,469,21.1,19.0,88,14.53,63,9.6,297.3,339.5,299.9
964.0,474,21.1,19.0,88,14.54,62,9.6,297.3,339.6,299.9
963.5,479,21.0,19.0,88,14.54,62,9.7,297.3,339.6,299.9
962.9,484,21.0,19.0,89,14.53,62,9.8,297.3,339.6,299.9
962.4,489,20.9,19.0,89,14.51,62,9.9,297.3,339.5,299.9
961.9,494,20.9,19.0,89,14.50,62,10.0,297.3,339.5,299.9
961.3,498,20.8,18.9,89,14.48,62,10.0,297.3,339.4,299.9
960.8,503,20.8,18.9,89,14.45,62,10.1,297.3,339.3,299.9
960.3,508,20.8,18.9,89,14.46,62,10.2,297.3,339.4,299.9
959.8,512,20.7,19.0,90,14.52,62,10.3,297.3,339.5,299.9
959.3,517,20.7,19.0,90,14.58,62,10.3,297.4,339.7,300.0
958.8,521,20.7,19.0,90,14.61,62,10.4,297.4,339.8,300.0
958.4,525,20.6,19.0,90,14.57,62,10.5,297.3,339.7,299.9
957.9,529,20.6,18.9,90,14.51,63,10.5,297.3,339.5,299.9
957.5,534,20.5,18.8,90,14.43,63,10.6,297.3,339.3,299.9
957.0,538,20.5,18.7,89,14.34,63,10.6,297.4,339.1,299.9
956.6,541,20.5,18.6,89,14.26,63,10.7,297.4,338.9,300.0
956.2,545,20.5,18.5,88,14.20,64,10.7,297.4,338.7,300.0
955.8,549,20.5,18.5,88,14.12,64,10.8,297.4,338.5,300.0
955.4,552,20.5,18.3,87,13.96,64,10.8,297.5,338.1,299.9
955.0,556,20.5,18.2,87,13.88,64,10.9,297.5,337.9,300.0
954.5,560,20.5,18.2,87,13.91,65,10.9,297.6,338.0,300.0
954.1,564,20.5,18.3,87,13.97,65,10.9,297.6,338.2,300.1
953.7,568,20.4,18.3,88,14.04,65,11.0,297.6,338.4,300.1
953.3,572,20.4,18.4,89,14.12,65,11.0,297.5,338.6,300.1
952.8,576,20.3,18.5,89,14.19,65,11.0,297.5,338.8,300.1
952.4,580,20.3,18.5,90,14.21,66,11.1,297.5,338.9,300.1
951.9,584,20.2,18.4,89,14.12,66,11.1,297.5,338.6,300.0
951.5,588,20.2,18.2,88,13.93,66,11.1,297.5,338.1,300.0
951.0,592,20.2,18.0,87,13.78,66,11.2,297.6,337.7,300.0
950.6,596,20.2,17.9,87,13.70,66,11.2,297.6,337.5,300.1
950.1,600,20.2,17.8,86,13.64,66,11.2,297.6,337.4,300.1
949.7,604,20.2,17.9,87,13.68,66,11.3,297.7,337.5,300.1
949.2,609,20.1,18.0,88,13.85,66,11.3,297.7,338.0,300.1
948.7,613,20.0,18.2,89,14.01,66,11.3,297.6,338.4,300.1
948.2,618,19.9,18.3,90,14.05,66,11.4,297.6,338.5,300.1
947.7,622,19.9,18.2,90,14.02,66,11.4,297.6,338.4,300.1
947.2,627,19.8,18.0,89,13.88,66,11.4,297.6,338.0,300.0
946.7,631,19.8,17.8,88,13.64,66,11.4,297.6,337.3,300.0
946.2,636,19.9,17.5,86,13.42,66,11.5,297.7,336.8,300.1
945.7,640,19.9,17.4,86,13.32,66,11.5,297.7,336.5,300.1
945.2,645,19.8,17.4,86,13.37,66,11.5,297.7,336.7,300.1
944.7,649,19.8,17.6,87,13.49,66,11.5,297.7,337.0,300.1
944.3,653,19.7,17.8,89,13.71,66,11.5,297.7,337.6,300.2
943.8,658,19.6,18.1,91,13.95,66,11.5,297.7,338.3,300.2
943.4,662,19.6,18.3,92,14.13,66,11.5,297.6,338.7,300.1
942.9,666,19.5,18.3,93,14.16,66,11.5,297.6,338.8,300.1
942.5,670,19.4,18.3,93,14.14,66,11.5,297.5,338.7,300.1
942.0,674,19.4,18.2,93,14.10,66,11.5,297.5,338.6,300.1
941.5,679,19.3,18.2,93,14.07,66,11.5,297.6,338.5,300.1
941.1,683,19.3,18.1,93,14.01,66,11.5,297.6,338.3,300.1
940.6,687,19.3,18.0,92,13.94,66,11.4,297.6,338.1,300.1
940.1,692,19.2,17.9,92,13.86,66,11.4,297.6,337.9,300.1
939.7,696,19.2,17.8,92,13.79,66,11.4,297.6,337.8,300.1
939.2,700,19.2,17.7,91,13.71,66,11.3,297.6,337.5,300.1
938.7,705,19.2,17.6,91,13.59,65,11.3,297.6,337.2,300.1
938.2,709,19.2,17.4,89,13.45,65,11.3,297.7,336.9,300.1
937.7,714,19.2,17.3,89,13.39,65,11.2,297.7,336.7,300.1
937.2,719,19.1,17.3,89,13.41,65,11.2,297.7,336.8,300.1
936.6,724,19.1,17.4,90,13.44,65,11.2,297.8,336.9,300.2
936.1,729,19.0,17.4,90,13.46,65,11.2,297.8,337.0,300.2
935.5,734,19.0,17.4,90,13.46,65,11.1,297.8,337.0,300.2
935.0,739,18.9,17.3,90,13.45,65,11.1,297.8,336.9,300.2
934.4,744,18.9,17.3,90,13.41,65,11.1,297.8,336.8,300.2
933.9,749,18.9,17.2,90,13.36,65,11.1,297.8,336.7,300.1
933.4,754,18.8,17.2,90,13.32,65,11.0,297.8,336.6,300.1
932.8,759,18.8,17.2,90,13.31,65,11.0,297.8,336.6,300.1
932.3,763,18.7,17.2,91,13.34,65,11.0,297.8,336.7,300.2
931.8,768,18.7,17.2,91,13.40,65,11.0,297.8,336.8,300.2
931.3,773,18.6,17.3,92,13.46,65,11.0,297.8,337.0,300.2
930.8,777,18.6,17.3,92,13.48,65,11.0,297.8,337.1,300.2
930.3,782,18.5,17.3,92,13.44,65,11.0,297.8,337.0,300.2
929.8,787,18.5,17.2,92,13.41,65,11.0,297.8,336.9,300.2
929.3,791,18.5,17.2,92,13.40,65,11.0,297.8,336.8,300.2
928.8,796,18.4,17.2,93,13.42,65,11.1,297.8,336.9,300.2
928.3,801,18.4,17.2,93,13.46,66,11.1,297.8,337.0,300.2
927.8,805,18.3,17.2,93,13.46,66,11.1,297.8,337.0,300.2
927.3,810,18.3,17.2,94,13.45,66,11.1,297.8,337.0,300.2
926.9,814,18.2,17.2,94,13.43,66,11.2,297.8,336.9,300.2
926.4,818,18.2,17.2,94,13.41,66,11.2,297.8,336.8,300.2
925.9,823,18.2,17.2,94,13.44,67,11.2,297.8,337.0,300.2
925.4,828,18.1,17.3,95,13.51,67,11.2,297.8,337.2,300.2
925.0,831,18.1,17.3,95,13.53,67,11.2,297.8,337.2,300.2
924.8,833,18.1,17.3,95,13.54,67,11.3,297.8,337.3,300.2
924.3,838,18.0,17.2,95,13.50,67,11.3,297.8,337.2,300.2
923.7,843,18.0,17.1,95,13.42,67,11.3,297.8,336.9,300.2
923.1,849,18.0,17.1,94,13.37,67,11.4,297.8,336.8,300.2
922.5,855,17.9,17.0,95,13.37,67,11.4,297.8,336.8,300.2
921.8,861,17.9,17.1,95,13.40,67,11.4,297.8,336.9,300.2
921.2,866,17.8,17.1,96,13.42,67,11.5,297.9,337.0,300.3
920.6,872,17.8,17.1,96,13.42,67,11.5,297.9,337.0,300.3
920.0,877,17.7,17.1,96,13.42,67,11.5,297.9,337.0,300.3
919.5,882,17.7,17.0,96,13.38,67,11.5,297.9,336.9,300.3
919.0,887,17.6,17.0,96,13.34,67,11.5,297.9,336.8,300.3
918.5,892,17.6,16.9,96,13.34,67,11.5,297.9,336.8,300.3
918.0,896,17.6,17.0,96,13.37,67,11.6,297.9,336.9,300.3
917.6,901,17.5,17.0,97,13.38,67,11.6,297.9,336.9,300.3
917.1,905,17.5,17.0,97,13.40,67,11.6,297.9,337.0,300.3
916.6,909,17.5,17.0,97,13.41,67,11.6,297.9,337.0,300.3
916.2,914,17.4,17.0,97,13.41,67,11.6,297.9,337.0,300.3
915.7,918,17.4,17.0,97,13.40,67,11.6,297.9,337.0,300.3
915.2,923,17.3,16.9,97,13.38,67,11.6,297.9,337.0,300.3
914.6,928,17.3,16.9,98,13.37,67,11.6,297.9,336.9,300.3
914.1,933,17.2,16.9,98,13.33,67,11.6,297.9,336.8,300.3
913.6,938,17.2,16.8,97,13.28,67,11.6,297.9,336.6,300.3
913.1,943,17.2,16.8,97,13.26,67,11.6,297.9,336.6,300.3
912.5,948,17.1,16.8,98,13.28,67,11.6,298.0,336.7,300.3
912.0,953,17.1,16.8,98,13.29,67,11.6,298.0,336.7,300.3
911.5,958,17.0,16.7,98,13.27,67,11.6,298.0,336.7,300.3
910.9,963,17.0,16.7,98,13.22,68,11.6,298.0,336.5,300.3
910.4,968,17.0,16.6,98,13.15,68,11.6,298.0,336.4,300.3
909.9,973,16.9,16.5,97,13.11,68,11.6,298.0,336.2,300.3
909.4,977,16.9,16.5,97,13.09,68,11.6,298.0,336.2,300.4
908.9,982,16.9,16.5,98,13.09,68,11.6,298.0,336.2,300.4
908.4,986,16.8,16.5,98,13.11,68,11.6,298.0,336.3,300.4
907.9,991,16.8,16.5,98,13.14,69,11.6,298.0,336.4,300.4
907.4,996,16.7,16.5,99,13.16,69,11.6,298.0,336.4,300.4
906.9,1000,16.7,16.5,99,13.15,69,11.6,298.0,336.4,300.4
906.4,1005,16.7,16.5,99,13.15,69,11.6,298.1,336.4,300.4
905.9,1010,16.6,16.6,99,13.19,70,11.6,298.1,336.6,300.4
905.4,1015,16.6,16.6,100,13.22,70,11.6,298.1,336.7,300.5
904.9,1020,16.6,16.5,100,13.17,70,11.6,298.1,336.5,300.4
904.3,1025,16.5,16.4,99,13.07,71,11.6,298.1,336.2,300.4
903.8,1030,16.5,16.3,99,12.98,71,11.5,298.1,336.0,300.4
903.2,1035,16.4,16.2,98,12.92,71,11.5,298.1,335.8,300.4
902.7,1040,16.4,16.2,98,12.90,72,11.5,298.1,335.8,300.4
902.2,1045,16.4,16.2,99,12.94,72,11.5,298.1,335.9,300.5
901.6,1050,16.3,16.3,100,13.00,72,11.4,298.2,336.1,300.5
901.1,1056,16.3,16.3,100,13.03,72,11.4,298.2,336.2,300.5
900.5,1061,16.3,16.2,100,13.01,73,11.4,298.2,336.2,300.5
900.0,1066,16.2,16.2,100,12.98,73,11.3,298.2,336.1,300.5
899.4,1072,16.2,16.2,100,12.97,73,11.3,298.2,336.1,300.6
898.8,1077,16.2,16.1,100,12.93,73,11.3,298.3,336.1,300.6
898.3,1082,16.2,16.1,100,12.92,73,11.2,298.3,336.0,300.6
897.7,1088,16.1,16.1,100,12.92,73,11.2,298.3,336.1,300.6
897.1,1093,16.1,16.1,100,12.92,73,11.1,298.4,336.1,300.7
896.5,1099,16.1,16.0,100,12.87,73,11.1,298.4,336.0,300.7
896.0,1104,16.0,15.9,99,12.77,73,11.1,298.4,335.7,300.7
895.4,1110,16.0,15.7,98,12.64,73,11.0,298.4,335.4,300.7
894.8,1115,15.9,15.4,97,12.41,73,11.0,298.4,334.6,300.6
894.3,1120,15.8,15.3,96,12.30,73,10.9,298.4,334.3,300.6
893.7,1126,15.9,15.2,96,12.27,73,10.9,298.4,334.3,300.6
893.2,1131,15.8,15.1,96,12.21,73,10.8,298.5,334.2,300.6
892.7,1135,15.8,15.0,95,12.14,72,10.8,298.5,334.0,300.7
892.2,1140,15.8,15.0,95,12.14,72,10.7,298.5,334.1,300.7
891.7,1145,15.8,15.1,96,12.21,72,10.7,298.6,334.3,300.8
891.2,1150,15.8,15.2,96,12.29,71,10.6,298.6,334.6,300.8
890.7,1154,15.8,15.3,97,12.36,71,10.6,298.7,334.8,300.9
890.2,1159,15.8,15.3,97,12.36,71,10.5,298.7,334.9,300.9
889.7,1164,15.8,15.2,97,12.33,71,10.5,298.7,334.8,300.9
889.3,1168,15.8,15.2,96,12.29,70,10.4,298.8,334.8,301.0
888.8,1173,15.7,15.1,96,12.27,70,10.4,298.8,334.7,301.0
888.3,1177,15.7,15.1,96,12.26,70,10.3,298.8,334.7,301.0
887.9,1181,15.7,15.1,97,12.26,70,10.2,298.8,334.7,301.0
887.5,1185,15.6,15.1,97,12.26,70,10.2,298.8,334.7,301.0
887.1,1189,15.6,15.1,97,12.27,70,10.1,298.8,334.8,301.0
886.6,1193,15.6,15.1,97,12.28,70,10.1,298.8,334.8,301.0
886.2,1197,15.6,15.1,97,12.30,70,10.0,298.8,334.9,301.0
885.8,1201,15.5,15.1,98,12.30,70,10.0,298.8,334.9,301.1
885.4,1205,15.5,15.1,98,12.29,70,9.9,298.9,334.9,301.1
884.9,1210,15.5,15.1,98,12.31,70,9.9,298.9,334.9,301.1
884.5,1214,15.5,15.2,98,12.35,70,9.9,298.9,335.1,301.1
884.0,1219,15.4,15.2,99,12.39,70,9.8,298.9,335.2,301.2
883.5,1224,15.4,15.2,99,12.38,70,9.8,298.9,335.2,301.2
883.0,1228,15.4,15.1,98,12.33,71,9.8,299.0,335.1,301.2
882.5,1233,15.3,15.0,98,12.27,71,9.8,299.0,334.9,301.2
882.0,1238,15.3,15.0,98,12.23,71,9.8,299.0,334.8,301.2
881.5,1242,15.3,15.0,98,12.22,71,9.8,299.0,334.9,301.2
881.1,1247,15.3,15.0,98,12.23,71,9.8,299.1,334.9,301.2
880.6,1252,15.3,14.9,98,12.19,72,9.8,299.1,334.9,301.3
880.1,1256,15.3,14.8,97,12.10,72,9.8,299.1,334.6,301.3
879.6,1261,15.2,14.6,96,11.98,72,9.9,299.1,334.3,301.3
879.1,1266,15.2,14.5,95,11.90,72,9.9,299.2,334.1,301.3
878.6,1271,15.2,14.4,95,11.83,72,9.9,299.2,334.0,301.4
878.1,1275,15.2,14.4,95,11.81,72,10.0,299.3,334.0,301.4
877.6,1280,15.3,14.4,94,11.82,72,10.0,299.4,334.1,301.5
877.1,1285,15.3,14.4,95,11.85,72,10.0,299.4,334.3,301.6
876.6,1291,15.3,14.4,95,11.84,72,10.1,299.5,334.3,301.6
876.0,1296,15.2,14.3,94,11.80,73,10.1,299.5,334.2,301.6
875.5,1301,15.2,14.3,94,11.77,73,10.2,299.5,334.1,301.6
875.0,1306,15.1,14.2,94,11.74,73,10.2,299.5,334.0,301.6
874.5,1310,15.1,14.2,94,11.73,73,10.3,299.5,334.0,301.6
874.0,1315,15.1,14.2,95,11.72,73,10.3,299.5,334.0,301.6
873.6,1320,15.0,14.2,95,11.73,73,10.3,299.5,334.0,301.6
873.1,1325,15.0,14.2,95,11.75,73,10.4,299.6,334.1,301.7
872.6,1329,15.0,14.2,95,11.74,73,10.4,299.6,334.1,301.7
872.0,1335,15.0,14.2,95,11.75,74,10.5,299.6,334.2,301.8
871.5,1340,15.0,14.2,95,11.77,74,10.5,299.7,334.3,301.8
870.9,1345,14.9,14.2,96,11.78,74,10.6,299.7,334.4,301.8
870.3,1351,14.9,14.2,96,11.76,74,10.6,299.7,334.3,301.8
869.8,1357,14.8,14.1,96,11.71,75,10.6,299.6,334.1,301.7
869.2,1363,14.7,14.0,96,11.67,75,10.7,299.6,334.0,301.7
868.6,1368,14.7,14.0,96,11.68,75,10.7,299.6,334.0,301.7
868.0,1374,14.6,14.0,97,11.69,76,10.7,299.6,334.0,301.7
867.4,1379,14.5,14.0,97,11.68,76,10.8,299.6,334.0,301.7
866.9,1385,14.5,14.0,97,11.67,76,10.8,299.6,334.0,301.7
866.3,1390,14.5,13.9,96,11.62,77,10.8,299.7,333.9,301.8
865.8,1395,14.5,13.8,96,11.55,77,10.8,299.7,333.7,301.8
865.3,1401,14.5,13.8,96,11.51,77,10.9,299.7,333.7,301.8
864.7,1406,14.4,13.8,96,11.53,78,10.9,299.8,333.7,301.9
864.2,1412,14.4,13.8,96,11.58,78,10.9,299.8,333.9,301.9
863.6,1417,14.4,13.9,97,11.65,78,10.9,299.8,334.1,301.9
863.0,1423,14.3,13.9,98,11.68,79,10.8,299.8,334.2,301.9
862.4,1429,14.2,13.9,98,11.64,79,10.8,299.8,334.1,301.9
861.8,1434,14.2,13.8,97,11.56,79,10.8,299.8,333.9,301.9
861.3,1440,14.1,13.6,97,11.48,79,10.7,299.8,333.6,301.9
860.7,1445,14.1,13.6,97,11.42,80,10.7,299.8,333.5,301.9
860.3,1450,14.1,13.5,97,11.41,80,10.6,299.8,333.4,301.9
859.8,1455,14.0,13.6,97,11.44,80,10.6,299.8,333.5,301.9
859.3,1459,14.0,13.6,98,11.50,80,10.5,299.8,333.7,301.9
858.9,1463,13.9,13.7,98,11.53,80,10.4,299.8,333.8,301.9
858.5,1467,13.9,13.7,99,11.56,80,10.3,299.8,333.9,301.9
858.1,1471,13.9,13.7,99,11.59,80,10.3,299.9,334.0,301.9
857.7,1475,13.8,13.8,99,11.62,80,10.2,299.9,334.1,301.9
857.3,1479,13.8,13.8,100,11.62,80,10.1,299.9,334.1,302.0
856.9,1483,13.8,13.7,100,11.61,80,10.0,299.9,334.1,302.0
856.5,1487,13.8,13.7,100,11.59,80,9.9,299.9,334.0,302.0
856.1,1491,13.7,13.7,100,11.57,80,9.8,299.9,334.0,302.0
855.7,1495,13.7,13.6,99,11.55,80,9.8,299.9,334.0,302.0
855.3,1499,13.7,13.6,99,11.54,80,9.7,300.0,334.0,302.0
854.9,1503,13.7,13.6,99,11.54,80,9.7,300.0,334.0,302.1
854.5,1507,13.7,13.6,99,11.54,80,9.6,300.0,334.0,302.1
854.1,1511,13.7,13.6,99,11.52,80,9.6,300.0,334.0,302.1
853.7,1515,13.6,13.5,99,11.50,80,9.6,300.0,334.0,302.1
853.3,1519,13.6,13.5,99,11.50,80,9.5,300.1,334.0,302.1
852.9,1523,13.6,13.5,100,11.51,80,9.5,300.1,334.0,302.2
852.5,1527,13.6,13.5,100,11.52,80,9.5,300.1,334.1,302.2
852.1,1531,13.6,13.6,100,11.53,80,9.5,300.2,334.2,302.3
851.7,1534,13.6,13.5,99,11.53,80,9.6,300.2,334.3,302.3
851.3,1538,13.6,13.5,99,11.52,80,9.6,300.3,334.3,302.3
850.9,1542,13.6,13.5,99,11.51,80,9.6,300.3,334.2,302.3
850.5,1546,13.6,13.5,100,11.53,80,9.7,300.3,334.3,302.4
850.1,1550,13.6,13.6,100,11.57,80,9.7,300.4,334.5,302.4
850.0,1551,13.6,13.6,100,11.57,80,9.8,300.4,334.5,302.5
849.7,1554,13.6,13.6,100,11.57,80,9.8,300.4,334.6,302.5
849.3,1558,13.6,13.5,100,11.56,80,9.9,300.4,334.6,302.5
848.9,1563,13.6,13.5,100,11.55,80,9.9,300.5,334.6,302.6
848.4,1567,13.6,13.5,99,11.51,80,10.0,300.5,334.5,302.6
848.0,1572,13.5,13.3,99,11.43,80,10.1,300.5,334.3,302.6
847.5,1576,13.4,13.2,98,11.29,80,10.1,300.4,333.8,302.5
847.1,1580,13.4,13.1,98,11.25,80,10.2,300.4,333.7,302.5
846.7,1585,13.4,13.0,98,11.22,81,10.2,300.5,333.6,302.5
846.3,1589,13.3,13.0,98,11.20,81,10.3,300.5,333.6,302.5
845.8,1593,13.3,13.0,98,11.22,81,10.4,300.5,333.7,302.5
845.5,1597,13.3,13.1,99,11.28,81,10.4,300.5,333.9,302.5
845.1,1600,13.3,13.2,99,11.37,80,10.4,300.6,334.2,302.6
844.7,1604,13.3,13.3,99,11.41,80,10.5,300.6,334.4,302.7
844.4,1608,13.4,13.3,100,11.45,80,10.5,300.7,334.6,302.8
844.0,1611,13.4,13.3,100,11.48,80,10.5,300.8,334.7,302.8
843.7,1614,13.4,13.4,100,11.50,80,10.5,300.8,334.8,302.9
843.4,1617,13.4,13.3,100,11.49,80,10.5,300.8,334.8,302.9
843.1,1621,13.4,13.3,100,11.49,80,10.5,300.8,334.8,302.9
842.8,1624,13.3,13.3,100,11.49,80,10.5,300.8,334.8,302.9
842.4,1627,13.3,13.3,100,11.50,80,10.5,300.9,334.9,303.0
842.1,1630,13.3,13.3,100,11.50,80,10.5,300.9,334.9,303.0
841.8,1633,13.3,13.3,100,11.50,80,10.4,300.9,335.0,303.0
841.5,1636,13.3,13.3,100,11.48,80,10.4,300.9,334.9,303.0
841.2,1639,13.3,13.3,100,11.46,80,10.4,300.9,334.9,303.0
840.9,1642,13.3,13.2,100,11.44,80,10.3,300.9,334.8,303.0
840.6,1645,13.3,13.2,100,11.42,80,10.3,301.0,334.8,303.0
840.3,1648,13.2,13.2,100,11.42,80,10.2,301.0,334.8,303.1
