PRES,HGHT,TEMP,DWPT,RELH,MIXR,DRCT,SPED,THTA,THTE,THTV
1013.7,31,20.3,19.3,94,14.05,275,2.5,292.3,332.3,294.8
1013.0,36,21.2,20.0,93,14.66,283,2.1,293.2,335.1,295.8
1012.3,42,21.6,20.2,92,14.90,283,2.1,293.7,336.3,296.3
1011.6,48,22.2,20.4,90,15.09,283,2.2,294.3,337.6,297.0
1011.2,52,22.4,20.3,88,15.00,282,2.3,294.6,337.7,297.3
1010.7,56,22.5,20.1,87,14.85,281,2.3,294.7,337.4,297.3
1010.1,61,22.5,20.1,87,14.86,279,2.4,294.8,337.5,297.4
1009.6,66,22.6,20.2,87,14.92,278,2.4,294.9,337.8,297.5
1009.0,71,22.6,20.2,87,14.95,277,2.5,295.0,338.0,297.6
1008.4,76,22.6,20.2,86,14.97,276,2.5,295.0,338.1,297.7
1007.8,82,22.6,20.2,86,14.97,275,2.5,295.1,338.2,297.8
1007.1,87,22.7,20.2,86,14.98,273,2.4,295.3,338.4,297.9
1006.5,93,22.8,20.2,86,14.99,272,2.4,295.4,338.6,298.0
1005.9,98,22.8,20.2,85,14.96,270,2.4,295.4,338.5,298.1
1005.2,104,22.8,20.2,85,14.99,268,2.3,295.5,338.7,298.2
1004.6,109,22.8,20.2,85,15.00,266,2.3,295.6,338.9,298.2
1004.0,115,22.8,20.1,84,14.88,264,2.2,295.6,338.6,298.3
1003.3,120,22.9,19.9,83,14.75,261,2.1,295.8,338.3,298.4
1002.7,126,23.0,19.8,83,14.68,259,2.0,295.9,338.3,298.5
1002.1,131,22.9,19.8,83,14.63,256,2.0,295.9,338.1,298.5
1001.5,136,22.9,19.7,82,14.58,253,1.9,295.9,338.0,298.5
1000.9,141,22.8,19.6,82,14.52,249,1.8,295.9,337.9,298.5
1000.3,147,22.8,19.6,82,14.50,245,1.8,295.9,337.8,298.5
1000.0,149,22.8,19.6,82,14.50,245,1.8,296.0,337.9,298.5
999.7,152,22.8,19.6,82,14.50,242,1.7,296.0,337.9,298.5
999.1,157,22.8,19.6,82,14.49,238,1.7,296.0,337.9,298.6
998.6,162,22.7,19.5,82,14.43,234,1.7,296.0,337.7,298.6
998.0,167,22.7,19.4,82,14.38,230,1.7,296.0,337.6,298.6
997.4,172,22.7,19.4,82,14.36,227,1.7,296.0,337.6,298.6
996.8,177,22.7,19.4,82,14.39,224,1.7,296.1,337.7,298.6
996.2,183,22.6,19.4,82,14.42,221,1.7,296.1,337.8,298.7
995.6,188,22.6,19.4,82,14.41,219,1.7,296.1,337.8,298.6
994.9,194,22.5,19.3,82,14.29,217,1.7,296.1,337.4,298.6
994.3,199,22.5,19.1,81,14.13,215,1.8,296.2,337.0,298.7
993.7,204,22.6,18.9,80,13.94,214,1.8,296.2,336.6,298.7
993.1,210,22.6,18.7,78,13.75,213,1.8,296.3,336.2,298.8
992.5,215,22.6,18.4,77,13.53,212,1.8,296.4,335.6,298.8
992.0,220,22.7,18.2,75,13.33,212,1.9,296.5,335.2,298.9
991.4,225,22.8,17.9,74,13.16,212,1.9,296.7,334.8,299.0
990.9,229,22.8,17.7,73,12.99,212,1.9,296.8,334.5,299.1
990.3,234,22.8,17.6,72,12.91,212,2.0,296.8,334.3,299.1
989.8,239,22.8,17.6,73,12.93,213,2.0,296.8,334.4,299.1
989.2,244,22.8,17.6,73,12.94,213,2.0,296.8,334.4,299.2
988.6,249,22.7,17.6,73,12.95,214,2.1,296.9,334.5,299.2
988.0,254,22.7,17.7,73,12.98,214,2.1,296.9,334.6,299.2
987.5,260,22.6,17.7,74,13.01,215,2.1,296.8,334.6,299.1
986.9,265,22.6,17.7,74,13.01,216,2.2,296.8,334.6,299.1
986.3,270,22.5,17.7,74,13.02,216,2.2,296.8,334.6,299.1
985.7,275,22.4,17.7,74,13.02,217,2.2,296.8,334.6,299.1
985.1,280,22.4,17.7,75,13.02,217,2.2,296.8,334.6,299.1
984.6,285,22.3,17.7,75,13.01,217,2.3,296.8,334.6,299.1
984.0,290,22.3,17.6,75,13.01,218,2.3,296.8,334.6,299.1
983.5,295,22.3,17.6,75,12.98,218,2.3,296.8,334.5,299.1
982.9,300,22.2,17.5,75,12.90,218,2.3,296.8,334.3,299.1
982.4,304,22.2,17.3,74,12.77,218,2.4,296.9,334.0,299.2
981.9,309,22.2,17.2,73,12.66,218,2.4,296.9,333.7,299.2
981.3,314,22.2,17.1,73,12.58,218,2.4,297.0,333.6,299.2
980.8,319,22.3,17.0,72,12.51,218,2.4,297.1,333.5,299.3
980.3,323,22.3,16.9,72,12.43,218,2.5,297.1,333.2,299.3
979.8,328,22.2,16.8,71,12.34,218,2.5,297.1,333.0,299.3
979.3,332,22.3,16.7,71,12.27,218,2.5,297.2,332.9,299.4
978.7,337,22.3,16.6,70,12.26,218,2.5,297.2,332.9,299.4
978.2,341,22.3,16.6,70,12.25,217,2.6,297.3,333.0,299.5
977.7,346,22.3,16.6,70,12.22,217,2.6,297.3,332.9,299.5
977.2,351,22.3,16.5,70,12.17,217,2.6,297.4,332.9,299.5
976.6,356,22.3,16.4,69,12.11,217,2.6,297.4,332.7,299.6
976.1,361,22.3,16.3,69,12.05,216,2.6,297.5,332.6,299.6
975.5,366,22.2,16.3,69,12.03,216,2.6,297.5,332.6,299.6
974.9,371,22.2,16.3,69,12.02,216,2.7,297.5,332.6,299.6
974.4,376,22.2,16.3,69,12.02,216,2.7,297.5,332.6,299.6
973.8,381,22.1,16.3,69,12.02,216,2.7,297.5,332.6,299.7
973.2,386,22.1,16.2,69,12.01,216,2.7,297.5,332.6,299.7
972.7,391,22.0,16.2,69,11.99,216,2.7,297.5,332.5,299.7
972.2,396,22.0,16.2,69,11.96,216,2.7,297.5,332.4,299.7
971.6,400,22.0,16.1,69,11.95,216,2.7,297.5,332.4,299.7
971.1,405,21.9,16.1,69,11.92,216,2.7,297.6,332.4,299.7
970.6,410,21.9,16.1,69,11.90,216,2.7,297.6,332.3,299.7
970.0,415,21.9,16.0,69,11.89,216,2.7,297.6,332.3,299.7
969.5,419,21.9,16.0,69,11.88,216,2.7,297.6,332.3,299.7
969.0,424,21.8,16.0,69,11.87,217,2.7,297.6,332.3,299.8
968.4,429,21.8,16.0,69,11.85,217,2.7,297.7,332.3,299.8
967.9,434,21.8,15.9,70,11.85,217,2.7,297.7,332.3,299.8
967.3,439,21.7,15.9,70,11.85,218,2.7,297.7,332.3,299.8
966.8,444,21.7,15.9,70,11.84,218,2.7,297.7,332.2,299.8
966.2,449,21.6,15.9,70,11.83,218,2.7,297.7,332.2,299.8
965.7,454,21.6,15.9,70,11.83,219,2.7,297.7,332.2,299.8
965.1,459,21.5,15.9,70,11.83,219,2.7,297.7,332.2,299.8
964.6,464,21.5,15.8,70,11.82,219,2.7,297.7,332.2,299.8
964.0,469,21.4,15.8,70,11.81,220,2.7,297.7,332.2,299.8
963.5,474,21.4,15.8,71,11.81,220,2.7,297.7,332.2,299.8
962.9,479,21.4,15.8,71,11.81,220,2.7,297.7,332.2,299.8
962.4,484,21.3,15.8,71,11.79,221,2.7,297.7,332.1,299.8
961.8,489,21.3,15.7,71,11.77,221,2.7,297.7,332.1,299.8
961.3,493,21.2,15.7,71,11.75,221,2.6,297.7,332.0,299.8
960.7,498,21.2,15.7,71,11.73,222,2.6,297.7,332.0,299.8
960.2,503,21.2,15.7,71,11.73,222,2.6,297.7,332.0,299.8
959.7,508,21.1,15.6,71,11.71,222,2.6,297.7,331.9,299.8
959.1,513,21.1,15.6,71,11.68,222,2.5,297.8,331.9,299.8
958.6,518,21.0,15.5,71,11.65,223,2.5,297.8,331.8,299.8
958.0,523,21.0,15.5,71,11.62,223,2.5,297.8,331.8,299.9
957.5,528,21.0,15.5,71,11.61,223,2.4,297.8,331.8,299.9
956.9,533,21.0,15.5,71,11.64,223,2.4,297.8,331.8,299.9
956.4,538,20.9,15.5,71,11.65,223,2.4,297.8,331.9,299.9
955.8,543,20.9,15.5,71,11.64,222,2.3,297.8,331.8,299.9
955.3,548,20.8,15.4,71,11.62,222,2.3,297.8,331.8,299.9
954.8,552,20.8,15.4,71,11.59,222,2.2,297.8,331.7,299.9
954.2,557,20.7,15.4,71,11.59,222,2.2,297.8,331.7,299.9
953.7,562,20.7,15.4,72,11.60,222,2.1,297.8,331.8,299.9
953.2,567,20.7,15.4,72,11.61,221,2.1,297.9,331.8,299.9
952.7,571,20.6,15.4,72,11.64,221,2.0,297.8,331.9,299.9
952.1,576,20.6,15.4,72,11.64,221,2.0,297.8,331.9,299.9
951.6,581,20.5,15.4,72,11.63,221,2.0,297.8,331.8,299.9
951.0,586,20.5,15.4,72,11.61,220,1.9,297.9,331.8,299.9
950.5,591,20.4,15.3,73,11.61,220,1.9,297.8,331.8,299.9
950.0,596,20.4,15.3,73,11.60,220,1.9,297.9,331.8,299.9
949.4,601,20.3,15.3,73,11.60,220,1.8,297.9,331.8,299.9
948.8,606,20.3,15.3,73,11.60,220,1.8,297.9,331.8,300.0
948.3,611,20.3,15.3,73,11.58,220,1.8,297.9,331.7,300.0
947.7,617,20.2,15.2,73,11.55,220,1.8,297.9,331.7,300.0
947.1,622,20.2,15.2,73,11.52,220,1.8,297.9,331.6,300.0
946.6,627,20.1,15.1,73,11.50,220,1.8,297.9,331.5,300.0
946.0,632,20.1,15.1,73,11.51,221,1.8,297.9,331.6,300.0
945.4,638,20.1,15.2,73,11.55,222,1.8,298.0,331.7,300.0
944.8,643,20.0,15.2,74,11.58,222,1.7,298.0,331.8,300.0
944.3,648,20.0,15.2,74,11.57,223,1.7,297.9,331.8,300.0
943.7,653,19.9,15.2,74,11.55,224,1.8,298.0,331.7,300.0
943.1,659,19.9,15.1,74,11.53,225,1.8,298.0,331.7,300.0
942.5,664,19.8,15.1,74,11.52,226,1.8,298.0,331.6,300.0
942.0,669,19.8,15.1,74,11.53,227,1.8,298.0,331.7,300.0
941.4,674,19.7,15.1,75,11.55,228,1.8,298.0,331.7,300.0
940.9,679,19.7,15.1,75,11.55,229,1.8,298.0,331.7,300.0
940.3,684,19.6,15.1,75,11.55,230,1.8,298.0,331.7,300.0
939.8,689,19.6,15.1,75,11.54,231,1.8,297.9,331.7,300.0
939.2,694,19.5,15.0,75,11.52,232,1.9,298.0,331.7,300.0
938.7,699,19.5,15.0,75,11.51,233,1.9,298.0,331.6,300.0
938.2,704,19.4,15.0,76,11.52,234,1.9,298.0,331.7,300.0
937.7,709,19.4,15.0,76,11.52,235,1.9,298.0,331.7,300.0
937.1,713,19.4,15.0,76,11.51,236,2.0,298.0,331.6,300.0
936.6,718,19.3,15.0,76,11.50,236,2.0,298.0,331.6,300.0
936.1,723,19.3,15.0,76,11.49,237,2.0,298.0,331.6,300.0
935.6,727,19.2,14.9,76,11.48,238,2.0,298.0,331.5,300.0
935.1,732,19.2,14.9,76,11.47,238,2.1,298.0,331.5,300.0
934.6,737,19.1,14.9,77,11.47,239,2.1,298.0,331.5,300.0
934.1,741,19.1,14.9,77,11.47,239,2.1,298.0,331.5,300.0
933.6,746,19.0,14.9,77,11.49,239,2.2,298.0,331.6,300.0
933.1,751,19.0,14.9,77,11.50,240,2.2,298.0,331.6,300.0
932.5,756,18.9,14.9,77,11.52,240,2.2,298.0,331.7,300.0
932.0,761,18.9,14.9,78,11.53,240,2.3,298.0,331.7,300.0
931.5,766,18.9,14.9,78,11.52,241,2.3,298.0,331.7,300.0
930.9,771,18.8,14.9,78,11.51,241,2.3,298.0,331.6,300.0
930.4,776,18.8,14.9,78,11.49,241,2.4,298.0,331.6,300.0
929.8,781,18.7,14.9,78,11.50,241,2.4,298.0,331.6,300.1
929.2,787,18.7,14.9,79,11.51,242,2.4,298.0,331.6,300.0
928.6,792,18.6,14.8,79,11.50,242,2.5,298.0,331.6,300.0
928.1,797,18.5,14.8,79,11.48,242,2.5,298.0,331.6,300.0
927.5,802,18.5,14.8,79,11.47,243,2.5,298.0,331.5,300.0
927.0,807,18.5,14.8,79,11.49,243,2.6,298.0,331.6,300.0
926.5,812,18.4,14.8,80,11.51,243,2.6,298.0,331.6,300.1
926.0,817,18.4,14.8,80,11.53,243,2.7,298.0,331.7,300.0
925.5,821,18.3,14.9,80,11.57,243,2.7,298.0,331.8,300.1
925.0,826,18.3,14.9,81,11.60,243,2.7,298.0,331.9,300.1
924.5,830,18.2,14.9,81,11.62,243,2.8,298.0,332.0,300.1
924.0,835,18.2,14.9,81,11.60,243,2.8,298.0,331.9,300.1
923.4,840,18.2,14.9,81,11.59,243,2.8,298.0,331.9,300.1
922.9,845,18.1,14.8,81,11.57,242,2.8,298.0,331.9,300.1
922.4,850,18.1,14.8,81,11.54,242,2.9,298.0,331.8,300.1
921.8,855,18.1,14.7,81,11.52,241,2.9,298.1,331.7,300.1
921.2,861,18.0,14.7,81,11.49,241,2.9,298.0,331.6,300.1
920.7,866,17.9,14.7,81,11.47,240,3.0,298.0,331.6,300.1
920.1,871,17.9,14.6,81,11.46,239,3.0,298.1,331.6,300.1
919.6,876,17.9,14.6,81,11.47,238,3.0,298.1,331.6,300.1
919.0,881,17.8,14.6,82,11.48,237,3.1,298.1,331.7,300.1
918.5,886,17.8,14.6,82,11.48,237,3.1,298.1,331.7,300.1
918.0,891,17.7,14.6,82,11.48,236,3.1,298.1,331.7,300.1
917.5,895,17.7,14.6,82,11.46,235,3.2,298.1,331.6,300.1
917.0,900,17.7,14.6,82,11.46,233,3.2,298.1,331.6,300.1
916.6,904,17.6,14.6,82,11.44,232,3.2,298.1,331.6,300.1
916.1,909,17.6,14.5,82,11.43,231,3.3,298.1,331.5,300.1
915.6,913,17.5,14.5,83,11.44,230,3.3,298.1,331.6,300.1
915.1,918,17.5,14.5,83,11.45,229,3.3,298.1,331.6,300.1
914.6,923,17.4,14.5,83,11.46,228,3.4,298.1,331.6,300.1
914.1,927,17.4,14.5,83,11.46,228,3.4,298.1,331.6,300.2
913.6,932,17.4,14.5,83,11.45,227,3.4,298.1,331.6,300.2
913.1,937,17.3,14.5,83,11.44,226,3.4,298.1,331.6,300.2
912.6,942,17.3,14.5,83,11.43,225,3.5,298.1,331.6,300.2
912.1,946,17.3,14.5,84,11.42,225,3.5,298.1,331.6,300.2
911.6,951,17.2,14.4,84,11.38,224,3.5,298.1,331.4,300.2
911.1,955,17.2,14.4,84,11.36,223,3.5,298.1,331.4,300.2
910.6,960,17.1,14.4,84,11.36,223,3.6,298.1,331.4,300.2
910.1,965,17.1,14.4,84,11.39,222,3.6,298.1,331.5,300.2
909.6,969,17.0,14.4,84,11.41,222,3.6,298.1,331.5,300.2
909.1,974,17.0,14.4,85,11.44,222,3.6,298.1,331.6,300.2
908.6,979,17.0,14.4,85,11.46,221,3.7,298.2,331.7,300.2
908.0,984,16.9,14.4,85,11.47,221,3.7,298.2,331.7,300.2
907.5,989,16.9,14.4,86,11.46,220,3.7,298.2,331.7,300.2
906.9,995,16.8,14.4,86,11.45,220,3.7,298.1,331.7,300.2
906.3,1000,16.7,14.3,86,11.41,219,3.8,298.2,331.6,300.2
905.8,1006,16.7,14.3,86,11.38,219,3.8,298.2,331.5,300.2
905.2,1011,16.7,14.3,86,11.39,219,3.9,298.2,331.5,300.2
904.6,1016,16.6,14.3,86,11.40,218,3.9,298.2,331.5,300.2
904.1,1021,16.5,14.3,87,11.41,218,4.0,298.2,331.5,300.2
903.5,1027,16.5,14.3,87,11.40,218,4.0,298.2,331.6,300.2
903.0,1032,16.5,14.3,87,11.41,217,4.1,298.2,331.6,300.2
902.5,1037,16.4,14.3,87,11.42,217,4.1,298.2,331.6,300.2
902.0,1041,16.4,14.3,88,11.44,217,4.2,298.2,331.7,300.2
901.4,1046,16.3,14.3,88,11.45,217,4.2,298.2,331.7,300.2
900.9,1052,16.3,14.3,88,11.45,217,4.3,298.2,331.7,300.2
900.3,1057,16.2,14.3,88,11.45,216,4.4,298.2,331.7,300.3
899.8,1062,16.2,14.3,88,11.44,216,4.4,298.2,331.7,300.2
899.2,1067,16.1,14.2,88,11.40,216,4.5,298.2,331.5,300.2
898.6,1073,16.1,14.2,88,11.37,216,4.6,298.2,331.5,300.2
898.1,1078,16.0,14.1,89,11.37,216,4.6,298.2,331.5,300.2
897.5,1084,16.0,14.2,89,11.40,217,4.7,298.2,331.6,300.2
896.9,1089,15.9,14.2,89,11.41,217,4.8,298.2,331.6,300.2
896.4,1095,15.9,14.2,90,11.40,217,4.8,298.2,331.6,300.2
895.8,1100,15.8,14.1,90,11.38,217,4.9,298.2,331.5,300.2
895.2,1106,15.8,14.1,90,11.38,217,4.9,298.2,331.5,300.2
894.6,1111,15.7,14.1,90,11.40,217,5.0,298.2,331.6,300.3
894.0,1117,15.7,14.1,90,11.41,218,5.1,298.2,331.6,300.3
893.4,1123,15.6,14.1,91,11.41,218,5.1,298.2,331.6,300.3
892.8,1129,15.6,14.1,91,11.38,218,5.2,298.2,331.5,300.2
892.1,1135,15.5,14.1,91,11.38,218,5.2,298.2,331.5,300.3
891.5,1141,15.4,14.1,91,11.39,218,5.3,298.2,331.5,300.3
890.8,1147,15.4,14.0,91,11.36,218,5.3,298.2,331.5,300.3
890.2,1153,15.3,14.0,91,11.33,218,5.4,298.2,331.4,300.3
889.6,1159,15.3,13.9,92,11.32,218,5.4,298.3,331.4,300.3
889.0,1164,15.2,13.9,92,11.32,218,5.4,298.2,331.4,300.3
888.5,1170,15.2,13.9,92,11.30,218,5.5,298.2,331.3,300.2
887.9,1175,15.1,13.8,92,11.27,217,5.5,298.2,331.2,300.3
887.4,1180,15.1,13.8,92,11.27,217,5.6,298.2,331.2,300.3
886.8,1185,15.1,13.8,92,11.28,217,5.6,298.3,331.3,300.3
886.3,1191,15.0,13.8,93,11.29,216,5.7,298.3,331.3,300.3
885.8,1196,14.9,13.8,93,11.27,216,5.7,298.2,331.2,300.3
885.2,1201,14.9,13.8,93,11.24,215,5.7,298.3,331.2,300.3
884.7,1206,14.9,13.7,93,11.23,214,5.8,298.3,331.2,300.3
884.2,1211,14.8,13.7,93,11.23,214,5.8,298.3,331.2,300.3
883.7,1216,14.8,13.7,93,11.21,213,5.8,298.3,331.1,300.3
883.2,1221,14.8,13.7,93,11.20,212,5.8,298.3,331.2,300.4
882.6,1226,14.7,13.6,93,11.17,212,5.9,298.3,331.1,300.3
882.1,1231,14.7,13.6,93,11.14,211,5.9,298.4,331.0,300.4
881.6,1236,14.7,13.6,93,11.15,210,5.9,298.4,331.1,300.4
881.1,1241,14.7,13.6,93,11.15,210,5.9,298.4,331.1,300.4
880.5,1246,14.6,13.6,93,11.16,209,5.9,298.4,331.1,300.4
880.0,1251,14.6,13.6,94,11.17,209,6.0,298.4,331.1,300.4
879.5,1256,14.5,13.5,94,11.16,208,6.0,298.4,331.1,300.4
879.0,1261,14.5,13.5,94,11.14,208,6.0,298.5,331.1,300.5
878.4,1266,14.5,13.5,94,11.12,207,6.0,298.5,331.1,300.5
877.9,1271,14.5,13.4,93,11.07,207,6.0,298.5,331.0,300.5
877.4,1276,14.4,13.3,93,11.03,207,6.0,298.5,330.9,300.5
876.9,1281,14.4,13.3,93,11.00,207,6.0,298.6,330.8,300.5
876.4,1286,14.4,13.3,93,10.99,206,6.0,298.6,330.8,300.5
875.9,1291,14.3,13.2,93,10.97,206,6.0,298.6,330.8,300.6
875.4,1295,14.3,13.2,93,10.96,206,6.0,298.6,330.8,300.6
874.9,1300,14.3,13.2,93,10.98,206,6.0,298.6,330.8,300.6
874.4,1305,14.2,13.3,94,11.01,206,6.0,298.6,330.9,300.6
873.9,1310,14.2,13.3,94,11.02,206,6.0,298.6,330.9,300.6
873.4,1315,14.1,13.2,94,11.02,207,6.0,298.6,330.9,300.6
872.9,1320,14.1,13.2,95,11.01,207,6.0,298.6,330.9,300.6
872.4,1324,14.0,13.2,95,10.99,207,6.0,298.6,330.8,300.6
871.9,1329,14.0,13.2,95,10.98,207,6.0,298.6,330.8,300.6
871.5,1334,14.0,13.1,95,10.97,207,6.0,298.6,330.8,300.6
871.0,1339,13.9,13.1,95,10.97,208,6.0,298.6,330.8,300.6
870.4,1344,13.9,13.1,95,10.95,208,5.9,298.6,330.8,300.6
869.9,1349,13.8,13.1,95,10.94,208,5.9,298.6,330.7,300.6
869.3,1354,13.8,13.1,95,10.94,208,5.9,298.6,330.7,300.6
868.8,1360,13.7,13.0,96,10.93,208,5.9,298.6,330.7,300.6
868.2,1366,13.7,13.0,96,10.92,208,5.8,298.6,330.7,300.6
867.6,1371,13.6,13.0,96,10.88,208,5.8,298.6,330.6,300.6
867.0,1377,13.6,12.9,96,10.86,208,5.7,298.6,330.5,300.6
866.4,1383,13.5,12.9,96,10.85,208,5.7,298.6,330.5,300.6
865.8,1389,13.5,12.8,96,10.82,208,5.6,298.6,330.4,300.6
865.2,1394,13.4,12.8,96,10.77,208,5.6,298.7,330.3,300.6
864.7,1400,13.4,12.7,95,10.71,208,5.5,298.7,330.1,300.6
864.1,1405,13.3,12.6,95,10.65,207,5.5,298.7,330.0,300.6
863.5,1411,13.3,12.5,95,10.62,207,5.4,298.7,329.9,300.6
863.0,1416,13.3,12.5,95,10.60,206,5.4,298.7,329.9,300.6
862.4,1422,13.2,12.4,95,10.57,206,5.3,298.7,329.8,300.6
861.8,1428,13.2,12.4,95,10.55,205,5.3,298.8,329.8,300.7
861.3,1433,13.1,12.3,95,10.50,204,5.2,298.8,329.6,300.6
860.7,1439,13.1,12.2,95,10.46,203,5.2,298.8,329.5,300.7
860.1,1444,13.1,12.2,95,10.44,202,5.2,298.8,329.5,300.7
859.5,1450,13.0,12.2,95,10.44,201,5.1,298.8,329.5,300.7
859.0,1455,13.0,12.2,95,10.44,200,5.1,298.8,329.5,300.7
858.4,1461,12.9,12.1,95,10.41,199,5.1,298.8,329.4,300.7
857.9,1466,12.9,12.1,95,10.38,198,5.1,298.8,329.3,300.7
857.3,1472,12.8,12.1,95,10.37,197,5.1,298.8,329.3,300.7
856.8,1477,12.8,12.1,95,10.38,196,5.1,298.8,329.4,300.7
856.3,1482,12.7,12.1,96,10.38,195,5.1,298.8,329.4,300.7
855.7,1487,12.7,12.0,96,10.38,193,5.1,298.9,329.4,300.7
855.2,1493,12.7,12.0,96,10.36,192,5.2,298.9,329.3,300.7
854.6,1499,12.6,11.9,96,10.33,191,5.2,298.9,329.3,300.7
854.0,1504,12.6,11.9,95,10.28,190,5.2,298.9,329.1,300.7
853.4,1510,12.5,11.8,95,10.21,189,5.3,298.9,329.0,300.8
852.8,1517,12.5,11.6,94,10.14,188,5.3,298.9,328.8,300.8
852.1,1523,12.5,11.5,94,10.06,188,5.4,299.0,328.6,300.8
851.5,1529,12.4,11.4,93,9.98,187,5.4,299.0,328.4,300.8
850.9,1535,12.4,11.3,93,9.93,186,5.5,299.0,328.3,300.8
850.3,1542,12.4,11.3,93,9.92,186,5.5,299.0,328.3,300.8
850.0,1544,12.3,11.3,93,9.94,185,5.5,299.0,328.3,300.8
849.6,1548,12.3,11.3,94,9.97,185,5.5,299.1,328.4,300.9
849.0,1554,12.3,11.4,94,10.01,185,5.6,299.1,328.6,300.9
848.4,1560,12.2,11.4,95,10.03,185,5.6,299.1,328.6,300.9
847.7,1566,12.1,11.4,95,10.04,184,5.7,299.1,328.7,300.9
847.1,1572,12.1,11.4,96,10.04,184,5.7,299.1,328.7,300.9
846.5,1578,12.0,11.4,96,10.04,184,5.7,299.1,328.7,300.9
846.0,1584,12.0,11.4,96,10.06,184,5.7,299.1,328.7,300.9
845.4,1589,11.9,11.4,97,10.09,184,5.8,299.1,328.8,300.9
844.9,1595,11.9,11.5,97,10.12,184,5.8,299.1,328.9,300.9
844.3,1600,11.8,11.5,98,10.14,184,5.8,299.1,329.0,300.9
843.8,1606,11.8,11.5,98,10.14,185,5.8,299.1,329.0,300.9
843.2,1611,11.8,11.4,98,10.12,185,5.8,299.1,328.9,300.9
842.7,1617,11.7,11.3,98,10.06,185,5.8,299.1,328.8,301.0
842.1,1622,11.7,11.2,97,9.96,186,5.8,299.2,328.5,301.0
841.6,1627,11.7,11.0,96,9.87,186,5.8,299.2,328.3,301.0
841.1,1632,11.7,11.0,96,9.84,186,5.9,299.2,328.3,301.0
840.6,1637,11.6,11.0,96,9.86,187,5.9,299.3,328.3,301.0
840.1,1642,11.6,11.0,96,9.88,187,5.9,299.3,328.4,301.1
839.7,1647,11.5,11.0,97,9.89,188,5.9,299.3,328.4,301.0
839.2,1651,11.5,11.0,97,9.90,188,5.9,299.3,328.5,301.1
838.7,1656,11.5,11.0,97,9.88,189,6.0,299.3,328.5,301.1
838.3,1661,11.5,11.0,97,9.87,189,6.0,299.3,328.4,301.1
837.8,1666,11.4,11.0,97,9.86,190,6.0,299.3,328.4,301.1
837.3,1670,11.4,10.9,97,9.84,190,6.1,299.3,328.4,301.1
836.8,1675,11.4,10.8,97,9.80,191,6.1,299.4,328.3,301.1
836.3,1680,11.3,10.8,96,9.75,191,6.2,299.4,328.2,301.1
835.8,1686,11.3,10.7,96,9.71,192,6.2,299.4,328.0,301.1
835.3,1691,11.3,10.6,96,9.64,193,6.3,299.4,327.9,301.1
834.7,1696,11.2,10.4,95,9.55,193,6.4,299.4,327.6,301.2
834.2,1701,11.2,10.3,94,9.48,194,6.5,299.5,327.5,301.2
833.7,1707,11.2,10.3,94,9.45,194,6.5,299.5,327.4,301.2
833.1,1712,11.2,10.2,94,9.42,195,6.6,299.5,327.4,301.2
832.6,1718,11.1,10.2,94,9.40,195,6.7,299.6,327.4,301.3
832.0,1723,11.1,10.1,93,9.36,196,6.8,299.6,327.3,301.3
831.4,1729,11.1,9.9,92,9.27,196,6.9,299.7,327.1,301.3
830.8,1735,11.1,9.6,90,9.05,197,7.0,299.7,326.6,301.4
830.2,1742,11.2,8.9,86,8.65,197,7.1,299.9,325.5,301.4
829.5,1748,11.3,8.1,80,8.17,197,7.2,300.0,324.4,301.5
828.9,1755,11.4,7.2,75,7.71,198,7.3,300.3,323.3,301.7
828.2,1761,11.6,6.5,71,7.34,198,7.3,300.5,322.4,301.8
827.6,1768,11.6,6.1,69,7.16,198,7.4,300.6,322.0,301.9
827.0,1774,11.6,5.9,68,7.05,198,7.5,300.7,321.8,302.0
826.4,1780,11.7,5.6,66,6.92,198,7.6,300.8,321.6,302.1
825.8,1786,11.8,5.3,64,6.78,198,7.7,301.0,321.4,302.2
825.3,1791,11.8,5.0,63,6.62,199,7.7,301.1,321.0,302.3
824.7,1797,11.9,4.7,62,6.52,199,7.8,301.2,320.8,302.3
824.2,1803,11.9,4.7,61,6.49,198,7.9,301.2,320.8,302.4
823.6,1808,11.9,4.7,61,6.50,198,7.9,301.3,320.9,302.4
823.1,1814,11.8,4.7,62,6.53,198,8.0,301.3,321.0,302.5
822.5,1820,11.8,4.7,62,6.54,198,8.0,301.3,321.0,302.5
821.9,1826,11.7,4.7,62,6.53,198,8.0,301.3,321.0,302.5
821.3,1832,11.7,4.6,62,6.48,198,8.1,301.3,320.9,302.5
820.7,1838,11.7,4.4,61,6.41,197,8.1,301.4,320.7,302.5
820.0,1845,11.7,4.3,60,6.35,197,8.1,301.4,320.6,302.6
819.4,1851,11.6,4.1,60,6.30,197,8.1,301.5,320.5,302.6
818.9,1857,11.6,4.1,60,6.28,197,8.2,301.5,320.5,302.6
818.3,1862,11.6,4.1,60,6.30,196,8.2,301.5,320.6,302.7
817.8,1867,11.5,4.2,61,6.35,196,8.2,301.5,320.7,302.7
817.3,1872,11.5,4.4,62,6.43,196,8.2,301.6,321.0,302.7
816.9,1877,11.5,4.5,62,6.48,195,8.2,301.6,321.1,302.8
816.4,1882,11.5,4.5,62,6.49,195,8.2,301.6,321.2,302.8
