PRES,HGHT,TEMP,DWPT,RELH,MIXR,DRCT,SPED,THTA,THTE,THTV
1016.2,31,25.4,21.1,77,15.68,99,4.8,297.2,342.7,300.0
1015.5,36,25.0,21.7,82,16.29,104,3.5,296.9,344.1,299.7
1015.0,41,24.7,21.4,82,15.97,107,3.2,296.6,342.8,299.4
1014.2,48,24.3,21.1,82,15.75,107,3.2,296.3,341.8,299.1
1013.7,52,24.0,21.0,83,15.59,107,3.3,296.0,341.1,298.8
1013.1,58,23.9,21.0,84,15.60,107,3.6,296.0,341.0,298.7
1012.3,65,23.9,21.0,84,15.66,107,3.7,296.1,341.3,298.8
1011.7,69,24.0,20.9,83,15.56,106,3.9,296.1,341.1,298.9
1011.1,74,24.0,20.8,83,15.50,106,4.0,296.2,341.0,298.9
1010.5,80,23.9,20.8,82,15.44,106,4.2,296.2,340.8,298.9
1009.9,85,23.8,20.5,82,15.24,106,4.3,296.1,340.1,298.8
1009.4,90,23.6,20.4,82,15.08,105,4.4,296.0,339.5,298.6
1008.8,95,23.5,20.3,82,15.06,105,4.4,295.9,339.5,298.6
1008.2,100,23.5,20.3,82,15.07,105,4.5,295.9,339.5,298.6
1007.7,105,23.4,20.3,83,15.08,105,4.6,295.9,339.5,298.6
1007.1,109,23.4,20.3,83,15.10,104,4.6,295.9,339.6,298.6
1006.5,114,23.3,20.4,84,15.15,104,4.6,295.9,339.7,298.6
1005.9,120,23.3,20.5,84,15.22,104,4.7,295.9,339.9,298.6
1005.4,125,23.2,20.4,84,15.19,103,4.7,295.9,339.8,298.6
1004.8,130,23.2,20.3,84,15.11,103,4.7,295.9,339.6,298.6
1004.2,135,23.1,20.3,84,15.06,103,4.7,295.9,339.4,298.6
1003.6,140,23.1,20.2,84,15.01,102,4.7,295.9,339.3,298.6
1003.0,146,23.0,20.2,84,15.02,102,4.7,295.9,339.3,298.6
1002.4,151,23.0,20.2,84,15.04,102,4.7,295.9,339.3,298.6
1001.8,156,22.9,20.2,85,15.04,101,4.6,295.9,339.3,298.6
1001.2,161,22.9,20.2,85,15.08,101,4.6,295.9,339.5,298.6
1000.7,166,22.8,20.3,85,15.13,101,4.6,295.9,339.6,298.6
1000.1,170,22.8,20.3,86,15.16,100,4.6,295.9,339.7,298.6
1000.0,171,22.8,20.3,86,15.17,100,4.6,295.9,339.7,298.6
999.5,175,22.7,20.3,86,15.19,100,4.6,295.9,339.8,298.6
999.0,180,22.7,20.3,86,15.18,100,4.6,295.9,339.8,298.6
998.4,186,22.7,20.2,86,15.14,99,4.6,295.9,339.7,298.6
997.8,191,22.6,20.2,87,15.14,99,4.6,295.9,339.6,298.6
997.2,196,22.5,20.2,87,15.14,99,4.6,295.9,339.7,298.6
996.6,201,22.5,20.2,87,15.14,99,4.6,295.9,339.7,298.6
996.0,206,22.5,20.2,87,15.14,98,4.6,295.9,339.7,298.6
995.4,211,22.4,20.2,87,15.14,98,4.6,295.9,339.7,298.6
994.8,217,22.4,20.2,87,15.11,98,4.6,296.0,339.6,298.6
994.2,222,22.3,20.1,87,15.07,98,4.6,296.0,339.5,298.6
993.6,227,22.3,20.1,87,15.06,98,4.6,296.0,339.5,298.6
993.0,233,22.2,20.1,88,15.06,97,4.6,296.0,339.5,298.6
992.4,238,22.2,20.1,88,15.06,97,4.6,296.0,339.5,298.6
991.7,244,22.1,20.1,88,15.08,97,4.6,296.0,339.5,298.6
991.1,250,22.1,20.1,88,15.07,97,4.6,296.0,339.5,298.6
990.4,256,22.0,20.0,89,15.07,97,4.7,296.0,339.5,298.6
989.7,261,22.0,20.1,89,15.11,97,4.7,296.0,339.6,298.7
989.1,267,21.9,20.1,89,15.12,97,4.7,296.0,339.6,298.6
988.4,273,21.8,20.0,90,15.09,97,4.7,296.0,339.6,298.6
987.7,279,21.8,20.0,90,15.09,97,4.7,296.0,339.6,298.6
987.1,285,21.7,20.1,90,15.14,97,4.7,296.0,339.7,298.6
986.4,291,21.7,20.1,91,15.14,97,4.7,296.0,339.7,298.6
985.8,296,21.6,20.0,91,15.08,97,4.7,295.9,339.5,298.6
985.2,302,21.5,20.0,91,15.06,97,4.7,295.9,339.5,298.6
984.6,307,21.5,20.0,91,15.07,97,4.7,295.9,339.5,298.6
984.0,312,21.4,19.9,91,15.06,97,4.7,295.9,339.4,298.6
983.4,318,21.4,19.9,91,15.03,97,4.7,295.9,339.4,298.6
982.8,323,21.3,19.9,91,15.02,97,4.7,295.9,339.3,298.6
982.2,328,21.3,19.8,91,15.01,97,4.7,296.0,339.3,298.6
981.7,333,21.3,19.8,92,15.01,97,4.6,296.0,339.3,298.6
981.1,338,21.2,19.9,92,15.03,97,4.6,296.0,339.4,298.6
980.5,343,21.2,19.8,92,15.03,97,4.6,296.0,339.4,298.7
980.0,348,21.1,19.8,92,15.01,97,4.6,296.0,339.4,298.7
979.4,352,21.1,19.8,92,15.01,97,4.6,296.0,339.4,298.7
978.9,357,21.1,19.8,93,15.02,97,4.6,296.0,339.4,298.7
978.4,362,21.0,19.8,93,15.03,97,4.6,296.0,339.4,298.7
977.8,367,21.0,19.8,93,15.02,97,4.6,296.0,339.4,298.7
977.3,372,20.9,19.8,93,15.01,97,4.6,296.0,339.3,298.6
976.7,377,20.9,19.8,93,15.02,97,4.6,296.0,339.4,298.6
976.1,382,20.8,19.8,94,15.03,97,4.5,296.0,339.4,298.7
975.6,387,20.8,19.8,94,15.03,97,4.5,296.0,339.4,298.6
975.0,392,20.7,19.8,94,15.04,97,4.5,296.0,339.4,298.6
974.4,397,20.7,19.8,95,15.07,97,4.5,296.0,339.5,298.7
973.8,403,20.6,19.8,95,15.12,97,4.6,296.0,339.6,298.7
973.2,408,20.5,19.8,96,15.13,97,4.6,296.0,339.7,298.6
972.6,413,20.5,19.8,96,15.09,97,4.6,296.0,339.6,298.6
972.0,418,20.4,19.7,96,15.02,97,4.6,296.0,339.4,298.6
971.5,424,20.4,19.7,96,14.99,97,4.6,296.0,339.3,298.6
970.9,429,20.3,19.7,96,15.01,97,4.6,296.0,339.3,298.6
970.3,434,20.3,19.7,96,15.04,97,4.7,296.0,339.4,298.6
969.7,439,20.2,19.7,97,15.08,97,4.7,296.0,339.5,298.7
969.2,444,20.2,19.7,97,15.09,98,4.7,296.0,339.5,298.6
968.6,449,20.2,19.7,97,15.07,98,4.8,296.0,339.5,298.7
968.0,454,20.1,19.6,97,15.04,98,4.8,296.0,339.4,298.7
967.5,459,20.1,19.6,97,15.02,98,4.8,296.0,339.4,298.7
966.9,464,20.0,19.6,97,15.02,98,4.9,296.0,339.4,298.7
966.3,469,20.0,19.6,98,15.02,99,4.9,296.0,339.4,298.7
965.8,474,19.9,19.6,98,15.02,99,4.9,296.0,339.4,298.7
965.2,480,19.9,19.6,98,15.03,99,5.0,296.0,339.4,298.7
964.6,485,19.8,19.6,98,15.03,99,5.0,296.0,339.4,298.7
963.9,491,19.8,19.6,99,15.02,100,5.0,296.0,339.4,298.7
963.3,496,19.7,19.5,99,15.01,100,5.1,296.0,339.4,298.7
962.7,502,19.7,19.5,99,14.99,100,5.1,296.0,339.4,298.7
962.1,508,19.7,19.5,99,14.96,100,5.2,296.1,339.3,298.7
961.5,513,19.6,19.4,99,14.93,101,5.2,296.1,339.2,298.7
960.9,518,19.6,19.4,99,14.93,101,5.2,296.1,339.3,298.8
960.3,523,19.6,19.4,99,14.93,101,5.3,296.1,339.3,298.8
959.8,528,19.6,19.4,99,14.94,101,5.3,296.2,339.3,298.8
959.3,533,19.5,19.4,99,14.93,101,5.4,296.2,339.3,298.8
958.8,537,19.5,19.3,99,14.88,101,5.4,296.2,339.2,298.8
958.3,542,19.4,19.2,99,14.76,102,5.5,296.2,338.8,298.8
957.8,546,19.3,19.1,98,14.64,102,5.5,296.1,338.4,298.7
957.3,551,19.3,19.1,99,14.67,102,5.5,296.1,338.5,298.7
956.8,555,19.3,19.1,99,14.74,102,5.6,296.1,338.7,298.7
956.3,560,19.2,19.1,99,14.73,102,5.7,296.1,338.7,298.7
955.8,564,19.2,19.1,99,14.72,102,5.7,296.2,338.7,298.8
955.3,569,19.2,19.0,99,14.67,102,5.8,296.2,338.6,298.8
954.7,574,19.1,19.0,99,14.60,102,5.9,296.1,338.3,298.7
954.2,578,19.0,18.9,99,14.54,102,5.9,296.1,338.1,298.7
953.7,583,19.0,18.8,99,14.44,102,6.0,296.1,337.9,298.7
953.1,588,19.0,18.7,98,14.37,102,6.1,296.1,337.7,298.7
952.6,593,18.9,18.7,98,14.35,102,6.1,296.2,337.6,298.7
952.1,598,18.9,18.7,99,14.36,102,6.2,296.2,337.7,298.7
951.5,603,18.9,18.6,99,14.35,102,6.3,296.2,337.7,298.7
950.9,608,18.8,18.6,98,14.29,102,6.4,296.2,337.5,298.7
950.4,613,18.8,18.5,98,14.23,102,6.5,296.2,337.3,298.7
949.8,618,18.7,18.5,98,14.25,102,6.5,296.2,337.4,298.7
949.3,623,18.7,18.6,99,14.32,102,6.6,296.3,337.7,298.8
948.7,628,18.7,18.5,99,14.30,102,6.7,296.3,337.7,298.9
948.2,633,18.7,18.4,99,14.23,102,6.7,296.3,337.5,298.8
947.7,638,18.6,18.3,98,14.14,102,6.8,296.3,337.2,298.8
947.2,642,18.6,18.3,98,14.09,103,6.8,296.3,337.0,298.8
946.7,647,18.5,18.3,98,14.09,103,6.9,296.3,337.0,298.8
946.2,651,18.5,18.3,99,14.13,103,6.9,296.3,337.2,298.8
945.7,656,18.5,18.3,99,14.17,103,7.0,296.3,337.4,298.9
945.3,660,18.5,18.3,99,14.12,104,7.0,296.4,337.2,298.9
944.8,664,18.4,18.2,98,14.02,104,7.0,296.3,336.9,298.8
944.3,668,18.4,18.1,98,13.94,104,7.0,296.3,336.7,298.8
943.8,673,18.3,18.0,98,13.87,104,7.0,296.3,336.5,298.8
943.3,677,18.3,17.8,97,13.76,105,7.0,296.3,336.2,298.8
942.8,682,18.3,17.7,97,13.65,105,7.0,296.4,335.9,298.8
942.3,687,18.2,17.6,96,13.56,105,6.9,296.4,335.6,298.8
941.8,692,18.2,17.5,95,13.47,106,6.9,296.4,335.4,298.8
941.2,697,18.2,17.4,95,13.36,106,6.9,296.5,335.2,298.8
940.7,701,18.2,17.2,94,13.26,106,6.8,296.5,334.9,298.9
940.1,706,18.2,17.1,93,13.16,106,6.8,296.6,334.7,298.9
939.6,711,18.2,16.9,92,13.01,107,6.7,296.6,334.4,298.9
939.1,716,18.3,16.7,91,12.86,107,6.6,296.7,334.0,299.0
938.6,721,18.3,16.6,90,12.79,107,6.6,296.7,333.9,299.0
938.0,726,18.3,16.6,90,12.76,107,6.5,296.8,333.8,299.1
937.5,731,18.2,16.5,89,12.68,108,6.4,296.8,333.6,299.1
936.9,736,18.2,16.3,89,12.57,108,6.4,296.9,333.4,299.1
936.3,741,18.2,16.2,88,12.45,108,6.3,296.9,333.1,299.1
935.7,747,18.2,16.1,87,12.40,108,6.2,297.0,333.0,299.2
935.1,752,18.2,16.1,87,12.37,108,6.1,297.0,333.0,299.2
934.5,758,18.2,16.0,87,12.34,108,6.1,297.0,332.9,299.2
934.0,763,18.1,15.9,87,12.28,108,6.0,297.0,332.8,299.2
933.4,768,18.1,15.9,87,12.27,108,5.9,297.0,332.7,299.2
932.9,773,18.1,15.9,87,12.24,108,5.8,297.1,332.7,299.3
932.3,778,18.1,15.8,86,12.19,109,5.8,297.1,332.6,299.3
931.8,783,18.1,15.7,86,12.11,109,5.7,297.1,332.4,299.3
931.3,788,18.1,15.6,85,12.03,109,5.7,297.2,332.2,299.3
930.8,792,18.0,15.4,85,11.94,109,5.6,297.2,332.0,299.3
930.3,797,18.0,15.3,84,11.80,109,5.5,297.3,331.6,299.4
929.8,802,18.0,15.0,82,11.59,109,5.5,297.3,331.1,299.4
929.2,806,18.0,14.6,81,11.35,109,5.4,297.4,330.5,299.4
928.7,811,18.1,14.4,79,11.16,110,5.4,297.4,330.0,299.4
928.2,816,18.1,14.3,79,11.08,110,5.4,297.5,329.8,299.4
927.7,821,18.0,14.2,78,11.05,110,5.3,297.5,329.8,299.5
927.2,825,18.0,14.1,78,10.99,110,5.3,297.5,329.6,299.5
926.7,830,18.0,14.0,77,10.89,111,5.2,297.5,329.3,299.5
926.2,835,18.0,13.8,77,10.76,111,5.2,297.6,329.0,299.5
925.6,840,17.9,13.7,76,10.69,111,5.2,297.6,328.9,299.5
925.0,846,17.9,13.7,76,10.70,112,5.1,297.6,328.9,299.5
924.5,851,17.9,13.7,77,10.71,112,5.1,297.6,328.9,299.5
923.9,856,17.8,13.6,77,10.69,112,5.1,297.6,328.9,299.5
923.3,862,17.8,13.6,77,10.66,112,5.0,297.6,328.8,299.5
922.7,867,17.7,13.6,77,10.64,113,5.0,297.6,328.8,299.5
922.1,873,17.7,13.5,77,10.63,113,5.0,297.6,328.7,299.6
921.5,878,17.6,13.6,77,10.65,113,5.0,297.6,328.8,299.5
921.0,883,17.6,13.6,77,10.66,113,5.0,297.6,328.8,299.5
920.5,888,17.5,13.5,77,10.64,113,5.0,297.6,328.8,299.5
920.0,893,17.5,13.5,77,10.63,113,5.0,297.6,328.7,299.6
919.5,897,17.4,13.5,78,10.64,113,5.0,297.6,328.8,299.5
919.0,902,17.4,13.5,78,10.64,113,5.0,297.6,328.8,299.6
918.5,906,17.4,13.5,78,10.64,112,5.0,297.6,328.8,299.5
918.0,911,17.3,13.5,78,10.63,112,5.1,297.6,328.7,299.6
917.5,916,17.3,13.4,78,10.61,112,5.1,297.7,328.7,299.6
917.0,920,17.2,13.4,78,10.60,111,5.1,297.7,328.7,299.6
916.5,925,17.2,13.4,78,10.58,111,5.2,297.7,328.6,299.6
915.9,930,17.1,13.4,78,10.58,111,5.3,297.7,328.6,299.6
915.4,935,17.1,13.3,78,10.55,110,5.3,297.7,328.6,299.6
914.9,940,17.1,13.2,78,10.51,110,5.4,297.7,328.4,299.6
914.4,944,17.0,13.2,78,10.49,109,5.5,297.7,328.4,299.6
913.9,949,17.0,13.2,78,10.51,109,5.6,297.7,328.5,299.6
913.5,953,17.0,13.3,79,10.53,109,5.7,297.7,328.5,299.6
913.0,957,16.9,13.3,79,10.55,109,5.8,297.7,328.6,299.6
912.6,961,16.9,13.3,79,10.56,109,5.9,297.7,328.6,299.6
912.2,965,16.9,13.3,79,10.58,109,6.0,297.7,328.7,299.6
911.8,969,16.8,13.3,80,10.60,109,6.1,297.7,328.7,299.6
911.3,973,16.8,13.3,80,10.60,109,6.2,297.7,328.8,299.6
910.9,977,16.8,13.3,80,10.61,109,6.3,297.7,328.8,299.6
910.5,981,16.7,13.3,80,10.60,109,6.3,297.7,328.8,299.6
910.1,985,16.7,13.3,80,10.59,109,6.4,297.8,328.8,299.7
909.7,988,16.7,13.3,80,10.58,110,6.5,297.8,328.7,299.7
909.3,992,16.7,13.2,80,10.56,110,6.5,297.8,328.7,299.7
908.9,996,16.6,13.1,80,10.51,111,6.5,297.8,328.6,299.7
908.4,1000,16.6,13.1,79,10.46,111,6.6,297.8,328.5,299.7
908.0,1004,16.6,13.0,79,10.42,112,6.6,297.9,328.4,299.7
907.6,1009,16.6,12.9,79,10.37,112,6.6,297.9,328.2,299.7
907.1,1013,16.6,12.8,79,10.32,113,6.6,297.9,328.1,299.7
906.7,1017,16.5,12.8,79,10.30,113,6.5,297.9,328.1,299.8
906.2,1021,16.5,12.8,78,10.27,114,6.5,297.9,328.0,299.8
905.7,1026,16.5,12.6,78,10.20,114,6.5,298.0,327.9,299.8
905.2,1030,16.5,12.5,78,10.13,115,6.4,298.0,327.7,299.8
904.7,1035,16.4,12.5,77,10.09,115,6.4,298.0,327.6,299.8
904.2,1040,16.4,12.4,77,10.04,116,6.3,298.0,327.5,299.8
903.7,1045,16.4,12.3,77,10.02,116,6.2,298.0,327.4,299.8
903.2,1050,16.3,12.3,77,10.02,116,6.1,298.0,327.4,299.8
902.6,1055,16.3,12.3,77,10.02,117,6.1,298.0,327.4,299.8
902.0,1061,16.2,12.3,77,9.98,117,6.0,298.0,327.3,299.8
901.5,1066,16.2,12.2,77,9.93,117,5.9,298.0,327.2,299.8
900.9,1072,16.2,12.1,77,9.91,116,5.8,298.1,327.1,299.8
900.3,1077,16.1,12.2,77,9.93,116,5.7,298.1,327.2,299.8
899.7,1083,16.0,12.2,78,9.97,116,5.6,298.1,327.3,299.8
899.0,1089,16.0,12.2,78,9.95,115,5.6,298.1,327.3,299.9
898.4,1095,16.0,12.1,78,9.92,115,5.5,298.1,327.2,299.9
897.9,1100,15.9,12.1,78,9.91,114,5.4,298.1,327.2,299.9
897.3,1106,15.9,12.1,78,9.92,113,5.3,298.1,327.2,299.9
896.7,1111,15.8,12.2,79,9.99,112,5.3,298.1,327.5,299.9
896.1,1116,15.8,12.3,80,10.07,112,5.2,298.1,327.7,299.9
895.6,1122,15.7,12.4,80,10.12,111,5.2,298.1,327.8,299.9
895.1,1127,15.7,12.4,81,10.15,110,5.1,298.1,327.9,299.9
894.6,1132,15.6,12.4,81,10.15,109,5.1,298.1,327.9,299.9
894.1,1136,15.6,12.4,81,10.14,108,5.0,298.1,327.9,300.0
893.6,1141,15.6,12.3,81,10.12,107,5.0,298.2,327.9,300.0
893.1,1145,15.5,12.3,81,10.12,107,5.0,298.2,327.9,300.0
892.7,1149,15.5,12.3,81,10.14,106,4.9,298.2,327.9,300.0
892.3,1153,15.5,12.3,82,10.14,106,4.9,298.2,327.9,300.0
891.8,1158,15.4,12.3,82,10.14,105,4.9,298.2,327.9,300.0
891.4,1162,15.4,12.3,82,10.13,105,4.9,298.2,327.9,300.0
890.9,1166,15.3,12.3,82,10.12,104,4.8,298.2,327.9,300.0
890.5,1170,15.3,12.2,82,10.10,104,4.8,298.2,327.8,300.0
890.0,1175,15.3,12.2,82,10.09,104,4.8,298.2,327.8,300.0
889.6,1179,15.2,12.2,82,10.08,104,4.7,298.2,327.8,300.0
889.2,1183,15.2,12.2,82,10.07,104,4.7,298.2,327.8,300.0
888.8,1187,15.2,12.2,82,10.08,104,4.6,298.2,327.8,300.0
888.4,1191,15.1,12.2,83,10.10,104,4.6,298.2,327.8,300.0
888.0,1194,15.1,12.2,83,10.10,105,4.6,298.2,327.8,300.0
887.5,1198,15.0,12.1,83,10.07,105,4.5,298.2,327.8,300.0
887.1,1202,15.0,12.1,83,10.04,105,4.5,298.2,327.7,300.0
886.7,1206,15.0,12.1,83,10.04,106,4.4,298.2,327.7,300.0
886.3,1210,14.9,12.1,83,10.05,106,4.4,298.2,327.7,300.0
885.8,1215,14.9,12.1,83,10.08,106,4.3,298.2,327.8,300.0
885.4,1219,14.9,12.1,84,10.08,107,4.3,298.2,327.8,300.0
884.9,1223,14.8,12.1,84,10.06,107,4.3,298.2,327.8,300.0
884.4,1228,14.8,12.0,83,10.04,108,4.2,298.2,327.7,300.0
883.9,1233,14.8,12.0,84,10.03,108,4.2,298.3,327.7,300.1
883.4,1238,14.7,12.0,84,10.04,109,4.2,298.3,327.8,300.1
882.9,1243,14.7,12.0,84,10.06,109,4.2,298.3,327.8,300.1
882.3,1249,14.6,12.1,85,10.09,110,4.2,298.3,327.9,300.1
881.7,1255,14.6,12.1,85,10.08,110,4.2,298.3,327.9,300.1
881.1,1261,14.5,12.0,85,10.06,111,4.2,298.3,327.8,300.1
880.4,1266,14.5,11.9,84,10.00,112,4.2,298.3,327.7,300.1
879.8,1272,14.5,11.8,84,9.92,113,4.2,298.3,327.5,300.1
879.3,1278,14.4,11.7,83,9.86,113,4.2,298.4,327.3,300.1
878.7,1283,14.4,11.7,83,9.85,114,4.3,298.4,327.3,300.2
878.2,1288,14.4,11.6,83,9.83,115,4.3,298.4,327.3,300.2
877.7,1293,14.3,11.6,83,9.81,116,4.3,298.4,327.3,300.2
877.2,1298,14.3,11.6,84,9.82,117,4.4,298.4,327.3,300.2
876.6,1303,14.2,11.6,84,9.82,118,4.4,298.4,327.3,300.2
876.1,1308,14.2,11.5,84,9.80,118,4.5,298.4,327.2,300.2
875.6,1313,14.2,11.5,84,9.78,119,4.6,298.4,327.2,300.2
875.0,1319,14.1,11.4,84,9.75,120,4.6,298.4,327.1,300.2
874.5,1324,14.1,11.4,84,9.74,121,4.7,298.4,327.1,300.2
873.9,1329,14.0,11.4,84,9.74,122,4.8,298.5,327.1,300.2
873.4,1334,14.0,11.4,84,9.71,122,4.8,298.5,327.1,300.2
872.9,1340,14.0,11.3,84,9.66,123,4.9,298.5,326.9,300.2
872.4,1345,14.0,11.3,84,9.68,124,5.0,298.5,327.0,300.3
871.9,1349,13.9,11.4,85,9.73,124,5.1,298.5,327.2,300.3
871.4,1354,13.9,11.4,85,9.79,125,5.1,298.5,327.3,300.3
871.0,1358,13.9,11.5,86,9.83,125,5.2,298.6,327.5,300.3
870.5,1362,13.8,11.5,86,9.84,125,5.3,298.6,327.5,300.3
870.1,1367,13.8,11.5,86,9.85,126,5.4,298.6,327.6,300.4
869.6,1371,13.8,11.5,86,9.86,126,5.4,298.6,327.6,300.4
869.2,1376,13.7,11.6,87,9.89,126,5.5,298.6,327.7,300.4
868.6,1381,13.7,11.6,87,9.94,126,5.5,298.6,327.9,300.4
868.1,1386,13.7,11.7,88,10.00,126,5.6,298.6,328.0,300.4
867.5,1391,13.6,11.7,88,10.00,126,5.7,298.6,328.1,300.4
867.0,1397,13.6,11.6,88,9.98,126,5.7,298.6,328.0,300.4
866.4,1403,13.5,11.6,88,9.96,125,5.8,298.6,327.9,300.4
865.8,1408,13.5,11.6,89,9.98,125,5.9,298.6,328.0,300.4
865.2,1414,13.4,11.7,89,10.00,125,5.9,298.7,328.1,300.5
864.7,1419,13.4,11.7,89,10.02,125,6.0,298.7,328.1,300.5
864.1,1425,13.3,11.7,90,10.04,125,6.1,298.7,328.2,300.5
863.6,1430,13.3,11.6,90,10.02,124,6.1,298.7,328.2,300.5
863.0,1435,13.3,11.6,89,9.97,124,6.2,298.7,328.1,300.5
862.5,1441,13.2,11.5,89,9.93,124,6.3,298.8,328.0,300.5
862.0,1446,13.2,11.5,89,9.91,124,6.4,298.8,328.0,300.6
861.5,1451,13.2,11.5,89,9.93,124,6.5,298.8,328.0,300.6
860.9,1456,13.2,11.5,90,9.97,123,6.5,298.8,328.2,300.6
860.4,1461,13.1,11.7,91,10.06,123,6.6,298.8,328.4,300.6
859.9,1466,13.1,11.8,92,10.17,124,6.7,298.8,328.8,300.7
859.3,1471,13.0,11.9,93,10.22,124,6.8,298.9,328.9,300.7
858.8,1477,13.0,11.9,93,10.22,124,6.9,298.8,328.9,300.7
858.3,1482,12.9,11.8,93,10.17,124,7.0,298.9,328.8,300.7
857.7,1487,12.9,11.6,92,10.07,124,7.2,298.9,328.5,300.7
857.2,1492,12.9,11.4,90,9.92,125,7.3,298.9,328.1,300.7
856.7,1498,12.9,11.2,89,9.82,125,7.4,299.0,327.9,300.8
856.2,1502,12.9,11.2,89,9.79,126,7.5,299.0,327.9,300.8
855.7,1507,12.9,11.1,89,9.72,126,7.6,299.1,327.7,300.8
855.2,1512,12.9,10.8,87,9.53,127,7.7,299.1,327.2,300.8
854.7,1517,12.9,10.2,83,9.16,127,7.7,299.2,326.2,300.8
854.3,1522,12.9,9.6,80,8.83,128,7.8,299.2,325.4,300.8
853.8,1526,12.9,9.4,79,8.70,129,7.9,299.3,325.1,300.9
853.3,1531,12.9,9.3,79,8.66,129,7.9,299.3,325.0,300.9
852.9,1535,12.9,9.3,78,8.63,130,8.0,299.4,324.9,300.9
852.4,1539,12.9,9.2,78,8.57,131,8.0,299.4,324.8,300.9
852.0,1544,12.9,9.1,78,8.53,131,8.1,299.4,324.7,300.9
851.6,1548,12.8,9.0,78,8.50,132,8.1,299.4,324.6,300.9
851.2,1552,12.8,9.0,77,8.48,133,8.1,299.4,324.6,301.0
850.8,1556,12.8,8.9,77,8.44,133,8.1,299.4,324.5,301.0
850.4,1560,12.8,8.8,77,8.39,134,8.1,299.5,324.4,301.0
850.0,1563,12.8,8.8,77,8.37,135,8.0,299.5,324.3,301.0
849.6,1567,12.8,8.7,76,8.34,135,8.0,299.5,324.3,301.0
849.2,1571,12.7,8.6,76,8.31,135,8.0,299.5,324.2,301.0
848.8,1576,12.7,8.6,76,8.31,136,7.9,299.5,324.2,301.0
848.3,1581,12.7,8.7,77,8.33,136,7.9,299.6,324.3,301.1
847.7,1586,12.6,8.7,77,8.33,137,7.8,299.6,324.3,301.1
847.2,1591,12.5,8.7,78,8.37,137,7.8,299.5,324.4,301.1
846.6,1597,12.5,8.8,78,8.42,138,7.7,299.6,324.5,301.1
846.1,1602,12.5,8.8,79,8.46,138,7.6,299.6,324.7,301.1
845.5,1608,12.4,8.9,79,8.52,138,7.6,299.6,324.8,301.1
845.0,1613,12.3,9.0,80,8.57,138,7.5,299.6,325.0,301.1
844.5,1618,12.3,9.1,81,8.63,139,7.4,299.5,325.1,301.1
844.0,1623,12.2,9.2,82,8.66,139,7.4,299.5,325.2,301.1
843.5,1628,12.2,9.2,82,8.67,139,7.3,299.5,325.2,301.1
843.1,1632,12.1,9.2,82,8.70,139,7.2,299.5,325.3,301.1
842.7,1636,12.1,9.2,83,8.73,139,7.2,299.5,325.4,301.1
842.2,1641,12.0,9.3,83,8.75,139,7.1,299.5,325.4,301.1
841.8,1645,12.0,9.2,83,8.71,139,7.1,299.5,325.3,301.1
841.4,1649,11.9,9.2,83,8.69,139,7.1,299.5,325.3,301.1
841.0,1653,11.9,9.3,84,8.81,139,7.0,299.5,325.6,301.1
840.6,1657,11.8,9.6,86,8.97,139,7.0,299.5,326.0,301.1
840.2,1661,11.8,9.8,88,9.11,138,7.0,299.5,326.4,301.1
839.8,1665,11.7,10.0,89,9.21,138,7.0,299.4,326.7,301.1
839.4,1669,11.7,10.1,90,9.28,138,6.9,299.4,326.9,301.1
839.0,1673,11.6,10.1,91,9.32,138,6.9,299.4,327.0,301.1
838.5,1677,11.6,10.1,91,9.31,137,6.9,299.4,327.0,301.1
838.1,1682,11.6,10.1,91,9.31,137,6.9,299.4,327.0,301.1
837.7,1686,11.5,10.1,91,9.33,137,6.8,299.4,327.0,301.1
837.3,1690,11.5,10.1,91,9.33,136,6.8,299.4,327.0,301.1
836.9,1694,11.5,10.1,91,9.31,136,6.8,299.5,327.0,301.1
836.5,1698,11.4,10.0,91,9.29,135,6.7,299.5,326.9,301.1
836.0,1703,11.4,10.0,91,9.28,135,6.7,299.5,326.9,301.2
835.6,1707,11.4,10.0,92,9.29,134,6.7,299.5,326.9,301.2
835.1,1712,11.3,10.0,92,9.30,134,6.6,299.5,327.0,301.2
834.6,1717,11.3,10.0,92,9.31,133,6.6,299.5,327.0,301.2
834.1,1722,11.2,10.0,92,9.29,133,6.5,299.5,327.0,301.2
833.6,1727,11.2,10.0,92,9.27,132,6.5,299.5,326.9,301.2
833.1,1732,11.1,10.0,92,9.27,132,6.4,299.5,326.9,301.2
832.6,1737,11.1,9.9,93,9.26,132,6.4,299.5,326.9,301.2
832.1,1742,11.0,9.9,93,9.25,131,6.3,299.5,326.9,301.2
831.6,1747,11.0,9.9,93,9.23,131,6.3,299.5,326.8,301.2
831.1,1752,11.0,9.8,93,9.21,130,6.3,299.5,326.8,301.2
830.7,1756,10.9,9.8,93,9.19,130,6.3,299.5,326.7,301.2
830.3,1760,10.9,9.8,93,9.21,130,6.2,299.5,326.8,301.2
829.9,1764,10.8,9.8,93,9.23,129,6.2,299.5,326.8,301.2
829.5,1768,10.8,9.8,94,9.24,129,6.2,299.5,326.9,301.2
829.1,1772,10.8,9.9,94,9.25,129,6.3,299.5,326.9,301.2
828.7,1776,10.7,9.8,94,9.24,129,6.3,299.5,326.9,301.2
828.3,1780,10.7,9.8,94,9.23,129,6.3,299.6,326.9,301.2
827.9,1784,10.7,9.8,94,9.22,128,6.3,299.6,326.8,301.2
827.5,1788,10.6,9.8,95,9.24,128,6.4,299.6,326.9,301.2
