PRES,HGHT,TEMP,DWPT,RELH,MIXR,DRCT,SPED,THTA,THTE,THTV
1010.8,31,26.8,20.7,69,15.35,153,6.4,299.0,344.0,301.8
1009.1,46,25.9,20.2,71,14.89,153,3.9,298.3,341.7,300.9
1008.4,52,25.5,19.9,71,14.70,153,3.4,298.0,340.8,300.6
1007.7,58,25.2,19.8,72,14.53,153,3.4,297.7,340.0,300.3
1006.9,65,25.1,19.8,72,14.55,154,3.6,297.7,340.1,300.3
1005.9,73,25.2,19.8,72,14.61,154,3.8,297.8,340.4,300.5
1005.1,81,25.0,19.6,72,14.46,154,4.1,297.7,339.8,300.3
1004.1,89,24.7,19.5,73,14.33,155,4.2,297.5,339.2,300.0
1003.2,97,24.6,19.5,73,14.35,155,4.4,297.5,339.2,300.0
1002.3,105,24.7,19.5,73,14.42,156,4.5,297.6,339.6,300.2
1001.4,113,24.7,19.5,73,14.41,156,4.7,297.8,339.8,300.3
1000.5,121,24.7,19.4,73,14.34,156,4.8,297.8,339.6,300.4
1000.0,125,24.6,19.4,73,14.30,156,4.8,297.8,339.4,300.3
999.6,129,24.6,19.3,73,14.27,157,4.9,297.8,339.3,300.3
998.7,137,24.4,19.3,73,14.23,157,5.0,297.7,339.1,300.2
997.7,145,24.2,19.2,74,14.20,158,5.2,297.6,338.9,300.1
996.8,153,24.1,19.3,74,14.24,158,5.3,297.5,338.9,300.1
995.8,162,24.1,19.4,75,14.34,159,5.4,297.6,339.4,300.2
994.9,170,24.1,19.4,75,14.43,159,5.5,297.7,339.8,300.3
993.9,179,24.1,19.4,75,14.39,160,5.5,297.8,339.7,300.3
992.9,188,23.9,19.3,75,14.30,161,5.6,297.7,339.3,300.2
991.9,196,23.8,19.3,76,14.33,161,5.7,297.6,339.4,300.2
990.9,205,23.8,19.4,76,14.41,162,5.8,297.7,339.7,300.3
989.9,214,23.7,19.3,76,14.40,162,5.9,297.8,339.7,300.3
988.9,223,23.7,19.3,76,14.37,163,5.9,297.8,339.6,300.3
987.9,232,23.6,19.3,77,14.38,163,6.0,297.7,339.6,300.3
986.9,241,23.4,19.2,77,14.35,164,6.0,297.6,339.4,300.2
985.9,250,23.2,19.2,78,14.33,164,6.1,297.6,339.3,300.1
984.9,259,23.1,19.2,79,14.40,165,6.1,297.6,339.5,300.1
983.8,268,23.1,19.3,79,14.47,165,6.2,297.6,339.7,300.2
982.8,277,23.1,19.3,79,14.50,165,6.2,297.7,339.9,300.3
981.8,286,23.0,19.3,80,14.49,166,6.3,297.7,339.9,300.3
980.7,296,22.9,19.2,80,14.45,166,6.3,297.7,339.8,300.3
979.7,305,22.8,19.2,80,14.42,167,6.3,297.6,339.6,300.2
978.6,315,22.5,19.1,81,14.34,167,6.3,297.5,339.3,300.1
977.6,324,22.3,19.0,81,14.31,167,6.3,297.4,339.0,300.0
976.5,334,22.2,19.0,82,14.33,168,6.3,297.4,339.1,299.9
975.4,343,22.2,19.0,82,14.34,168,6.3,297.4,339.2,300.0
974.3,353,22.1,19.0,82,14.30,168,6.3,297.5,339.0,300.0
973.3,362,22.0,18.9,82,14.22,168,6.3,297.4,338.8,299.9
972.3,371,21.9,18.8,83,14.21,169,6.3,297.4,338.8,300.0
971.3,380,21.9,18.9,83,14.27,169,6.3,297.5,339.0,300.0
970.4,388,21.9,18.9,83,14.33,169,6.3,297.6,339.2,300.1
969.5,396,21.8,19.0,84,14.37,169,6.3,297.6,339.4,300.1
968.6,404,21.7,18.9,84,14.37,169,6.2,297.6,339.4,300.1
967.8,412,21.6,18.9,84,14.31,170,6.2,297.5,339.2,300.1
966.9,419,21.5,18.8,85,14.26,170,6.2,297.5,339.0,300.0
966.1,427,21.3,18.8,85,14.27,170,6.2,297.4,338.9,300.0
965.2,435,21.1,18.7,86,14.24,170,6.1,297.3,338.7,299.8
964.3,443,20.8,18.6,87,14.16,170,6.1,297.1,338.2,299.6
963.4,451,20.7,18.6,88,14.14,170,6.1,297.0,338.0,299.5
962.6,459,20.6,18.6,88,14.12,170,6.1,297.0,337.9,299.5
961.7,466,20.6,18.6,88,14.14,170,6.1,297.1,338.1,299.6
960.9,473,20.6,18.6,88,14.13,170,6.1,297.1,338.2,299.7
960.1,481,20.6,18.5,88,14.10,170,6.1,297.1,338.1,299.7
959.4,487,20.5,18.5,88,14.08,170,6.1,297.1,338.0,299.6
958.6,494,20.4,18.4,89,14.04,170,6.0,297.1,337.9,299.6
957.9,501,20.3,18.3,89,13.99,170,6.0,297.0,337.6,299.5
957.1,507,20.2,18.4,89,14.02,170,6.0,297.1,337.8,299.6
956.4,514,20.2,18.4,89,14.05,169,6.1,297.1,337.9,299.6
955.6,521,20.1,18.3,90,14.00,169,6.1,297.1,337.7,299.6
954.9,528,20.0,18.3,90,13.97,169,6.1,297.0,337.5,299.5
954.1,535,19.9,18.3,91,14.01,169,6.0,297.0,337.7,299.5
953.3,542,19.8,18.3,91,14.05,169,6.0,297.0,337.8,299.5
952.5,549,19.8,18.3,92,14.07,169,6.0,297.0,337.9,299.5
951.8,556,19.7,18.3,92,14.06,169,6.0,297.0,337.8,299.5
951.0,563,19.6,18.3,92,14.02,168,6.0,297.0,337.7,299.5
950.3,570,19.6,18.2,92,13.99,168,6.0,297.0,337.6,299.5
949.5,577,19.6,18.2,92,14.00,168,6.0,297.1,337.7,299.6
948.8,583,19.5,18.2,92,14.00,168,6.0,297.1,337.7,299.6
948.1,590,19.4,18.2,93,14.00,168,6.0,297.1,337.7,299.6
947.4,596,19.4,18.2,93,14.04,168,5.9,297.1,337.8,299.6
946.7,603,19.3,18.3,94,14.09,169,5.9,297.1,337.9,299.6
945.9,609,19.2,18.3,94,14.13,169,5.9,297.1,338.1,299.6
945.2,616,19.2,18.3,95,14.17,169,5.8,297.0,338.2,299.6
944.5,622,19.1,18.3,95,14.16,169,5.8,297.0,338.2,299.6
943.8,629,19.0,18.2,95,14.07,170,5.7,297.0,337.9,299.5
943.1,635,19.0,18.0,94,13.86,170,5.7,297.1,337.3,299.5
942.5,641,18.9,17.6,92,13.57,170,5.7,297.1,336.5,299.5
941.8,647,18.9,17.2,90,13.23,171,5.6,297.1,335.5,299.4
941.2,653,18.8,16.9,89,13.00,171,5.5,297.1,334.9,299.4
940.5,659,18.8,16.8,88,12.92,172,5.5,297.1,334.7,299.4
939.9,665,18.8,16.8,88,12.90,173,5.4,297.1,334.6,299.4
939.2,671,18.7,16.7,88,12.86,173,5.4,297.1,334.5,299.4
938.6,676,18.7,16.7,88,12.82,174,5.4,297.2,334.4,299.4
938.0,682,18.6,16.6,88,12.79,175,5.3,297.2,334.4,299.4
937.4,687,18.6,16.6,88,12.76,176,5.3,297.2,334.3,299.5
936.8,693,18.6,16.6,88,12.75,176,5.3,297.2,334.3,299.5
936.2,698,18.5,16.6,88,12.77,177,5.2,297.2,334.4,299.5
935.7,703,18.5,16.6,89,12.83,178,5.2,297.2,334.5,299.5
935.1,709,18.4,16.7,90,12.88,179,5.2,297.2,334.7,299.5
934.5,714,18.4,16.7,90,12.88,180,5.2,297.2,334.7,299.5
933.9,720,18.3,16.6,90,12.86,181,5.2,297.2,334.6,299.5
933.3,725,18.3,16.6,90,12.83,181,5.2,297.2,334.5,299.5
932.7,731,18.2,16.5,90,12.78,182,5.2,297.2,334.4,299.5
932.1,736,18.2,16.4,89,12.70,183,5.2,297.2,334.2,299.5
931.5,742,18.2,16.3,89,12.58,184,5.2,297.3,333.9,299.5
930.9,747,18.1,16.1,88,12.46,185,5.2,297.3,333.6,299.5
930.4,752,18.1,16.0,87,12.36,185,5.3,297.3,333.4,299.6
929.9,757,18.1,15.9,87,12.28,186,5.3,297.4,333.2,299.6
929.4,761,18.1,15.8,86,12.22,187,5.3,297.4,333.0,299.6
928.9,766,18.1,15.8,86,12.22,188,5.4,297.5,333.1,299.6
928.3,771,18.1,15.8,87,12.26,188,5.4,297.5,333.2,299.7
927.8,776,18.0,15.9,87,12.30,189,5.5,297.5,333.3,299.7
927.3,780,18.0,15.9,87,12.32,189,5.5,297.5,333.4,299.7
926.8,785,17.9,15.8,87,12.28,190,5.6,297.5,333.2,299.7
926.3,790,17.9,15.6,87,12.15,190,5.6,297.5,332.9,299.7
925.8,794,17.9,15.5,86,12.02,191,5.7,297.6,332.6,299.7
925.3,799,17.9,15.3,85,11.92,191,5.7,297.6,332.4,299.7
925.0,802,17.9,15.3,84,11.88,191,5.7,297.6,332.3,299.8
924.8,804,17.9,15.2,84,11.84,191,5.8,297.6,332.2,299.8
924.3,809,17.9,15.1,84,11.76,191,5.8,297.7,332.0,299.8
923.8,813,17.9,15.0,83,11.70,192,5.9,297.7,331.8,299.8
923.2,818,17.9,15.0,83,11.67,192,5.9,297.7,331.8,299.8
922.7,823,17.8,15.0,83,11.67,192,6.0,297.7,331.8,299.8
922.2,828,17.8,15.0,84,11.69,192,6.0,297.7,331.9,299.8
921.7,832,17.7,15.0,84,11.73,192,6.0,297.7,332.0,299.8
921.2,837,17.7,15.1,85,11.76,192,6.1,297.7,332.1,299.8
920.7,842,17.7,15.0,85,11.75,192,6.1,297.7,332.1,299.8
920.1,847,17.6,15.0,84,11.71,191,6.1,297.8,331.9,299.9
919.6,852,17.6,14.9,84,11.64,191,6.1,297.8,331.8,299.8
919.1,856,17.5,14.8,84,11.59,191,6.1,297.8,331.6,299.9
918.6,861,17.5,14.8,84,11.57,191,6.2,297.8,331.6,299.9
918.1,866,17.5,14.8,84,11.59,190,6.2,297.8,331.6,299.9
917.6,871,17.4,14.8,85,11.62,190,6.2,297.8,331.7,299.9
917.1,876,17.4,14.8,85,11.65,190,6.2,297.8,331.8,299.9
916.5,881,17.3,14.9,85,11.67,189,6.2,297.8,331.9,299.9
915.9,886,17.3,14.8,86,11.66,189,6.2,297.8,331.9,299.9
915.3,892,17.2,14.8,85,11.62,189,6.2,297.8,331.8,299.9
914.8,897,17.2,14.7,85,11.56,188,6.3,297.8,331.6,299.9
914.2,903,17.2,14.6,85,11.48,188,6.3,297.8,331.4,299.9
913.6,908,17.1,14.4,84,11.39,188,6.3,297.9,331.2,299.9
913.1,913,17.1,14.3,83,11.30,187,6.3,297.9,330.9,299.9
912.5,918,17.1,14.2,83,11.20,187,6.3,298.0,330.7,300.0
912.0,923,17.1,14.1,82,11.14,187,6.3,298.0,330.6,300.0
911.4,929,17.1,14.1,82,11.14,186,6.3,298.1,330.7,300.1
910.9,934,17.1,14.1,82,11.16,186,6.3,298.1,330.8,300.1
910.4,939,17.1,14.1,83,11.18,186,6.3,298.1,330.8,300.1
909.8,943,17.0,14.1,83,11.17,186,6.3,298.1,330.8,300.1
909.3,948,17.0,14.0,83,11.12,186,6.3,298.1,330.7,300.1
908.8,953,17.0,13.9,82,11.08,186,6.3,298.2,330.6,300.1
908.3,958,16.9,13.9,82,11.07,186,6.3,298.2,330.6,300.1
907.8,962,16.9,13.9,83,11.08,186,6.3,298.2,330.6,300.2
907.3,967,16.8,13.9,83,11.07,187,6.3,298.2,330.6,300.1
906.8,972,16.8,13.9,83,11.06,187,6.3,298.2,330.5,300.1
906.2,977,16.8,13.8,83,11.04,187,6.2,298.2,330.5,300.2
905.7,982,16.7,13.8,83,11.04,188,6.2,298.2,330.5,300.2
905.1,988,16.7,13.8,83,11.03,188,6.2,298.2,330.5,300.2
904.6,993,16.6,13.8,83,11.02,189,6.1,298.2,330.5,300.2
904.0,998,16.6,13.8,84,11.03,189,6.1,298.2,330.5,300.2
903.5,1004,16.5,13.8,84,11.05,190,6.0,298.2,330.5,300.2
902.9,1009,16.5,13.8,84,11.05,190,6.0,298.2,330.6,300.2
902.4,1014,16.4,13.8,84,11.05,191,5.9,298.2,330.5,300.2
901.9,1019,16.4,13.7,84,11.01,192,5.9,298.2,330.4,300.2
901.3,1023,16.3,13.6,84,10.94,193,5.8,298.2,330.3,300.2
900.8,1028,16.3,13.5,84,10.88,193,5.8,298.2,330.1,300.2
900.3,1033,16.3,13.5,83,10.84,194,5.7,298.3,330.0,300.2
899.8,1038,16.3,13.4,83,10.83,195,5.7,298.3,330.1,300.2
899.3,1043,16.2,13.5,84,10.87,196,5.7,298.3,330.2,300.2
898.7,1048,16.2,13.5,84,10.87,197,5.6,298.3,330.2,300.3
898.2,1054,16.2,13.4,84,10.82,198,5.6,298.3,330.0,300.3
897.6,1059,16.2,13.3,83,10.73,199,5.6,298.4,329.8,300.3
897.0,1065,16.2,13.1,82,10.62,200,5.6,298.5,329.7,300.4
896.4,1071,16.2,13.0,81,10.55,200,5.5,298.5,329.5,300.4
895.7,1077,16.2,13.0,81,10.54,201,5.5,298.6,329.5,300.5
895.1,1083,16.1,12.9,82,10.53,202,5.5,298.6,329.5,300.4
894.5,1089,16.1,12.9,81,10.49,203,5.5,298.6,329.4,300.5
893.9,1095,16.1,12.7,81,10.41,204,5.6,298.6,329.2,300.5
893.2,1100,16.1,12.7,80,10.35,204,5.6,298.7,329.1,300.6
892.6,1106,16.0,12.6,80,10.35,205,5.6,298.7,329.2,300.6
892.0,1112,16.0,12.6,81,10.36,206,5.6,298.7,329.2,300.6
891.5,1117,15.9,12.7,81,10.38,206,5.6,298.7,329.2,300.6
890.9,1123,15.8,12.7,82,10.41,207,5.7,298.7,329.3,300.6
890.3,1128,15.8,12.7,82,10.42,207,5.7,298.7,329.3,300.6
889.8,1133,15.8,12.7,82,10.40,208,5.7,298.7,329.3,300.6
889.3,1138,15.7,12.6,81,10.35,208,5.8,298.7,329.2,300.6
888.7,1143,15.8,12.5,81,10.28,209,5.8,298.8,329.0,300.7
888.2,1148,15.8,12.3,80,10.20,210,5.8,298.9,328.9,300.7
887.7,1153,15.8,12.3,80,10.15,210,5.9,298.9,328.8,300.8
887.2,1159,15.8,12.2,80,10.14,211,5.9,298.9,328.8,300.8
886.6,1164,15.7,12.2,80,10.15,211,5.9,299.0,328.9,300.8
886.1,1169,15.7,12.2,80,10.15,212,5.9,299.0,328.9,300.8
885.6,1174,15.6,12.3,80,10.17,212,6.0,299.0,328.9,300.8
885.0,1179,15.6,12.3,81,10.20,213,6.0,299.0,329.0,300.8
884.5,1184,15.5,12.3,81,10.20,213,6.0,299.0,329.0,300.8
884.0,1189,15.5,12.2,81,10.18,214,6.0,299.0,328.9,300.8
883.5,1194,15.4,12.2,81,10.19,214,6.1,299.0,329.0,300.8
882.9,1199,15.4,12.3,82,10.22,215,6.1,299.0,329.1,300.8
882.4,1204,15.3,12.3,82,10.26,215,6.1,299.0,329.2,300.8
881.9,1209,15.3,12.3,83,10.25,215,6.1,298.9,329.1,300.8
881.3,1215,15.2,12.2,82,10.21,216,6.1,299.0,329.0,300.8
880.7,1220,15.2,12.1,82,10.15,216,6.1,299.0,328.9,300.8
880.2,1226,15.2,12.0,81,10.06,216,6.2,299.0,328.7,300.8
879.6,1232,15.2,11.9,81,10.01,217,6.2,299.1,328.6,300.9
879.0,1238,15.2,11.9,81,10.00,217,6.2,299.1,328.6,300.9
878.3,1243,15.1,11.9,81,9.98,217,6.2,299.2,328.6,301.0
877.7,1250,15.1,11.8,81,9.94,217,6.2,299.2,328.5,301.0
877.1,1256,15.1,11.7,80,9.87,217,6.2,299.2,328.3,301.0
876.5,1262,15.0,11.6,80,9.83,218,6.2,299.2,328.3,301.0
875.8,1268,15.0,11.6,80,9.85,218,6.3,299.3,328.3,301.0
875.2,1274,14.9,11.7,81,9.92,218,6.3,299.3,328.5,301.0
874.5,1280,14.9,11.8,82,10.00,218,6.3,299.2,328.7,301.1
873.9,1287,14.8,11.9,83,10.08,217,6.3,299.2,328.9,301.0
873.2,1293,14.7,12.0,84,10.13,217,6.3,299.2,329.1,301.0
872.5,1300,14.6,12.0,84,10.13,217,6.3,299.2,329.1,301.0
871.9,1306,14.6,11.9,84,10.09,217,6.4,299.2,329.0,301.0
871.2,1313,14.5,11.8,84,10.05,217,6.4,299.2,328.9,301.0
870.6,1319,14.5,11.8,84,10.01,217,6.4,299.2,328.7,301.0
869.9,1325,14.4,11.6,83,9.94,217,6.4,299.3,328.6,301.0
869.3,1331,14.4,11.4,82,9.80,217,6.4,299.3,328.2,301.1
868.7,1337,14.4,11.3,82,9.72,217,6.5,299.3,328.0,301.1
868.1,1342,14.3,11.3,82,9.74,217,6.5,299.3,328.1,301.1
867.6,1348,14.3,11.4,83,9.81,217,6.5,299.3,328.3,301.1
867.1,1353,14.2,11.4,83,9.83,217,6.6,299.3,328.4,301.1
866.5,1358,14.2,11.4,83,9.83,217,6.6,299.3,328.4,301.1
866.0,1363,14.1,11.4,84,9.83,217,6.6,299.3,328.4,301.1
865.5,1369,14.1,11.4,84,9.83,217,6.7,299.3,328.3,301.1
864.9,1374,14.0,11.4,84,9.81,217,6.7,299.3,328.3,301.1
864.3,1380,14.0,11.3,84,9.80,217,6.8,299.4,328.3,301.1
863.7,1385,13.9,11.3,84,9.79,218,6.8,299.4,328.3,301.1
863.1,1391,13.9,11.3,85,9.79,218,6.9,299.3,328.3,301.1
862.5,1397,13.8,11.3,85,9.78,218,6.9,299.3,328.2,301.1
861.9,1404,13.7,11.2,85,9.74,218,7.0,299.3,328.1,301.1
861.2,1410,13.7,11.0,84,9.62,219,7.0,299.4,327.8,301.1
860.6,1417,13.8,10.7,82,9.44,219,7.1,299.5,327.4,301.2
859.9,1423,13.8,10.4,80,9.26,219,7.1,299.6,327.0,301.3
859.2,1430,13.9,10.2,78,9.12,219,7.2,299.7,326.8,301.4
858.6,1436,13.9,10.1,78,9.06,220,7.2,299.8,326.7,301.4
857.9,1443,13.8,10.0,78,9.04,220,7.3,299.8,326.6,301.4
857.3,1449,13.8,10.0,78,9.03,220,7.3,299.8,326.6,301.5
856.6,1455,13.8,10.1,79,9.13,220,7.4,299.9,326.9,301.5
856.0,1462,13.6,10.5,82,9.38,220,7.4,299.8,327.6,301.5
855.4,1468,13.4,10.9,85,9.61,221,7.4,299.6,328.1,301.4
854.8,1474,13.3,10.8,85,9.59,221,7.5,299.5,327.9,301.3
854.2,1479,13.2,10.6,84,9.42,221,7.5,299.6,327.4,301.3
853.6,1485,13.2,10.3,82,9.26,221,7.5,299.6,327.1,301.3
853.0,1491,13.2,10.1,81,9.12,221,7.5,299.7,326.7,301.3
852.4,1497,13.2,9.8,80,8.98,221,7.5,299.8,326.4,301.4
851.8,1503,13.3,9.6,78,8.82,222,7.5,299.9,326.0,301.5
851.2,1509,13.4,9.2,76,8.62,222,7.5,300.0,325.6,301.6
850.5,1515,13.4,9.1,75,8.56,222,7.5,300.1,325.5,301.6
850.0,1521,13.3,9.3,77,8.70,222,7.5,300.1,325.9,301.7
849.9,1522,13.3,9.4,77,8.72,222,7.5,300.1,326.0,301.7
849.3,1528,13.2,9.8,80,9.00,222,7.5,300.0,326.7,301.6
848.6,1535,13.0,10.2,83,9.22,222,7.5,299.9,327.3,301.6
847.9,1541,12.9,10.2,84,9.27,222,7.5,299.9,327.4,301.6
847.3,1548,12.8,10.0,83,9.14,222,7.5,299.9,326.9,301.5
846.6,1555,12.8,9.5,80,8.85,222,7.5,299.9,326.2,301.5
846.0,1561,12.9,8.9,77,8.51,222,7.5,300.0,325.3,301.6
845.3,1567,13.0,8.6,75,8.33,222,7.5,300.2,325.0,301.7
844.7,1573,12.9,8.8,76,8.43,222,7.5,300.2,325.3,301.7
844.1,1579,12.9,8.9,77,8.51,222,7.5,300.2,325.5,301.8
843.6,1585,12.9,8.7,76,8.38,222,7.5,300.3,325.2,301.8
843.0,1591,12.9,8.3,74,8.19,222,7.5,300.3,324.7,301.8
842.4,1596,12.9,8.2,73,8.11,222,7.5,300.4,324.6,301.9
841.8,1602,12.9,8.2,73,8.11,222,7.5,300.4,324.6,301.9
841.2,1608,12.9,8.0,73,8.05,222,7.5,300.5,324.5,301.9
840.6,1614,12.8,7.9,72,7.99,222,7.5,300.5,324.4,302.0
840.0,1621,12.8,8.0,73,8.03,222,7.6,300.5,324.5,302.0
839.3,1627,12.7,8.1,74,8.10,222,7.6,300.5,324.7,302.0
838.7,1634,12.6,8.0,73,8.03,222,7.7,300.5,324.5,302.0
838.0,1641,12.7,7.5,71,7.77,222,7.7,300.6,323.8,302.0
837.3,1647,12.7,6.9,68,7.47,223,7.7,300.7,323.1,302.1
836.6,1654,12.8,6.3,65,7.20,223,7.8,300.9,322.4,302.2
835.9,1661,12.7,5.8,63,6.95,223,7.9,300.9,321.8,302.2
835.3,1668,12.7,5.7,62,6.87,223,7.9,300.9,321.6,302.1
834.6,1675,12.6,6.0,64,7.07,223,8.0,300.9,322.1,302.2
833.9,1682,12.5,6.8,68,7.45,223,8.1,300.8,323.2,302.2
833.2,1689,12.4,7.3,71,7.73,223,8.1,300.8,323.9,302.2
832.5,1696,12.3,7.4,72,7.77,224,8.2,300.7,324.0,302.2
831.9,1702,12.2,7.2,72,7.67,224,8.3,300.7,323.7,302.1
831.2,1709,12.2,6.3,67,7.23,224,8.4,300.8,322.5,302.1
830.5,1716,12.3,4.9,61,6.56,224,8.5,301.0,320.8,302.2
829.9,1723,12.5,4.1,56,6.18,224,8.6,301.2,319.9,302.4
829.2,1729,12.6,3.9,55,6.10,225,8.7,301.4,319.9,302.5
828.6,1736,12.6,4.0,56,6.14,225,8.7,301.5,320.1,302.6
827.9,1742,12.6,4.2,57,6.24,225,8.8,301.6,320.4,302.7
827.3,1748,12.5,4.2,57,6.26,225,8.9,301.5,320.5,302.7
826.7,1754,12.5,3.9,56,6.14,225,9.0,301.6,320.1,302.7
826.1,1761,12.5,3.6,55,6.01,225,9.1,301.7,319.9,302.8
825.5,1767,12.5,3.7,55,6.04,226,9.1,301.7,320.0,302.8
824.8,1773,12.4,3.8,56,6.12,226,9.2,301.7,320.2,302.8
824.2,1780,12.3,3.7,56,6.07,226,9.2,301.7,320.1,302.8
823.5,1787,12.3,3.0,53,5.76,226,9.3,301.7,319.2,302.8
822.8,1794,12.4,2.0,49,5.37,226,9.3,301.9,318.2,302.9
822.1,1801,12.4,1.2,46,5.09,226,9.3,302.0,317.6,302.9
821.4,1808,12.4,0.7,44,4.89,227,9.3,302.1,317.1,303.0
820.7,1815,12.5,-0.1,42,4.64,227,9.3,302.2,316.5,303.1
820.0,1822,12.6,-1.1,39,4.30,227,9.3,302.4,315.6,303.2
819.3,1829,12.7,-2.2,35,3.96,228,9.2,302.6,314.9,303.3
818.7,1836,12.8,-3.3,33,3.67,228,9.2,302.8,314.2,303.4
818.0,1843,12.9,-4.6,29,3.33,228,9.1,303.0,313.4,303.6
817.3,1850,13.1,-6.1,26,2.97,229,9.0,303.2,312.6,303.7
816.7,1857,13.2,-6.6,25,2.87,229,9.0,303.4,312.5,303.9
816.0,1863,13.2,-5.8,26,3.03,230,8.9,303.5,313.1,304.0
815.4,1870,13.1,-4.8,28,3.29,230,8.8,303.5,313.8,304.1
814.7,1877,13.0,-3.6,31,3.61,231,8.6,303.4,314.7,304.1
814.0,1884,12.9,-1.8,36,4.12,232,8.5,303.4,316.2,304.1
813.3,1892,12.8,0.1,42,4.75,232,8.4,303.3,318.0,304.2
812.6,1899,12.7,1.2,45,5.14,233,8.3,303.3,319.1,304.2
811.9,1907,12.6,1.0,45,5.08,234,8.2,303.3,318.9,304.2
811.2,1914,12.5,0.3,43,4.83,235,8.1,303.3,318.1,304.1
810.5,1921,12.4,-0.5,41,4.55,236,8.0,303.2,317.3,304.1
809.8,1928,12.4,-1.7,38,4.16,236,7.9,303.2,316.1,304.0
809.1,1935,12.3,-3.2,34,3.75,237,7.8,303.3,315.0,304.0
808.4,1942,12.3,-4.1,31,3.48,238,7.7,303.4,314.3,304.0
807.7,1949,12.4,-4.3,31,3.44,239,7.6,303.5,314.3,304.1
807.0,1957,12.4,-3.3,33,3.71,240,7.6,303.5,315.1,304.2
806.4,1964,12.3,-1.5,38,4.24,241,7.5,303.5,316.7,304.3
805.7,1970,12.1,-0.3,42,4.66,242,7.5,303.5,317.9,304.3
805.1,1977,12.1,-0.2,43,4.68,243,7.5,303.4,317.9,304.3
804.4,1983,12.0,-1.3,40,4.32,244,7.5,303.4,316.8,304.2
803.8,1990,12.0,-3.7,33,3.62,244,7.5,303.5,314.8,304.1
803.2,1996,12.1,-6.9,26,2.84,245,7.5,303.7,312.7,304.2
802.6,2003,12.3,-8.9,22,2.43,246,7.6,304.0,311.8,304.4
802.0,2009,12.4,-9.1,21,2.40,246,7.7,304.1,311.8,304.6
801.3,2016,12.4,-8.8,22,2.46,247,7.7,304.2,312.0,304.6
800.7,2022,12.3,-8.8,22,2.45,247,7.8,304.2,312.0,304.7
800.1,2029,12.3,-9.0,22,2.42,247,7.9,304.2,312.0,304.7
799.5,2035,12.3,-9.1,22,2.40,248,8.0,304.3,311.9,304.7
798.9,2041,12.3,-9.5,21,2.33,248,8.1,304.3,311.8,304.7
798.3,2047,12.3,-9.8,20,2.27,248,8.2,304.4,311.7,304.8
797.8,2053,12.3,-9.3,21,2.38,249,8.3,304.4,312.1,304.9
797.2,2059,12.2,-7.8,24,2.68,249,8.4,304.5,313.0,305.0
796.7,2065,12.2,-6.3,27,3.00,249,8.5,304.5,314.0,305.0
796.1,2071,12.1,-5.8,28,3.11,249,8.6,304.5,314.3,305.0
795.5,2077,12.0,-6.6,27,2.93,249,8.7,304.4,313.7,305.0
794.9,2083,12.0,-8.0,24,2.63,249,8.8,304.4,312.8,304.9
794.3,2089,11.9,-9.5,21,2.34,249,8.9,304.4,312.0,304.9
793.7,2095,11.9,-10.4,20,2.18,249,9.0,304.5,311.5,304.9
793.2,2102,11.9,-10.2,20,2.23,249,9.0,304.5,311.7,304.9
792.6,2108,11.8,-9.0,22,2.44,249,9.1,304.5,312.3,304.9
792.0,2114,11.6,-7.9,25,2.66,249,9.2,304.4,312.8,304.8
791.4,2120,11.5,-7.6,25,2.73,249,9.2,304.3,313.0,304.8
790.9,2125,11.6,-7.6,25,2.74,249,9.3,304.4,313.1,304.9
790.3,2131,11.6,-7.1,26,2.84,249,9.3,304.6,313.6,305.1
789.8,2137,11.6,-6.9,27,2.89,249,9.3,304.6,313.8,305.2
789.2,2143,11.6,-7.0,26,2.86,249,9.4,304.7,313.8,305.2
788.7,2148,11.6,-7.2,26,2.82,248,9.4,304.7,313.7,305.3
788.2,2154,11.6,-7.4,26,2.79,248,9.4,304.8,313.7,305.3
787.7,2159,11.6,-7.4,26,2.78,248,9.4,304.8,313.7,305.3
787.2,2164,11.5,-7.4,26,2.80,248,9.4,304.8,313.7,305.3
786.8,2169,11.5,-7.3,26,2.81,247,9.4,304.8,313.7,305.3
786.3,2174,11.4,-7.3,26,2.82,247,9.3,304.8,313.8,305.3
785.8,2180,11.4,-7.3,26,2.81,247,9.3,304.8,313.8,305.3
785.3,2185,11.3,-7.3,26,2.81,246,9.3,304.8,313.7,305.3
784.7,2191,11.3,-7.3,26,2.81,246,9.3,304.8,313.8,305.3
784.2,2197,11.2,-7.2,27,2.85,245,9.2,304.8,313.9,305.3
783.6,2203,11.2,-6.7,28,2.95,245,9.2,304.8,314.2,305.4
783.0,2209,11.1,-6.2,29,3.07,244,9.2,304.9,314.6,305.4
782.4,2215,11.1,-5.9,30,3.14,244,9.1,304.9,314.9,305.5
781.9,2221,11.2,-6.1,29,3.10,243,9.1,305.1,314.9,305.6
781.3,2227,11.3,-6.6,28,2.99,243,9.0,305.2,314.7,305.8
780.8,2233,11.4,-7.1,27,2.88,242,9.0,305.4,314.5,305.9
780.2,2239,11.4,-7.3,26,2.82,242,8.9,305.5,314.5,306.0
779.7,2244,11.4,-7.4,26,2.82,241,8.9,305.5,314.5,306.0
779.2,2250,11.3,-7.3,26,2.84,241,8.8,305.5,314.6,306.0
778.6,2256,11.3,-7.1,27,2.88,240,8.8,305.5,314.7,306.0
778.1,2261,11.2,-7.1,27,2.89,240,8.7,305.5,314.7,306.0
777.6,2267,11.2,-7.2,27,2.86,239,8.6,305.5,314.6,306.0
777.1,2273,11.1,-7.5,26,2.79,239,8.6,305.5,314.4,306.0
776.6,2278,11.1,-7.8,26,2.73,238,8.5,305.5,314.3,306.0
