PRES,HGHT,TEMP,DWPT,RELH,MIXR,DRCT,SPED,THTA,THTE,THTV
1017.0,31,23.0,20.5,86,15.14,71,4.5,294.7,338.2,297.4
1016.3,36,23.4,20.2,82,14.82,70,3.0,295.2,337.8,297.8
1015.8,41,23.4,20.0,81,14.65,69,2.7,295.2,337.4,297.8
1015.2,46,23.4,19.8,80,14.47,69,2.8,295.3,337.0,297.8
1014.6,51,23.5,19.6,79,14.33,68,3.1,295.4,336.7,297.9
1014.2,55,23.5,19.5,79,14.25,68,3.4,295.4,336.5,297.9
1013.6,60,23.4,19.5,78,14.18,68,3.6,295.4,336.3,297.9
1012.9,66,23.4,19.4,78,14.12,67,3.9,295.4,336.2,297.9
1012.3,71,23.3,19.3,78,14.09,67,4.2,295.4,336.1,297.9
1011.7,76,23.3,19.3,78,14.05,67,4.4,295.4,335.9,297.9
1011.1,81,23.2,19.2,78,13.98,67,4.6,295.4,335.7,297.9
1010.5,86,23.2,19.1,78,13.90,66,4.9,295.4,335.5,297.9
1009.9,91,23.1,19.0,77,13.78,66,5.1,295.5,335.2,297.9
1009.3,97,23.1,18.8,77,13.66,66,5.3,295.5,334.9,297.9
1008.7,102,23.1,18.7,76,13.54,66,5.5,295.5,334.6,297.9
1008.1,107,23.1,18.5,76,13.43,66,5.7,295.5,334.3,297.9
1007.5,113,23.1,18.5,76,13.42,66,5.8,295.6,334.3,298.0
1006.9,118,23.0,18.6,76,13.55,66,6.0,295.6,334.7,298.0
1006.4,122,23.0,18.8,77,13.72,66,6.1,295.6,335.2,298.0
1005.8,127,23.0,19.0,78,13.87,67,6.2,295.6,335.7,298.1
1005.3,132,22.9,19.0,79,13.93,67,6.3,295.6,335.8,298.1
1004.7,137,22.9,19.0,79,13.92,67,6.4,295.6,335.8,298.1
1004.2,142,22.8,19.1,79,13.95,67,6.5,295.6,335.9,298.1
1003.6,147,22.8,19.2,80,14.06,67,6.6,295.6,336.2,298.1
1003.0,152,22.8,19.4,81,14.25,67,6.7,295.7,336.8,298.2
1002.3,157,22.7,19.6,83,14.48,68,6.7,295.7,337.5,298.3
1001.7,163,22.7,19.7,83,14.59,68,6.7,295.7,337.8,298.3
1001.1,168,22.6,19.7,83,14.55,68,6.8,295.7,337.7,298.3
1000.5,174,22.6,19.6,84,14.54,69,6.8,295.7,337.6,298.3
1000.0,178,22.5,19.7,84,14.57,69,6.8,295.7,337.8,298.3
999.9,179,22.5,19.7,84,14.58,69,6.8,295.7,337.8,298.3
999.3,184,22.5,19.7,84,14.58,69,6.8,295.7,337.8,298.3
998.7,189,22.5,19.6,84,14.52,69,6.8,295.7,337.6,298.3
998.1,195,22.4,19.6,84,14.49,70,6.8,295.7,337.6,298.3
997.5,200,22.4,19.6,84,14.52,70,6.8,295.7,337.6,298.3
996.9,205,22.3,19.6,84,14.51,70,6.8,295.7,337.6,298.3
996.3,211,22.3,19.5,85,14.49,70,6.7,295.7,337.5,298.3
995.7,216,22.2,19.5,85,14.50,71,6.7,295.7,337.6,298.3
995.1,221,22.2,19.5,85,14.53,71,6.7,295.7,337.7,298.3
994.5,226,22.1,19.6,85,14.54,71,6.7,295.7,337.7,298.3
993.9,231,22.1,19.6,86,14.55,71,6.7,295.7,337.7,298.3
993.3,236,22.0,19.6,86,14.56,71,6.6,295.7,337.8,298.3
992.7,242,22.0,19.5,86,14.56,71,6.6,295.7,337.8,298.3
992.1,247,21.9,19.5,86,14.55,71,6.6,295.7,337.7,298.3
991.5,253,21.9,19.5,86,14.54,71,6.6,295.7,337.7,298.3
990.8,258,21.8,19.5,87,14.54,70,6.6,295.7,337.7,298.3
990.2,264,21.7,19.5,87,14.53,70,6.6,295.7,337.6,298.3
989.6,269,21.7,19.4,87,14.52,70,6.6,295.7,337.6,298.3
989.0,275,21.6,19.5,87,14.54,70,6.6,295.7,337.7,298.3
988.4,280,21.6,19.5,88,14.59,69,6.6,295.7,337.8,298.3
987.8,285,21.6,19.5,88,14.64,69,6.6,295.7,338.0,298.3
987.2,290,21.5,19.5,89,14.64,69,6.6,295.7,338.0,298.3
986.6,295,21.5,19.5,89,14.63,68,6.6,295.7,338.0,298.3
986.1,300,21.4,19.5,89,14.66,68,6.6,295.7,338.1,298.3
985.5,305,21.4,19.6,90,14.73,68,6.6,295.8,338.3,298.4
985.0,310,21.3,19.6,90,14.76,68,6.6,295.7,338.4,298.4
984.4,315,21.3,19.6,90,14.74,68,6.6,295.7,338.3,298.4
983.9,319,21.2,19.5,90,14.69,67,6.6,295.7,338.1,298.3
983.4,324,21.2,19.5,90,14.68,67,6.6,295.7,338.1,298.3
982.9,328,21.1,19.6,91,14.73,67,6.6,295.7,338.2,298.3
982.4,333,21.1,19.6,91,14.79,68,6.7,295.7,338.4,298.3
981.9,337,21.0,19.7,92,14.83,68,6.7,295.7,338.5,298.4
981.4,341,21.0,19.6,92,14.83,68,6.7,295.7,338.5,298.4
980.9,346,21.0,19.6,92,14.81,68,6.7,295.7,338.5,298.4
980.4,350,20.9,19.6,92,14.80,69,6.7,295.8,338.5,298.4
979.9,355,20.9,19.6,92,14.80,69,6.7,295.8,338.5,298.4
979.3,360,20.9,19.6,93,14.82,69,6.7,295.8,338.5,298.4
978.7,365,20.8,19.6,93,14.85,70,6.7,295.8,338.6,298.4
978.1,371,20.7,19.7,94,14.92,71,6.7,295.8,338.8,298.4
977.5,376,20.7,19.8,95,15.05,71,6.7,295.8,339.2,298.4
976.9,381,20.7,19.9,96,15.19,72,6.7,295.8,339.6,298.5
976.4,386,20.6,20.0,96,15.25,72,6.7,295.8,339.8,298.5
975.8,391,20.6,20.0,96,15.26,73,6.7,295.8,339.9,298.5
975.2,396,20.6,20.0,97,15.27,74,6.7,295.8,339.9,298.5
974.7,401,20.5,20.0,97,15.28,74,6.7,295.8,339.9,298.5
974.2,405,20.5,20.0,97,15.29,75,6.7,295.8,339.9,298.5
973.7,410,20.4,20.0,97,15.30,76,6.7,295.8,340.0,298.5
973.2,415,20.4,20.0,98,15.33,76,6.7,295.8,340.1,298.6
972.7,419,20.4,20.0,98,15.34,77,6.7,295.9,340.1,298.6
972.2,424,20.3,20.0,98,15.35,77,6.7,295.9,340.2,298.6
971.6,428,20.3,20.0,98,15.34,78,6.8,295.9,340.2,298.6
971.1,433,20.3,20.0,98,15.31,78,6.8,295.9,340.1,298.6
970.6,437,20.2,19.9,98,15.25,79,6.8,295.9,339.9,298.6
970.1,442,20.2,19.8,98,15.18,79,6.8,295.9,339.7,298.6
969.6,446,20.1,19.8,98,15.12,79,6.8,295.9,339.5,298.6
969.1,451,20.1,19.7,97,15.07,79,6.9,295.9,339.4,298.6
968.6,455,20.1,19.7,97,15.04,79,6.9,295.9,339.3,298.6
968.1,460,20.1,19.6,97,15.02,80,6.9,295.9,339.3,298.6
967.6,464,20.0,19.5,97,14.93,80,7.0,295.9,339.1,298.6
967.1,469,20.0,19.3,96,14.74,80,7.0,296.0,338.5,298.6
966.6,474,20.0,19.0,94,14.48,80,7.0,296.0,337.8,298.6
966.0,478,20.0,18.8,93,14.26,80,7.1,296.1,337.3,298.6
965.5,483,20.0,18.6,92,14.13,80,7.1,296.1,337.0,298.6
964.9,488,20.0,18.5,91,13.99,80,7.2,296.2,336.7,298.7
964.4,493,20.1,18.3,90,13.87,80,7.2,296.3,336.4,298.7
963.8,498,20.1,18.3,89,13.82,80,7.2,296.3,336.4,298.8
963.2,504,20.1,18.3,89,13.85,80,7.3,296.4,336.5,298.8
962.7,509,20.0,18.3,90,13.86,80,7.3,296.4,336.5,298.8
962.1,514,20.0,18.3,90,13.87,80,7.4,296.4,336.5,298.8
961.5,519,19.9,18.3,90,13.87,80,7.4,296.4,336.6,298.9
961.0,524,19.9,18.3,90,13.88,80,7.4,296.4,336.6,298.9
960.4,529,19.9,18.3,90,13.88,80,7.5,296.4,336.6,298.9
959.9,533,19.8,18.2,91,13.87,80,7.5,296.4,336.6,298.9
959.4,538,19.8,18.2,91,13.85,80,7.5,296.4,336.5,298.9
958.8,543,19.7,18.2,91,13.81,81,7.6,296.4,336.4,298.9
958.3,548,19.7,18.0,90,13.71,81,7.6,296.5,336.2,298.9
957.7,553,19.7,17.9,89,13.58,81,7.6,296.5,335.9,298.9
957.2,558,19.7,17.7,88,13.47,81,7.7,296.5,335.6,298.9
956.7,563,19.7,17.7,88,13.41,82,7.7,296.6,335.4,298.9
956.1,567,19.6,17.7,88,13.43,82,7.7,296.6,335.5,299.0
955.6,572,19.6,17.7,89,13.45,82,7.7,296.6,335.6,299.0
955.0,577,19.5,17.7,89,13.45,82,7.7,296.6,335.5,298.9
954.5,582,19.5,17.7,89,13.47,83,7.7,296.6,335.6,299.0
954.0,587,19.4,17.7,90,13.48,83,7.7,296.6,335.6,299.0
953.4,592,19.4,17.7,90,13.48,83,7.7,296.6,335.6,299.0
952.9,597,19.4,17.7,90,13.46,83,7.7,296.6,335.6,299.0
952.4,601,19.3,17.7,90,13.46,83,7.7,296.6,335.6,299.0
951.8,606,19.3,17.6,90,13.44,84,7.7,296.6,335.5,298.9
951.3,611,19.2,17.5,90,13.32,84,7.6,296.5,335.2,298.9
950.8,616,19.2,17.2,88,13.07,84,7.6,296.6,334.5,298.9
950.3,620,19.2,16.9,86,12.84,84,7.6,296.6,333.9,298.9
949.7,625,19.2,16.8,86,12.77,84,7.5,296.7,333.8,299.0
949.2,631,19.2,16.9,86,12.83,84,7.5,296.8,334.0,299.1
948.6,636,19.2,16.9,87,12.88,84,7.4,296.8,334.2,299.1
947.9,642,19.1,16.9,87,12.89,84,7.3,296.8,334.2,299.1
947.3,647,19.1,16.9,87,12.85,84,7.3,296.8,334.1,299.1
946.7,653,19.0,16.8,87,12.81,84,7.2,296.8,334.0,299.1
946.1,659,19.0,16.8,87,12.79,84,7.1,296.8,334.0,299.1
945.5,664,19.0,16.8,87,12.80,84,7.0,296.8,334.0,299.1
944.9,669,18.9,16.8,87,12.81,84,6.9,296.8,334.1,299.1
944.4,674,18.9,16.8,87,12.82,84,6.8,296.9,334.1,299.1
943.9,679,18.9,16.8,88,12.86,84,6.7,296.9,334.2,299.1
943.4,683,18.8,16.9,88,12.92,83,6.7,296.9,334.4,299.2
942.9,687,18.8,16.9,89,12.94,83,6.6,296.9,334.4,299.2
942.5,692,18.7,16.9,89,12.93,83,6.5,296.9,334.4,299.2
942.0,696,18.7,16.8,89,12.91,83,6.4,296.9,334.4,299.2
941.6,700,18.7,16.8,89,12.90,83,6.3,296.9,334.4,299.2
941.1,704,18.7,16.8,89,12.87,83,6.3,296.9,334.3,299.2
940.6,708,18.7,16.7,88,12.84,82,6.2,297.0,334.3,299.2
940.1,713,18.6,16.7,88,12.79,82,6.2,297.0,334.1,299.2
939.6,717,18.6,16.6,88,12.75,82,6.1,297.0,334.0,299.3
939.1,722,18.6,16.5,88,12.70,82,6.1,297.0,333.9,299.3
938.6,727,18.6,16.4,87,12.63,81,6.1,297.0,333.8,299.3
938.1,731,18.6,16.4,87,12.58,81,6.1,297.1,333.7,299.3
937.6,736,18.6,16.3,87,12.54,81,6.1,297.1,333.6,299.4
937.1,741,18.5,16.3,87,12.52,80,6.1,297.1,333.6,299.4
936.6,745,18.5,16.2,86,12.48,80,6.1,297.2,333.5,299.4
936.1,750,18.5,16.1,86,12.42,80,6.2,297.2,333.4,299.4
935.6,754,18.5,16.1,86,12.37,80,6.2,297.2,333.2,299.4
935.2,758,18.4,16.1,86,12.39,79,6.3,297.2,333.3,299.4
934.7,763,18.4,16.2,87,12.45,79,6.3,297.2,333.5,299.4
934.2,767,18.4,16.2,88,12.53,79,6.4,297.2,333.7,299.5
933.8,771,18.3,16.3,88,12.55,79,6.5,297.2,333.8,299.5
933.3,775,18.3,16.2,87,12.50,79,6.5,297.3,333.7,299.5
932.9,779,18.3,16.1,87,12.43,79,6.6,297.3,333.5,299.5
932.4,783,18.3,16.1,87,12.43,78,6.6,297.4,333.5,299.6
932.0,788,18.3,16.1,87,12.48,78,6.7,297.4,333.7,299.6
931.6,792,18.3,16.2,88,12.53,78,6.8,297.4,333.8,299.6
931.1,796,18.2,16.2,88,12.57,78,6.8,297.4,334.0,299.6
930.7,800,18.2,16.3,88,12.60,78,6.9,297.4,334.1,299.7
930.2,804,18.3,16.3,88,12.60,78,6.9,297.5,334.2,299.7
929.7,808,18.3,16.2,88,12.58,78,6.9,297.5,334.2,299.8
929.3,813,18.2,16.2,88,12.56,78,7.0,297.5,334.1,299.8
928.8,817,18.2,16.2,88,12.55,78,7.0,297.6,334.1,299.8
928.4,821,18.2,16.1,88,12.52,78,7.0,297.6,334.1,299.8
927.9,825,18.1,16.1,88,12.51,78,7.0,297.6,334.1,299.8
927.5,829,18.1,16.1,88,12.50,77,7.0,297.6,334.0,299.8
927.1,833,18.1,16.1,88,12.50,77,7.0,297.6,334.0,299.8
926.6,837,18.1,16.1,88,12.50,77,6.9,297.6,334.1,299.8
926.2,841,18.0,16.1,88,12.52,77,6.9,297.6,334.1,299.9
925.8,845,18.0,16.1,89,12.52,77,6.9,297.6,334.1,299.9
925.4,848,18.0,16.1,89,12.53,77,6.9,297.6,334.1,299.9
925.0,852,17.9,16.1,89,12.53,77,6.8,297.6,334.2,299.9
924.6,856,17.9,16.1,89,12.55,77,6.8,297.6,334.2,299.9
924.2,860,17.8,16.1,90,12.58,76,6.8,297.6,334.3,299.9
923.7,864,17.8,16.2,90,12.60,76,6.7,297.6,334.4,299.9
923.3,869,17.8,16.2,90,12.61,76,6.7,297.6,334.4,299.9
922.8,873,17.8,16.1,90,12.60,76,6.7,297.7,334.4,299.9
922.3,877,17.8,16.1,90,12.57,76,6.6,297.7,334.4,299.9
921.9,881,17.7,16.1,90,12.55,75,6.6,297.7,334.3,300.0
921.4,885,17.8,16.1,90,12.57,75,6.6,297.8,334.5,300.0
921.0,890,17.8,16.1,90,12.58,75,6.6,297.8,334.5,300.1
920.5,894,17.7,16.0,90,12.56,75,6.6,297.8,334.5,300.1
920.1,898,17.7,16.0,90,12.52,74,6.6,297.9,334.4,300.1
919.6,902,17.7,16.0,90,12.51,74,6.6,297.9,334.4,300.1
919.2,906,17.7,16.0,89,12.51,74,6.7,298.0,334.5,300.2
918.7,911,17.7,15.9,89,12.50,74,6.7,298.0,334.5,300.2
918.3,915,17.7,15.9,89,12.47,73,6.7,298.0,334.5,300.3
917.8,919,17.7,15.9,89,12.46,73,6.8,298.1,334.4,300.3
917.3,924,17.7,15.9,89,12.45,73,6.9,298.1,334.5,300.3
916.8,928,17.7,15.9,89,12.46,72,7.0,298.1,334.5,300.3
916.4,933,17.6,15.9,89,12.47,72,7.0,298.1,334.5,300.3
915.9,937,17.6,15.9,90,12.49,72,7.1,298.1,334.6,300.3
915.4,942,17.5,15.9,90,12.50,72,7.2,298.1,334.6,300.3
914.9,946,17.4,15.8,90,12.46,72,7.4,298.1,334.5,300.3
914.4,951,17.4,15.8,90,12.44,71,7.5,298.1,334.4,300.3
914.0,955,17.4,15.8,90,12.43,71,7.6,298.1,334.4,300.3
913.5,960,17.4,15.8,90,12.45,71,7.7,298.1,334.5,300.3
913.1,964,17.3,15.8,91,12.46,71,7.9,298.1,334.5,300.4
912.7,967,17.3,15.8,91,12.46,70,8.0,298.1,334.5,300.4
912.3,971,17.3,15.8,91,12.47,70,8.1,298.1,334.6,300.4
911.9,975,17.2,15.8,91,12.50,70,8.2,298.1,334.7,300.4
911.5,979,17.2,15.8,91,12.49,69,8.4,298.2,334.7,300.4
911.1,982,17.2,15.8,92,12.49,69,8.5,298.1,334.6,300.4
910.7,986,17.1,15.8,92,12.48,69,8.6,298.1,334.6,300.4
910.3,989,17.1,15.8,92,12.46,69,8.7,298.1,334.5,300.3
909.9,993,17.0,15.7,92,12.44,68,8.8,298.1,334.4,300.3
909.6,997,17.0,15.7,92,12.44,68,8.9,298.1,334.4,300.3
909.2,1000,17.0,15.7,92,12.44,68,9.0,298.1,334.4,300.3
908.8,1004,16.9,15.7,92,12.43,67,9.0,298.1,334.4,300.3
908.4,1007,16.9,15.7,93,12.46,67,9.1,298.1,334.5,300.3
908.1,1011,16.9,15.7,93,12.48,67,9.1,298.1,334.6,300.3
907.7,1014,16.8,15.7,93,12.49,66,9.2,298.1,334.6,300.4
907.3,1018,16.8,15.7,93,12.47,66,9.2,298.1,334.6,300.4
907.0,1021,16.8,15.7,93,12.45,66,9.2,298.1,334.5,300.4
906.6,1024,16.7,15.6,93,12.42,66,9.2,298.1,334.4,300.3
906.3,1028,16.7,15.6,93,12.40,65,9.2,298.1,334.4,300.4
905.9,1031,16.7,15.6,93,12.39,65,9.1,298.2,334.4,300.4
905.6,1034,16.7,15.6,93,12.39,65,9.1,298.2,334.4,300.4
905.2,1038,16.7,15.6,93,12.38,65,9.1,298.2,334.3,300.4
904.8,1042,16.6,15.6,93,12.38,65,9.0,298.2,334.3,300.4
904.4,1045,16.6,15.5,93,12.37,64,8.9,298.2,334.3,300.4
904.0,1049,16.6,15.5,94,12.38,64,8.9,298.2,334.4,300.4
903.6,1053,16.5,15.6,94,12.39,64,8.8,298.2,334.4,300.4
903.2,1057,16.5,15.6,94,12.40,64,8.7,298.2,334.4,300.4
902.7,1061,16.5,15.5,94,12.39,65,8.6,298.2,334.4,300.4
902.3,1065,16.4,15.5,94,12.36,65,8.5,298.2,334.3,300.4
901.9,1069,16.4,15.4,94,12.31,65,8.4,298.2,334.2,300.4
901.4,1073,16.4,15.4,94,12.29,65,8.3,298.2,334.2,300.4
901.0,1077,16.4,15.4,94,12.28,65,8.1,298.3,334.1,300.5
900.6,1081,16.3,15.4,94,12.28,66,8.0,298.3,334.2,300.5
900.2,1085,16.3,15.4,94,12.29,66,7.9,298.3,334.2,300.5
899.7,1089,16.3,15.4,94,12.32,67,7.8,298.3,334.3,300.5
899.3,1093,16.3,15.4,95,12.35,67,7.6,298.3,334.4,300.5
898.9,1098,16.2,15.4,95,12.37,68,7.5,298.3,334.5,300.5
898.4,1102,16.2,15.4,95,12.38,68,7.3,298.3,334.5,300.6
897.9,1106,16.2,15.4,95,12.37,69,7.2,298.4,334.5,300.6
897.4,1111,16.2,15.4,95,12.36,69,7.0,298.4,334.5,300.6
896.9,1116,16.2,15.4,95,12.37,70,6.9,298.5,334.6,300.7
896.4,1121,16.2,15.4,95,12.36,71,6.8,298.5,334.7,300.7
895.8,1127,16.2,15.4,95,12.35,72,6.6,298.5,334.7,300.8
895.3,1132,16.1,15.3,95,12.32,72,6.5,298.5,334.6,300.8
894.7,1138,16.1,15.3,95,12.28,73,6.3,298.6,334.6,300.8
894.1,1143,16.1,15.2,94,12.28,74,6.2,298.7,334.6,300.9
893.5,1149,16.2,15.2,94,12.27,75,6.1,298.8,334.7,301.0
892.9,1154,16.1,15.2,94,12.24,76,6.0,298.8,334.7,301.0
892.3,1160,16.1,15.2,94,12.23,77,5.9,298.8,334.6,301.0
891.8,1165,16.0,15.1,94,12.21,78,5.8,298.8,334.6,301.0
891.2,1171,16.0,15.1,95,12.20,78,5.7,298.8,334.6,301.0
890.6,1176,15.9,15.1,95,12.20,79,5.6,298.8,334.6,301.0
890.1,1182,15.9,15.1,95,12.24,80,5.5,298.8,334.7,301.0
889.5,1187,15.9,15.1,95,12.26,81,5.5,298.8,334.8,301.0
889.0,1192,15.8,15.1,96,12.26,82,5.4,298.8,334.8,301.0
888.5,1197,15.8,15.1,96,12.24,83,5.4,298.8,334.7,301.0
888.0,1202,15.7,15.1,96,12.25,83,5.4,298.9,334.8,301.1
887.5,1207,15.7,15.1,96,12.28,84,5.4,298.9,334.9,301.1
887.0,1211,15.7,15.2,97,12.31,85,5.4,298.9,335.0,301.1
886.5,1216,15.6,15.2,97,12.33,85,5.4,298.9,335.0,301.1
886.0,1221,15.6,15.1,97,12.31,86,5.4,298.9,335.0,301.1
885.5,1225,15.5,15.1,97,12.28,86,5.4,298.9,334.9,301.1
885.0,1230,15.5,15.1,97,12.26,87,5.4,298.9,334.9,301.1
884.5,1235,15.5,15.0,97,12.23,87,5.4,299.0,334.8,301.2
884.1,1239,15.5,15.0,97,12.22,88,5.5,299.0,334.8,301.2
883.6,1244,15.5,15.0,97,12.24,88,5.5,299.0,334.9,301.2
883.1,1248,15.4,15.1,98,12.29,89,5.5,299.0,335.0,301.2
882.6,1253,15.3,15.1,98,12.33,89,5.6,299.0,335.1,301.2
882.2,1257,15.3,15.1,99,12.32,89,5.6,299.0,335.1,301.2
881.7,1262,15.3,15.0,98,12.27,89,5.6,299.0,335.0,301.2
881.3,1266,15.3,14.9,98,12.21,90,5.6,299.0,334.9,301.2
880.9,1270,15.3,14.9,98,12.18,90,5.7,299.1,334.8,301.2
880.5,1274,15.3,14.9,98,12.19,90,5.7,299.1,334.8,301.3
880.1,1278,15.2,14.9,98,12.21,90,5.7,299.1,334.9,301.3
879.7,1282,15.2,14.9,98,12.21,90,5.7,299.1,334.9,301.3
879.3,1286,15.2,14.9,98,12.19,90,5.7,299.1,334.9,301.3
878.9,1290,15.2,14.8,98,12.16,90,5.7,299.1,334.8,301.3
878.5,1293,15.2,14.8,98,12.12,90,5.7,299.2,334.7,301.3
878.1,1297,15.1,14.7,97,12.09,90,5.7,299.2,334.7,301.4
877.7,1301,15.1,14.7,98,12.10,90,5.7,299.2,334.7,301.4
877.3,1305,15.1,14.8,98,12.13,90,5.6,299.2,334.8,301.4
876.8,1309,15.1,14.8,98,12.16,90,5.6,299.3,335.0,301.4
876.4,1313,15.0,14.8,99,12.18,90,5.6,299.3,335.0,301.4
876.0,1317,15.0,14.8,99,12.19,90,5.6,299.2,335.0,301.4
875.6,1322,15.0,14.8,99,12.18,90,5.6,299.2,335.0,301.4
875.1,1326,14.9,14.8,99,12.16,91,5.5,299.3,335.0,301.5
874.7,1330,14.9,14.7,99,12.13,91,5.5,299.3,334.9,301.5
874.2,1334,14.9,14.7,99,12.12,91,5.5,299.3,334.9,301.5
873.8,1339,14.9,14.7,99,12.10,91,5.5,299.3,334.9,301.5
873.4,1343,14.8,14.6,99,12.09,91,5.5,299.3,334.8,301.5
873.0,1347,14.8,14.6,99,12.09,91,5.5,299.3,334.9,301.5
872.5,1351,14.8,14.6,99,12.10,91,5.4,299.4,334.9,301.5
872.1,1355,14.7,14.7,99,12.11,91,5.4,299.4,335.0,301.5
871.8,1358,14.7,14.6,99,12.10,91,5.4,299.4,334.9,301.6
871.4,1362,14.7,14.6,99,12.08,91,5.4,299.4,334.9,301.6
871.0,1366,14.7,14.6,99,12.06,92,5.4,299.4,334.8,301.6
870.6,1369,14.7,14.5,99,12.02,92,5.4,299.4,334.7,301.6
870.3,1373,14.6,14.5,99,11.98,92,5.4,299.4,334.6,301.6
869.9,1377,14.6,14.4,99,11.98,92,5.3,299.5,334.7,301.6
869.5,1380,14.6,14.4,99,11.98,92,5.3,299.5,334.7,301.6
869.1,1384,14.6,14.4,99,11.99,92,5.3,299.5,334.7,301.6
868.7,1388,14.6,14.5,99,12.02,92,5.3,299.5,334.8,301.7
868.2,1393,14.5,14.5,100,12.03,92,5.3,299.5,334.9,301.7
867.8,1397,14.5,14.5,100,12.01,92,5.3,299.5,334.9,301.7
867.3,1402,14.5,14.4,99,11.97,92,5.2,299.6,334.8,301.7
866.8,1407,14.4,14.3,99,11.94,92,5.2,299.6,334.7,301.7
866.2,1412,14.4,14.3,99,11.92,92,5.2,299.6,334.7,301.8
865.7,1418,14.4,14.3,99,11.89,92,5.2,299.6,334.6,301.8
865.1,1423,14.3,14.2,99,11.84,92,5.1,299.6,334.5,301.8
864.6,1428,14.3,14.1,99,11.79,92,5.1,299.7,334.4,301.8
864.1,1434,14.3,14.0,98,11.74,92,5.1,299.7,334.2,301.8
863.6,1439,14.2,14.0,98,11.69,92,5.1,299.7,334.1,301.8
863.1,1443,14.2,14.0,98,11.70,92,5.0,299.7,334.1,301.8
862.6,1448,14.2,14.0,99,11.75,91,5.0,299.7,334.3,301.9
862.1,1453,14.2,14.1,99,11.80,91,5.0,299.8,334.5,301.9
861.6,1458,14.2,14.1,100,11.84,91,5.0,299.8,334.7,301.9
861.1,1463,14.1,14.1,100,11.83,91,4.9,299.8,334.6,302.0
860.6,1468,14.1,14.0,99,11.75,90,4.9,299.8,334.5,302.0
860.1,1472,14.1,13.9,99,11.67,90,4.9,299.9,334.3,302.0
859.6,1477,14.1,13.8,98,11.60,90,4.9,299.9,334.1,302.0
859.1,1482,14.0,13.7,98,11.57,90,4.9,299.9,334.0,302.0
858.6,1487,14.0,13.8,98,11.60,89,4.9,300.0,334.2,302.0
858.1,1492,14.0,13.8,99,11.64,89,4.8,300.0,334.3,302.1
857.6,1497,13.9,13.8,99,11.66,89,4.8,300.0,334.3,302.1
857.1,1502,13.9,13.7,99,11.61,88,4.8,300.0,334.2,302.1
856.5,1508,13.9,13.7,99,11.56,88,4.8,300.0,334.1,302.1
856.0,1513,13.8,13.6,99,11.54,88,4.8,300.0,334.1,302.1
855.5,1518,13.8,13.6,99,11.55,87,4.8,300.0,334.1,302.1
855.0,1523,13.8,13.6,99,11.54,87,4.8,300.1,334.1,302.1
854.4,1528,13.7,13.6,99,11.51,87,4.8,300.1,334.0,302.2
853.9,1533,13.7,13.5,99,11.49,86,4.8,300.1,334.0,302.2
853.4,1538,13.7,13.5,99,11.47,86,4.8,300.1,334.0,302.2
852.9,1543,13.7,13.4,98,11.43,86,4.8,300.2,333.9,302.2
852.5,1548,13.6,13.3,98,11.35,85,4.8,300.2,333.7,302.2
852.0,1553,13.6,13.2,98,11.30,85,4.8,300.2,333.6,302.2
851.5,1557,13.6,13.3,98,11.31,85,4.8,300.2,333.6,302.3
851.1,1562,13.6,13.3,98,11.37,84,4.8,300.2,333.8,302.3
850.6,1566,13.6,13.4,99,11.44,84,4.8,300.3,334.0,302.3
850.2,1571,13.5,13.5,99,11.48,84,4.8,300.3,334.2,302.4
850.0,1572,13.5,13.5,100,11.50,84,4.7,300.3,334.2,302.4
849.7,1575,13.5,13.5,100,11.51,84,4.7,300.3,334.3,302.4
849.3,1579,13.5,13.5,100,11.52,84,4.7,300.3,334.3,302.4
848.9,1584,13.5,13.4,100,11.48,83,4.7,300.3,334.2,302.4
848.4,1588,13.4,13.3,99,11.42,83,4.7,300.4,334.1,302.4
848.0,1593,13.4,13.2,99,11.33,83,4.7,300.4,333.8,302.4
847.5,1597,13.4,13.1,98,11.26,83,4.7,300.4,333.6,302.4
847.0,1602,13.3,13.0,98,11.20,83,4.6,300.4,333.5,302.4
846.6,1607,13.3,13.0,98,11.17,83,4.6,300.4,333.5,302.5
846.1,1611,13.3,13.0,98,11.18,83,4.6,300.5,333.5,302.5
845.6,1616,13.3,13.0,98,11.18,83,4.6,300.5,333.6,302.5
845.2,1621,13.3,12.9,98,11.15,82,4.6,300.5,333.5,302.5
844.7,1625,13.3,12.9,97,11.11,82,4.5,300.5,333.4,302.6
844.3,1630,13.2,12.8,97,11.07,82,4.5,300.6,333.3,302.6
843.8,1634,13.2,12.8,97,11.06,82,4.5,300.6,333.3,302.6
843.4,1638,13.2,12.7,97,11.04,82,4.5,300.6,333.3,302.6
843.0,1642,13.2,12.6,97,10.97,82,4.5,300.6,333.1,302.6
842.6,1646,13.2,12.4,95,10.83,82,4.4,300.7,332.8,302.6
842.2,1650,13.2,12.2,94,10.70,82,4.4,300.8,332.5,302.7
841.8,1654,13.3,12.1,93,10.58,82,4.4,300.8,332.2,302.8
841.4,1658,13.3,11.9,92,10.49,82,4.4,300.9,332.0,302.8
841.0,1662,13.2,11.8,91,10.42,82,4.4,300.9,331.8,302.8
840.6,1666,13.2,11.8,91,10.38,81,4.4,300.9,331.7,302.8
840.2,1670,13.2,11.8,91,10.39,81,4.4,301.0,331.8,302.9
839.8,1674,13.2,11.8,91,10.41,81,4.4,301.0,331.9,302.9
839.4,1678,13.2,11.8,91,10.42,81,4.4,301.1,332.0,303.0
839.0,1682,13.2,11.8,91,10.43,81,4.4,301.1,332.1,303.0
838.6,1686,13.2,11.8,91,10.42,81,4.4,301.1,332.1,303.0
