PRES,HGHT,TEMP,DWPT,RELH,MIXR,DRCT,SPED,THTA,THTE,THTV
1013.6,31,28.3,21.1,65,15.76,65,5.9,300.3,346.7,303.1
1013.2,34,28.1,21.3,67,15.96,55,2.3,300.1,347.1,303.0
1012.7,39,27.8,21.3,68,15.93,47,1.7,299.9,346.7,302.7
1011.9,46,27.4,21.2,69,15.87,44,1.6,299.6,346.2,302.4
1011.1,52,27.1,21.0,70,15.71,45,1.8,299.3,345.3,302.1
1010.6,57,26.8,20.8,70,15.48,47,2.0,299.0,344.4,301.8
1010.2,61,26.5,20.6,70,15.26,49,2.2,298.8,343.4,301.5
1009.7,65,26.2,20.4,70,15.07,49,2.4,298.6,342.6,301.3
1009.2,69,26.0,20.2,71,14.93,50,2.6,298.3,341.9,301.0
1008.7,74,25.7,20.1,71,14.88,50,2.8,298.1,341.5,300.8
1008.2,78,25.5,20.1,72,14.89,51,3.0,298.0,341.4,300.6
1007.7,82,25.5,20.2,72,14.93,51,3.2,298.0,341.5,300.6
1007.2,87,25.6,20.3,72,15.01,52,3.3,298.1,341.9,300.8
1006.6,91,25.7,20.3,72,15.10,52,3.5,298.3,342.3,301.0
1006.1,96,25.8,20.3,72,15.11,52,3.7,298.4,342.5,301.1
1005.5,102,25.8,20.3,71,15.06,53,3.9,298.5,342.5,301.2
1004.9,107,25.9,20.2,71,15.03,53,4.1,298.6,342.6,301.3
1004.3,112,25.9,20.2,71,14.98,53,4.2,298.7,342.5,301.4
1003.6,118,25.9,20.1,71,14.96,53,4.4,298.7,342.5,301.4
1003.0,123,25.9,20.2,71,15.04,53,4.5,298.8,342.8,301.5
1002.4,129,25.9,20.2,71,15.05,54,4.7,298.8,342.8,301.5
1001.8,134,25.5,20.1,72,14.95,54,4.8,298.5,342.2,301.2
1001.2,140,25.1,19.9,73,14.80,54,4.9,298.2,341.4,300.8
1000.6,145,25.1,20.0,73,14.87,54,5.0,298.2,341.6,300.8
1000.1,150,25.2,20.1,73,14.97,54,5.1,298.3,342.0,301.0
1000.0,150,25.2,20.1,73,14.96,54,5.2,298.3,342.0,301.0
999.5,154,25.2,20.0,73,14.92,54,5.2,298.4,342.0,301.0
999.0,159,25.2,20.0,73,14.86,54,5.2,298.4,341.8,301.1
998.5,163,25.1,19.9,73,14.82,53,5.3,298.4,341.7,301.0
997.9,168,24.9,19.8,73,14.75,53,5.3,298.3,341.3,300.9
997.4,173,24.8,19.8,74,14.74,53,5.3,298.2,341.2,300.8
996.8,178,24.7,19.9,74,14.83,53,5.3,298.2,341.4,300.8
996.2,183,24.7,19.9,75,14.87,53,5.3,298.2,341.6,300.9
995.6,189,24.7,19.9,75,14.89,53,5.3,298.2,341.7,300.9
994.9,195,24.7,20.0,75,14.93,53,5.3,298.3,341.9,300.9
994.2,201,24.7,20.1,75,15.02,52,5.3,298.3,342.2,301.0
993.6,207,24.7,20.1,76,15.10,52,5.2,298.4,342.5,301.1
992.9,212,24.7,20.1,76,15.11,52,5.2,298.5,342.6,301.2
992.3,218,24.7,20.0,75,15.04,52,5.1,298.5,342.4,301.2
991.7,224,24.6,20.0,75,14.96,52,5.1,298.5,342.2,301.2
991.1,229,24.5,19.9,75,14.88,51,5.0,298.4,341.9,301.1
990.5,234,24.3,19.7,76,14.73,51,5.0,298.2,341.2,300.9
990.0,239,24.0,19.5,76,14.60,51,4.9,298.0,340.6,300.6
989.4,243,23.9,19.5,77,14.61,51,4.9,297.9,340.5,300.6
988.9,248,23.8,19.6,77,14.64,51,4.8,297.9,340.6,300.6
988.4,253,23.8,19.5,77,14.62,51,4.8,297.9,340.6,300.6
987.9,257,23.8,19.5,77,14.58,51,4.7,297.9,340.4,300.5
987.4,262,23.7,19.5,77,14.58,51,4.7,297.9,340.4,300.5
986.9,266,23.7,19.5,77,14.60,51,4.6,297.9,340.5,300.5
986.4,271,23.6,19.5,78,14.63,51,4.6,297.9,340.6,300.5
985.9,275,23.6,19.5,78,14.65,51,4.6,297.9,340.6,300.5
985.3,280,23.5,19.5,78,14.63,52,4.5,297.9,340.6,300.5
984.8,284,23.5,19.5,78,14.61,52,4.5,297.9,340.5,300.5
984.3,289,23.4,19.4,78,14.60,52,4.5,297.9,340.5,300.5
983.8,294,23.4,19.4,78,14.59,53,4.5,297.9,340.5,300.5
983.3,298,23.3,19.5,79,14.62,53,4.5,297.9,340.5,300.5
982.7,303,23.3,19.5,79,14.66,54,4.5,297.9,340.6,300.5
982.2,308,23.2,19.5,79,14.67,55,4.5,297.9,340.7,300.5
981.6,313,23.2,19.5,80,14.67,55,4.5,297.9,340.7,300.5
981.1,317,23.2,19.5,80,14.71,56,4.5,297.9,340.8,300.5
980.6,322,23.1,19.6,81,14.77,56,4.5,297.9,341.0,300.5
980.0,327,23.0,19.6,81,14.83,57,4.5,297.9,341.1,300.6
979.4,332,23.0,19.7,82,14.88,58,4.5,297.9,341.3,300.6
978.9,337,22.9,19.7,82,14.92,58,4.6,297.9,341.4,300.6
978.3,342,22.9,19.7,82,14.94,59,4.6,297.9,341.4,300.6
977.7,348,22.8,19.7,82,14.90,60,4.6,297.9,341.3,300.6
977.2,353,22.8,19.6,82,14.87,60,4.6,297.9,341.2,300.5
976.6,358,22.7,19.6,83,14.90,61,4.6,297.9,341.3,300.5
976.0,363,22.7,19.7,83,14.92,61,4.6,297.9,341.4,300.5
975.5,368,22.6,19.6,83,14.91,61,4.6,297.9,341.3,300.5
974.9,373,22.6,19.6,83,14.90,62,4.7,297.9,341.3,300.5
974.4,378,22.5,19.6,83,14.85,62,4.7,297.9,341.1,300.5
973.8,383,22.5,19.4,83,14.73,62,4.7,297.9,340.8,300.5
973.3,387,22.5,19.2,82,14.54,62,4.7,297.9,340.3,300.5
972.8,392,22.5,19.0,81,14.34,62,4.7,298.0,339.8,300.5
972.2,397,22.5,18.8,79,14.15,62,4.7,298.0,339.3,300.6
971.7,402,22.5,18.6,79,14.04,62,4.7,298.1,339.0,300.6
971.1,407,22.5,18.6,79,13.99,62,4.7,298.1,338.9,300.6
970.6,412,22.4,18.5,78,13.94,62,4.7,298.1,338.8,300.6
970.0,417,22.4,18.5,79,13.94,62,4.7,298.1,338.8,300.6
969.5,422,22.3,18.5,79,13.99,62,4.7,298.1,338.9,300.6
968.9,426,22.3,18.6,79,14.01,62,4.7,298.1,339.0,300.6
968.4,431,22.2,18.5,80,14.00,62,4.7,298.1,339.0,300.6
967.9,436,22.2,18.5,79,13.94,61,4.8,298.1,338.8,300.6
967.4,440,22.1,18.3,79,13.84,61,4.8,298.1,338.5,300.6
966.9,445,22.1,18.3,79,13.85,61,4.8,298.1,338.5,300.6
966.4,449,22.0,18.5,80,14.01,60,4.8,298.1,339.0,300.6
965.9,454,22.0,18.6,81,14.12,60,4.8,298.1,339.3,300.6
965.4,459,21.9,18.6,81,14.07,59,4.8,298.1,339.1,300.6
964.9,463,21.9,18.3,80,13.89,59,4.9,298.1,338.6,300.5
964.3,468,21.9,18.1,79,13.70,59,4.9,298.1,338.1,300.6
963.8,473,21.9,18.0,78,13.56,58,4.9,298.1,337.7,300.6
963.3,477,21.9,17.9,78,13.51,58,5.0,298.2,337.6,300.6
962.8,482,21.8,17.8,78,13.41,58,5.0,298.2,337.4,300.6
962.3,486,21.9,17.6,77,13.29,57,5.0,298.3,337.1,300.6
961.8,491,21.8,17.6,77,13.29,57,5.1,298.3,337.1,300.7
961.3,495,21.8,17.6,77,13.30,56,5.1,298.3,337.2,300.7
960.8,500,21.8,17.4,76,13.14,56,5.2,298.3,336.7,300.7
960.3,504,21.8,17.0,74,12.78,56,5.2,298.4,335.8,300.7
959.8,509,21.8,16.5,72,12.40,55,5.3,298.4,334.7,300.7
959.4,513,21.8,16.1,70,12.05,55,5.3,298.5,333.8,300.7
958.9,517,21.9,15.7,68,11.79,55,5.4,298.6,333.1,300.7
958.4,521,21.9,15.6,68,11.71,55,5.4,298.6,333.0,300.7
958.0,526,21.9,15.6,68,11.75,54,5.5,298.6,333.1,300.7
957.5,530,21.8,15.6,68,11.70,54,5.5,298.7,333.0,300.8
957.0,534,21.8,15.4,67,11.57,54,5.6,298.7,332.6,300.8
956.5,538,21.8,15.2,66,11.39,54,5.6,298.7,332.2,300.8
956.1,543,21.8,14.9,65,11.18,54,5.6,298.7,331.6,300.8
955.6,547,21.8,14.6,63,10.98,54,5.6,298.8,331.1,300.8
955.1,552,21.8,14.4,63,10.85,53,5.7,298.8,330.7,300.8
954.6,556,21.8,14.3,62,10.80,53,5.7,298.9,330.6,300.8
954.1,560,21.8,14.3,62,10.79,53,5.7,298.9,330.7,300.9
953.7,565,21.8,14.3,62,10.77,54,5.7,299.0,330.7,300.9
953.2,569,21.8,14.2,62,10.75,54,5.7,299.0,330.7,300.9
952.7,573,21.8,14.2,62,10.76,54,5.7,299.1,330.7,301.0
952.2,578,21.8,14.3,62,10.81,54,5.7,299.1,330.9,301.0
951.8,582,21.8,14.3,63,10.86,54,5.7,299.1,331.0,301.0
951.3,587,21.7,14.4,63,10.88,54,5.7,299.1,331.1,301.1
950.8,591,21.7,14.3,63,10.87,55,5.7,299.1,331.1,301.1
950.3,596,21.7,14.3,63,10.83,55,5.7,299.1,331.0,301.1
949.8,600,21.6,14.3,63,10.82,55,5.7,299.2,331.0,301.1
949.3,604,21.6,14.3,63,10.83,55,5.7,299.2,331.0,301.1
948.9,609,21.6,14.3,63,10.85,56,5.7,299.2,331.1,301.1
948.4,613,21.5,14.3,64,10.90,56,5.7,299.2,331.3,301.1
948.0,617,21.5,14.4,64,10.94,56,5.7,299.2,331.4,301.2
947.6,620,21.5,14.4,64,10.97,56,5.7,299.2,331.5,301.2
947.2,624,21.5,14.4,64,10.97,56,5.7,299.2,331.5,301.2
946.8,628,21.4,14.3,64,10.92,57,5.8,299.2,331.3,301.2
946.4,632,21.4,14.3,64,10.86,57,5.8,299.2,331.2,301.2
946.0,635,21.4,14.2,64,10.82,57,5.8,299.2,331.1,301.2
945.6,639,21.3,14.2,64,10.80,57,5.8,299.2,331.0,301.2
945.1,643,21.3,14.2,64,10.80,57,5.8,299.3,331.1,301.2
944.7,647,21.3,14.2,64,10.84,56,5.8,299.3,331.2,301.2
944.3,651,21.3,14.3,64,10.90,56,5.8,299.3,331.4,301.2
943.8,655,21.2,14.4,65,10.97,56,5.8,299.3,331.6,301.2
943.3,659,21.2,14.4,65,11.01,56,5.8,299.3,331.7,301.3
942.8,664,21.1,14.5,66,11.07,55,5.8,299.3,331.9,301.3
942.3,669,21.1,14.6,66,11.16,55,5.8,299.3,332.1,301.3
941.8,674,21.0,14.7,67,11.27,54,5.8,299.3,332.4,301.3
941.2,679,21.0,14.8,68,11.30,54,5.8,299.3,332.6,301.3
940.6,684,21.0,14.7,67,11.27,53,5.8,299.3,332.5,301.3
940.1,689,20.9,14.7,68,11.27,53,5.8,299.3,332.5,301.3
939.5,694,20.9,14.7,68,11.29,52,5.8,299.3,332.5,301.4
938.9,700,20.8,14.8,68,11.32,51,5.8,299.3,332.6,301.4
938.4,705,20.8,14.8,68,11.33,50,5.8,299.3,332.7,301.4
937.8,710,20.8,14.8,69,11.35,50,5.7,299.3,332.8,301.4
937.2,716,20.7,14.8,69,11.40,49,5.7,299.4,332.9,301.4
936.7,721,20.7,14.9,70,11.46,48,5.7,299.4,333.1,301.4
936.1,726,20.6,15.0,70,11.49,47,5.6,299.4,333.2,301.4
935.5,731,20.6,15.0,70,11.50,46,5.6,299.4,333.2,301.5
935.0,736,20.6,14.9,70,11.47,46,5.6,299.4,333.2,301.5
934.4,741,20.5,14.9,70,11.46,45,5.5,299.4,333.2,301.5
933.9,746,20.5,14.9,70,11.47,44,5.5,299.5,333.2,301.5
933.4,751,20.5,14.9,70,11.51,43,5.5,299.5,333.4,301.6
932.9,756,20.5,15.0,71,11.54,43,5.4,299.5,333.5,301.6
932.4,761,20.4,15.0,71,11.58,42,5.4,299.5,333.6,301.6
931.9,765,20.4,15.0,71,11.61,42,5.4,299.5,333.7,301.6
931.4,769,20.4,15.0,72,11.62,41,5.3,299.5,333.7,301.6
931.0,773,20.3,15.0,72,11.60,41,5.3,299.5,333.7,301.6
930.6,777,20.3,14.9,71,11.54,41,5.3,299.5,333.5,301.6
930.2,781,20.3,14.8,71,11.45,41,5.2,299.6,333.3,301.6
929.9,784,20.3,14.7,70,11.35,41,5.2,299.6,333.0,301.6
929.5,787,20.3,14.6,70,11.28,41,5.2,299.6,332.9,301.7
929.2,790,20.3,14.5,70,11.26,41,5.2,299.6,332.8,301.7
928.9,793,20.3,14.5,70,11.26,41,5.1,299.6,332.8,301.7
928.5,796,20.2,14.5,70,11.28,42,5.1,299.7,332.9,301.7
928.2,799,20.2,14.6,70,11.31,42,5.1,299.7,333.0,301.7
927.8,803,20.2,14.6,70,11.33,43,5.1,299.7,333.1,301.7
927.4,807,20.1,14.6,70,11.33,43,5.1,299.7,333.1,301.7
926.9,811,20.1,14.6,70,11.31,44,5.0,299.7,333.0,301.7
926.4,816,20.1,14.4,70,11.22,45,5.0,299.7,332.8,301.7
925.9,821,20.1,14.2,69,11.03,45,5.0,299.7,332.3,301.7
925.3,826,20.1,13.9,68,10.88,46,5.0,299.8,331.9,301.8
925.0,829,20.1,13.9,67,10.84,47,5.0,299.8,331.8,301.8
924.7,832,20.1,13.8,67,10.80,47,5.0,299.9,331.8,301.8
924.1,838,20.1,13.7,67,10.74,48,5.0,299.9,331.6,301.8
923.5,843,20.0,13.6,67,10.67,48,5.0,299.9,331.4,301.8
922.9,849,20.0,13.6,67,10.65,49,5.0,299.9,331.4,301.9
922.3,854,20.0,13.6,67,10.70,50,5.0,300.0,331.6,301.9
921.8,859,19.9,13.7,67,10.73,51,5.0,300.0,331.7,301.9
921.2,864,19.9,13.6,67,10.69,51,5.1,300.0,331.6,301.9
920.7,869,19.9,13.4,66,10.58,52,5.1,300.0,331.3,301.9
920.2,874,19.9,13.3,66,10.46,52,5.1,300.0,331.0,301.9
919.8,878,19.8,13.2,65,10.40,53,5.1,300.1,330.8,301.9
919.3,882,19.8,13.3,66,10.51,53,5.1,300.1,331.2,302.0
918.9,887,19.8,13.7,68,10.77,54,5.1,300.1,331.9,302.0
918.4,891,19.7,14.0,70,11.02,54,5.1,300.1,332.6,302.1
917.9,895,19.7,14.2,70,11.12,54,5.1,300.1,332.9,302.1
917.5,900,19.6,14.2,71,11.14,55,5.1,300.1,333.0,302.1
917.0,904,19.6,14.2,71,11.14,55,5.1,300.1,333.0,302.1
916.6,908,19.5,14.2,71,11.15,55,5.1,300.1,333.0,302.1
916.2,912,19.5,14.2,71,11.16,55,5.1,300.1,333.0,302.1
915.7,916,19.5,14.2,71,11.16,55,5.1,300.1,333.0,302.1
915.3,920,19.4,14.1,71,11.14,56,5.1,300.1,333.0,302.1
914.9,924,19.4,14.1,71,11.09,56,5.1,300.1,332.9,302.1
914.4,928,19.4,13.9,70,10.98,56,5.1,300.1,332.6,302.1
914.0,932,19.4,13.7,69,10.81,56,5.1,300.2,332.2,302.1
913.6,936,19.4,13.4,68,10.62,56,5.1,300.2,331.7,302.2
913.2,940,19.5,13.1,67,10.41,56,5.1,300.3,331.1,302.2
912.8,944,19.5,12.9,66,10.27,56,5.1,300.4,330.8,302.2
912.4,947,19.5,12.9,66,10.27,56,5.1,300.4,330.8,302.2
912.0,951,19.5,12.9,66,10.34,56,5.1,300.4,331.0,302.3
911.6,955,19.4,13.1,67,10.44,56,5.2,300.4,331.4,302.3
911.1,959,19.4,13.3,68,10.57,56,5.2,300.4,331.7,302.3
910.7,964,19.3,13.3,68,10.59,56,5.2,300.4,331.8,302.3
910.2,968,19.3,13.1,67,10.45,55,5.2,300.4,331.4,302.3
909.7,973,19.3,12.8,66,10.29,55,5.2,300.5,331.0,302.3
909.2,978,19.3,12.7,66,10.19,55,5.2,300.5,330.7,302.3
908.7,983,19.3,12.6,65,10.15,55,5.2,300.5,330.6,302.4
908.2,987,19.2,12.5,65,10.11,54,5.3,300.5,330.5,302.4
907.7,992,19.2,12.5,65,10.05,54,5.3,300.6,330.4,302.4
907.3,996,19.2,12.4,65,10.02,54,5.3,300.6,330.3,302.4
906.8,1000,19.2,12.3,65,9.98,53,5.3,300.6,330.2,302.4
906.4,1005,19.1,12.2,64,9.93,53,5.4,300.6,330.1,302.4
905.9,1009,19.1,12.1,64,9.84,52,5.4,300.7,329.9,302.4
905.5,1013,19.1,12.0,63,9.76,52,5.5,300.7,329.7,302.4
905.1,1017,19.1,11.9,63,9.74,51,5.5,300.7,329.6,302.5
904.7,1021,19.1,11.9,63,9.75,51,5.6,300.7,329.7,302.5
904.3,1025,19.1,11.9,63,9.75,50,5.6,300.7,329.7,302.5
903.8,1029,19.0,11.9,63,9.72,49,5.7,300.7,329.6,302.5
903.4,1033,19.0,11.9,63,9.70,49,5.7,300.8,329.6,302.5
903.0,1037,19.0,11.8,63,9.69,48,5.8,300.8,329.6,302.5
902.6,1040,18.9,11.9,63,9.71,47,5.9,300.8,329.6,302.5
902.2,1044,18.9,11.9,64,9.74,47,5.9,300.8,329.7,302.5
901.8,1048,18.9,11.9,64,9.76,46,5.9,300.8,329.8,302.5
901.3,1053,18.8,11.9,64,9.78,46,6.0,300.8,329.8,302.5
900.9,1057,18.8,12.0,65,9.82,45,6.0,300.8,329.9,302.5
900.4,1061,18.7,12.1,65,9.87,44,6.1,300.8,330.1,302.5
900.0,1066,18.7,12.1,66,9.92,44,6.1,300.7,330.2,302.5
899.5,1070,18.6,12.2,66,9.96,43,6.1,300.8,330.3,302.6
899.1,1074,18.6,12.2,66,9.97,42,6.1,300.8,330.4,302.6
898.6,1079,18.6,12.1,66,9.95,42,6.1,300.8,330.3,302.6
898.2,1083,18.6,12.1,66,9.92,41,6.1,300.8,330.2,302.6
897.7,1087,18.5,12.1,66,9.91,40,6.0,300.8,330.3,302.6
897.3,1091,18.5,12.1,66,9.95,39,6.0,300.8,330.4,302.6
896.8,1096,18.5,12.3,67,10.05,39,5.9,300.8,330.7,302.6
896.3,1101,18.4,12.4,68,10.15,38,5.9,300.8,331.0,302.7
895.7,1106,18.4,12.5,69,10.24,38,5.8,300.8,331.2,302.7
895.2,1111,18.3,12.6,69,10.31,37,5.7,300.8,331.4,302.7
894.7,1116,18.2,12.7,70,10.34,36,5.7,300.8,331.5,302.7
894.1,1122,18.2,12.6,70,10.31,36,5.6,300.8,331.4,302.7
893.6,1127,18.2,12.5,70,10.25,35,5.5,300.8,331.2,302.7
893.1,1131,18.1,12.4,69,10.19,34,5.4,300.8,331.1,302.7
892.6,1136,18.1,12.4,69,10.17,34,5.3,300.9,331.1,302.7
892.1,1141,18.1,12.4,69,10.19,33,5.2,300.9,331.1,302.7
891.7,1145,18.0,12.5,70,10.24,33,5.1,300.9,331.3,302.7
891.2,1150,18.0,12.5,70,10.28,32,5.0,300.9,331.4,302.7
890.7,1155,17.9,12.5,71,10.30,32,4.9,300.9,331.4,302.7
890.2,1160,17.9,12.5,71,10.30,32,4.9,300.9,331.4,302.7
889.7,1164,17.8,12.5,71,10.29,31,4.8,300.9,331.4,302.7
889.2,1169,17.8,12.5,71,10.29,31,4.7,300.9,331.4,302.7
888.8,1173,17.8,12.5,71,10.28,31,4.7,300.9,331.4,302.7
888.3,1177,17.7,12.5,71,10.27,31,4.6,300.9,331.4,302.7
887.9,1182,17.7,12.4,71,10.27,31,4.6,300.9,331.4,302.7
887.4,1186,17.7,12.4,71,10.23,31,4.5,300.9,331.3,302.8
887.0,1190,17.6,12.3,71,10.17,32,4.5,300.9,331.1,302.8
886.6,1194,17.6,12.2,71,10.14,32,4.5,301.0,331.1,302.8
886.1,1199,17.6,12.2,71,10.15,32,4.4,301.0,331.1,302.8
885.7,1203,17.6,12.3,71,10.18,33,4.4,301.0,331.3,302.9
885.2,1207,17.6,12.3,71,10.20,34,4.4,301.0,331.3,302.9
884.8,1211,17.6,12.3,71,10.19,34,4.4,301.1,331.3,302.9
884.4,1215,17.5,12.2,71,10.16,35,4.4,301.1,331.3,302.9
884.0,1219,17.5,12.1,71,10.11,36,4.4,301.1,331.1,302.9
883.6,1223,17.5,12.1,71,10.08,36,4.4,301.1,331.0,302.9
883.2,1227,17.5,12.1,71,10.08,37,4.5,301.1,331.1,302.9
882.8,1231,17.4,12.1,71,10.11,38,4.5,301.1,331.2,302.9
882.3,1235,17.4,12.2,71,10.15,39,4.5,301.1,331.3,303.0
881.9,1240,17.4,12.2,72,10.17,40,4.5,301.1,331.3,303.0
881.4,1244,17.3,12.2,72,10.16,41,4.6,301.1,331.3,303.0
880.9,1250,17.3,12.2,72,10.16,42,4.6,301.1,331.3,303.0
880.3,1255,17.2,12.1,72,10.15,43,4.6,301.1,331.3,303.0
879.7,1261,17.2,12.1,72,10.14,45,4.7,301.1,331.3,303.0
879.1,1266,17.1,12.0,72,10.10,46,4.7,301.1,331.2,303.0
878.5,1272,17.1,12.0,72,10.06,47,4.7,301.2,331.1,303.0
878.0,1278,17.0,11.9,72,10.02,48,4.8,301.2,330.9,303.0
877.4,1283,17.0,11.8,72,9.98,49,4.8,301.2,330.9,303.0
876.9,1289,17.0,11.8,72,9.97,50,4.9,301.2,330.9,303.0
876.3,1294,16.9,11.8,72,9.99,51,4.9,301.2,330.9,303.0
875.8,1299,16.9,11.9,72,10.03,52,5.0,301.2,331.0,303.0
875.2,1304,16.8,11.9,73,10.05,53,5.0,301.2,331.1,303.0
874.7,1309,16.7,11.9,73,10.05,54,5.1,301.2,331.1,303.0
874.2,1314,16.7,11.9,73,10.03,55,5.1,301.2,331.0,303.0
873.7,1319,16.6,11.8,73,10.01,56,5.2,301.2,331.0,303.0
873.2,1324,16.6,11.8,73,9.99,56,5.2,301.2,330.9,303.0
872.7,1329,16.6,11.8,73,9.99,57,5.3,301.2,330.9,303.0
872.2,1334,16.5,11.8,73,10.00,57,5.3,301.2,331.0,303.0
871.8,1338,16.5,11.8,74,9.99,57,5.3,301.2,330.9,303.0
871.3,1343,16.5,11.7,74,9.99,58,5.4,301.2,330.9,303.0
870.8,1348,16.4,11.7,74,9.96,58,5.4,301.2,330.9,303.1
870.3,1352,16.4,11.6,73,9.92,58,5.4,301.3,330.8,303.1
869.9,1357,16.4,11.6,73,9.91,58,5.4,301.3,330.8,303.1
869.4,1361,16.3,11.6,74,9.93,57,5.4,301.3,330.8,303.1
869.0,1365,16.3,11.7,74,9.97,57,5.4,301.3,331.0,303.1
868.6,1369,16.3,11.7,74,10.01,57,5.4,301.3,331.1,303.1
868.2,1373,16.3,11.8,75,10.04,56,5.4,301.3,331.2,303.2
867.8,1377,16.2,11.8,75,10.05,56,5.4,301.4,331.3,303.2
867.3,1382,16.2,11.8,75,10.07,55,5.3,301.4,331.3,303.2
866.9,1386,16.2,11.8,75,10.08,54,5.3,301.4,331.4,303.2
866.4,1391,16.1,11.8,75,10.08,54,5.3,301.4,331.4,303.2
865.9,1396,16.1,11.8,76,10.08,53,5.2,301.4,331.4,303.2
865.4,1401,16.1,11.8,76,10.07,52,5.2,301.4,331.4,303.2
864.9,1406,16.0,11.7,75,10.03,52,5.1,301.4,331.3,303.2
864.4,1410,16.0,11.6,75,9.95,51,5.1,301.4,331.1,303.2
863.9,1415,16.0,11.4,74,9.86,50,5.1,301.5,330.9,303.3
863.5,1420,16.0,11.3,74,9.79,49,5.0,301.5,330.7,303.3
863.0,1424,16.0,11.2,73,9.71,48,5.0,301.6,330.5,303.3
862.6,1429,16.0,10.9,72,9.57,48,5.0,301.6,330.1,303.3
862.1,1433,16.0,10.6,70,9.35,47,4.9,301.7,329.6,303.4
861.6,1438,16.0,10.3,69,9.14,46,4.9,301.7,329.0,303.4
861.2,1442,16.0,10.0,67,8.97,45,4.9,301.8,328.6,303.4
860.7,1447,16.0,9.7,66,8.81,44,4.9,301.8,328.2,303.4
860.2,1452,16.0,9.4,65,8.66,44,4.9,301.9,327.8,303.4
859.7,1457,16.0,9.2,64,8.55,43,4.9,301.9,327.5,303.4
859.2,1461,16.0,9.1,64,8.50,43,4.9,301.9,327.4,303.5
858.8,1466,15.9,9.1,64,8.50,42,4.9,301.9,327.4,303.5
858.3,1470,15.9,9.2,64,8.53,41,4.9,301.9,327.5,303.5
857.9,1475,15.9,9.2,65,8.56,41,4.9,301.9,327.6,303.5
857.5,1479,15.8,9.2,65,8.57,40,4.9,301.9,327.6,303.5
857.0,1483,15.8,9.2,65,8.57,40,5.0,302.0,327.7,303.5
856.6,1487,15.8,9.3,65,8.60,39,5.0,302.0,327.7,303.5
856.2,1492,15.7,9.3,66,8.65,39,5.0,302.0,327.9,303.5
855.8,1496,15.7,9.5,66,8.72,38,5.0,302.0,328.1,303.6
855.4,1500,15.6,9.5,67,8.76,38,5.0,302.0,328.2,303.6
855.0,1504,15.6,9.5,67,8.73,37,5.1,302.0,328.1,303.6
854.5,1508,15.6,9.4,67,8.68,37,5.1,302.0,328.0,303.6
854.0,1513,15.5,9.4,67,8.68,37,5.1,302.0,328.0,303.6
853.5,1518,15.5,9.5,68,8.78,36,5.1,302.0,328.3,303.6
853.0,1523,15.4,9.9,70,9.04,36,5.1,302.0,329.0,303.6
852.5,1528,15.3,10.2,72,9.23,36,5.1,301.9,329.5,303.6
852.0,1533,15.3,10.3,72,9.25,35,5.2,301.9,329.6,303.6
851.5,1538,15.2,10.2,72,9.20,35,5.2,301.9,329.5,303.6
851.0,1543,15.2,10.1,72,9.16,35,5.2,302.0,329.4,303.6
850.5,1548,15.2,10.1,72,9.16,35,5.2,302.0,329.3,303.6
850.0,1553,15.1,10.1,72,9.17,34,5.2,302.0,329.4,303.6
849.5,1558,15.1,10.1,72,9.20,34,5.2,302.0,329.5,303.6
849.1,1563,15.0,10.2,73,9.23,34,5.2,302.0,329.6,303.7
848.6,1567,15.0,10.2,73,9.28,34,5.2,302.0,329.7,303.7
848.2,1572,15.0,10.2,73,9.26,34,5.2,302.0,329.7,303.7
847.7,1576,15.0,10.0,72,9.15,34,5.2,302.1,329.5,303.7
847.3,1580,15.0,9.8,71,9.04,34,5.2,302.1,329.2,303.8
846.9,1585,15.0,9.7,71,8.97,34,5.2,302.2,329.0,303.8
846.5,1589,15.0,9.6,70,8.91,34,5.2,302.2,328.9,303.8
846.1,1593,15.0,9.5,70,8.85,35,5.2,302.2,328.8,303.9
845.7,1597,15.0,9.4,69,8.80,35,5.2,302.3,328.7,303.9
845.3,1601,15.0,9.4,69,8.78,35,5.2,302.3,328.6,303.9
844.8,1605,14.9,9.3,69,8.76,35,5.1,302.3,328.6,303.9
844.4,1610,14.9,9.3,69,8.73,35,5.1,302.3,328.5,303.9
843.9,1614,14.9,9.1,68,8.64,35,5.1,302.3,328.3,303.9
843.4,1619,14.9,8.9,67,8.51,35,5.1,302.4,327.9,303.9
842.9,1624,14.9,8.7,66,8.39,34,5.0,302.4,327.6,304.0
842.4,1630,14.9,8.5,66,8.30,34,5.0,302.5,327.5,304.0
841.8,1635,14.9,8.4,65,8.26,34,5.0,302.6,327.4,304.1
841.3,1641,14.9,8.3,65,8.19,34,4.9,302.6,327.2,304.1
840.7,1646,14.8,8.1,64,8.11,33,4.9,302.6,327.0,304.1
840.2,1652,14.8,8.0,64,8.06,33,4.9,302.6,326.9,304.1
839.7,1657,14.8,8.0,64,8.04,33,4.8,302.7,326.9,304.1
839.2,1662,14.8,8.0,64,8.02,32,4.8,302.7,326.9,304.2
838.7,1666,14.7,7.9,63,7.98,32,4.8,302.7,326.8,304.2
838.3,1671,14.8,7.7,63,7.91,31,4.8,302.8,326.6,304.2
837.8,1676,14.8,7.7,62,7.88,30,4.7,302.9,326.6,304.3
837.3,1681,14.8,7.7,63,7.91,30,4.7,302.9,326.8,304.4
836.9,1685,14.8,7.9,64,8.03,29,4.7,302.9,327.2,304.4
836.4,1690,14.7,8.2,65,8.18,28,4.7,303.0,327.6,304.5
835.9,1695,14.7,8.3,65,8.26,28,4.7,303.0,327.9,304.5
835.4,1700,14.7,8.4,66,8.31,27,4.7,303.0,328.0,304.5
834.9,1705,14.6,8.6,67,8.42,26,4.7,303.0,328.4,304.6
834.4,1710,14.6,8.8,68,8.58,25,4.7,303.0,328.8,304.6
833.9,1715,14.6,9.0,69,8.67,25,4.7,303.0,329.1,304.6
833.4,1720,14.5,9.0,69,8.67,24,4.7,303.0,329.1,304.6
