PRES,HGHT,TEMP,DWPT,RELH,MIXR,DRCT,SPED,THTA,THTE,THTV
1016.0,31,25.9,19.8,69,14.46,36,3.0,297.7,339.8,300.3
1015.2,37,25.6,20.1,72,14.78,39,2.7,297.5,340.5,300.1
1014.6,43,25.4,20.0,72,14.70,40,2.8,297.3,340.0,299.9
1014.2,46,25.2,19.9,73,14.59,41,3.0,297.1,339.5,299.7
1013.7,51,24.9,19.7,73,14.38,41,3.2,296.9,338.7,299.5
1012.9,57,24.6,19.4,73,14.17,41,3.4,296.7,337.8,299.2
1012.3,63,24.3,19.2,73,13.98,42,3.6,296.5,337.0,298.9
1011.8,67,24.2,19.1,73,13.88,42,3.8,296.3,336.5,298.8
1011.2,72,24.1,19.0,73,13.83,42,4.0,296.3,336.3,298.7
1010.6,77,24.0,19.0,73,13.78,43,4.1,296.3,336.2,298.7
1010.1,82,24.0,18.9,73,13.71,43,4.3,296.3,336.0,298.7
1009.5,87,23.9,18.8,73,13.66,43,4.5,296.3,335.9,298.7
1008.9,92,23.9,18.8,73,13.65,44,4.6,296.3,335.8,298.7
1008.3,97,23.9,18.8,73,13.64,44,4.8,296.3,335.8,298.7
1007.7,103,23.8,18.7,73,13.63,44,4.9,296.3,335.8,298.7
1007.1,108,23.7,18.7,73,13.61,45,5.0,296.3,335.7,298.7
1006.5,113,23.7,18.7,74,13.61,45,5.2,296.3,335.7,298.7
1005.8,119,23.7,18.7,74,13.63,46,5.3,296.3,335.8,298.7
1005.2,124,23.6,18.7,74,13.62,46,5.4,296.3,335.7,298.7
1004.6,130,23.5,18.7,74,13.62,46,5.5,296.3,335.7,298.7
1003.9,136,23.5,18.7,74,13.64,47,5.6,296.3,335.8,298.7
1003.2,141,23.4,18.7,75,13.66,47,5.6,296.3,335.9,298.7
1002.6,147,23.4,18.7,75,13.65,47,5.7,296.3,335.8,298.7
1001.9,153,23.3,18.7,75,13.65,48,5.8,296.3,335.8,298.7
1001.3,158,23.3,18.7,76,13.68,48,5.8,296.3,335.9,298.7
1000.6,164,23.2,18.8,76,13.74,48,5.8,296.3,336.1,298.8
1000.0,170,23.2,18.8,76,13.76,49,5.9,296.3,336.2,298.8
999.4,175,23.1,18.7,76,13.74,49,5.9,296.3,336.1,298.8
998.7,181,23.1,18.7,77,13.73,49,5.9,296.3,336.1,298.7
998.1,186,23.0,18.7,77,13.73,49,6.0,296.3,336.1,298.7
997.5,192,22.9,18.7,77,13.72,50,6.0,296.3,336.0,298.7
996.9,197,22.9,18.6,77,13.69,50,6.0,296.3,335.9,298.7
996.3,202,22.8,18.6,77,13.69,50,6.0,296.3,335.9,298.7
995.7,207,22.8,18.6,77,13.71,50,6.0,296.3,336.0,298.7
995.1,213,22.7,18.6,78,13.72,50,6.0,296.3,336.0,298.7
994.5,218,22.7,18.6,78,13.71,51,6.0,296.3,336.0,298.7
993.9,223,22.6,18.6,78,13.72,51,6.0,296.3,336.0,298.7
993.3,229,22.6,18.6,78,13.74,51,6.0,296.3,336.1,298.7
992.7,234,22.5,18.7,79,13.79,51,6.0,296.3,336.2,298.7
992.1,239,22.5,18.7,79,13.81,51,6.0,296.3,336.3,298.8
991.4,245,22.4,18.7,79,13.80,51,5.9,296.3,336.3,298.8
990.8,251,22.4,18.6,79,13.77,51,5.9,296.3,336.2,298.7
990.1,257,22.3,18.6,79,13.74,51,5.9,296.3,336.1,298.7
989.4,263,22.2,18.6,80,13.73,51,5.9,296.3,336.0,298.7
988.8,268,22.2,18.5,80,13.69,51,5.8,296.3,335.9,298.7
988.1,274,22.1,18.5,80,13.67,51,5.8,296.3,335.9,298.7
987.5,280,22.1,18.5,80,13.66,51,5.8,296.3,335.8,298.7
986.8,286,22.0,18.4,80,13.65,51,5.7,296.3,335.8,298.7
986.2,291,22.0,18.4,80,13.65,51,5.7,296.3,335.8,298.7
985.5,297,21.9,18.4,80,13.65,51,5.7,296.3,335.8,298.7
984.9,303,21.9,18.4,81,13.64,52,5.6,296.3,335.8,298.7
984.2,308,21.8,18.4,81,13.62,52,5.5,296.3,335.7,298.7
983.6,314,21.7,18.3,81,13.57,52,5.5,296.3,335.6,298.7
982.9,320,21.7,18.2,81,13.52,52,5.4,296.3,335.4,298.7
982.2,326,21.6,18.1,81,13.46,52,5.4,296.3,335.3,298.7
981.5,332,21.6,18.1,81,13.45,53,5.3,296.3,335.2,298.7
980.8,338,21.5,18.2,81,13.49,53,5.2,296.3,335.4,298.7
980.2,344,21.5,18.2,81,13.50,53,5.2,296.3,335.4,298.7
979.5,350,21.4,18.1,81,13.47,54,5.1,296.3,335.3,298.7
978.9,356,21.4,18.1,81,13.43,54,5.1,296.3,335.2,298.7
978.3,361,21.3,17.9,81,13.34,55,5.0,296.3,335.0,298.7
977.7,366,21.3,17.9,81,13.28,55,4.9,296.3,334.8,298.7
977.1,372,21.2,17.8,81,13.27,55,4.9,296.3,334.8,298.7
976.5,377,21.2,17.9,81,13.31,56,4.8,296.3,334.9,298.7
975.9,382,21.1,18.0,82,13.42,56,4.8,296.3,335.2,298.7
975.4,387,21.1,18.1,83,13.48,57,4.8,296.3,335.3,298.7
974.8,392,21.0,18.0,83,13.45,57,4.8,296.3,335.3,298.7
974.3,397,21.0,18.0,83,13.41,57,4.8,296.3,335.2,298.7
973.8,401,20.9,18.0,83,13.42,58,4.8,296.3,335.2,298.7
973.2,406,20.9,18.0,83,13.43,58,4.8,296.3,335.2,298.7
972.6,411,20.8,18.0,84,13.44,58,4.8,296.3,335.3,298.7
972.1,416,20.8,18.0,84,13.46,58,4.8,296.3,335.3,298.7
971.5,422,20.7,17.9,84,13.43,58,4.9,296.3,335.2,298.7
970.9,427,20.7,17.9,84,13.39,59,4.9,296.3,335.1,298.7
970.3,432,20.6,17.8,84,13.36,59,5.0,296.3,335.0,298.7
969.8,437,20.6,17.8,84,13.35,58,5.0,296.3,335.0,298.7
969.2,442,20.5,17.8,84,13.35,58,5.1,296.3,335.0,298.7
968.6,447,20.5,17.9,85,13.42,58,5.2,296.3,335.2,298.7
968.1,452,20.4,18.0,86,13.51,58,5.3,296.3,335.4,298.7
967.5,457,20.4,18.0,86,13.54,58,5.3,296.3,335.5,298.7
967.0,462,20.3,18.0,86,13.51,57,5.4,296.3,335.4,298.7
966.4,467,20.3,17.9,86,13.50,57,5.5,296.3,335.4,298.7
965.9,472,20.2,18.0,87,13.57,57,5.5,296.3,335.6,298.7
965.3,477,20.2,18.1,88,13.67,57,5.6,296.3,335.9,298.7
964.7,482,20.1,18.1,88,13.68,56,5.7,296.3,335.9,298.7
964.2,487,20.1,18.0,88,13.60,56,5.7,296.3,335.7,298.7
963.6,493,20.0,17.9,88,13.51,56,5.8,296.3,335.4,298.7
963.0,498,20.0,17.8,87,13.42,55,5.8,296.3,335.2,298.7
962.4,503,19.9,17.7,87,13.38,55,5.8,296.3,335.1,298.7
961.8,509,19.9,17.7,87,13.37,55,5.9,296.3,335.0,298.7
961.1,514,19.8,17.7,88,13.39,54,5.9,296.3,335.1,298.7
960.5,520,19.8,17.7,88,13.41,54,5.9,296.3,335.2,298.7
959.9,525,19.7,17.8,88,13.44,54,5.9,296.3,335.2,298.7
959.3,531,19.7,17.8,89,13.47,53,5.9,296.3,335.3,298.7
958.8,536,19.6,17.8,89,13.47,53,5.8,296.3,335.3,298.7
958.2,541,19.6,17.7,89,13.46,53,5.8,296.3,335.3,298.7
957.6,546,19.5,17.7,89,13.46,53,5.8,296.3,335.3,298.7
957.1,551,19.5,17.7,89,13.44,52,5.7,296.3,335.2,298.7
956.6,556,19.5,17.6,89,13.34,52,5.7,296.3,335.0,298.7
956.0,561,19.4,17.4,88,13.19,52,5.6,296.4,334.6,298.7
955.5,566,19.4,17.2,87,13.04,51,5.6,296.4,334.2,298.7
954.9,571,19.4,17.2,87,13.06,51,5.6,296.4,334.2,298.7
954.3,576,19.3,17.4,89,13.18,51,5.5,296.4,334.6,298.7
953.7,582,19.2,17.3,89,13.18,51,5.5,296.4,334.6,298.7
953.0,588,19.2,17.1,87,12.97,50,5.4,296.4,334.0,298.7
952.4,593,19.2,16.9,87,12.82,50,5.4,296.4,333.6,298.7
951.7,600,19.1,16.9,87,12.79,50,5.4,296.4,333.5,298.7
951.0,606,19.1,16.8,87,12.79,50,5.3,296.5,333.6,298.7
950.4,612,19.0,16.8,87,12.80,50,5.3,296.5,333.6,298.7
949.7,617,19.0,16.9,88,12.83,50,5.3,296.5,333.7,298.7
949.1,623,18.9,16.9,88,12.86,50,5.3,296.5,333.8,298.8
948.5,629,18.9,16.9,88,12.86,50,5.3,296.5,333.8,298.8
947.9,634,18.8,16.8,88,12.82,49,5.3,296.5,333.6,298.7
947.3,640,18.8,16.8,88,12.79,49,5.3,296.5,333.6,298.8
946.7,645,18.7,16.8,89,12.83,50,5.3,296.5,333.7,298.8
946.1,650,18.7,16.9,89,12.88,50,5.3,296.5,333.8,298.7
945.6,655,18.6,16.9,90,12.89,50,5.3,296.4,333.8,298.7
945.1,660,18.5,17.0,91,12.98,50,5.3,296.4,334.1,298.7
944.6,664,18.5,17.2,92,13.14,50,5.3,296.4,334.5,298.7
944.0,669,18.4,17.3,93,13.25,50,5.3,296.4,334.8,298.8
943.5,674,18.4,17.3,94,13.30,50,5.3,296.4,334.9,298.7
943.1,678,18.3,17.4,94,13.36,50,5.3,296.4,335.1,298.7
942.6,683,18.2,17.4,95,13.42,50,5.3,296.4,335.2,298.7
942.1,687,18.2,17.5,96,13.45,51,5.3,296.3,335.3,298.7
941.6,691,18.1,17.5,96,13.44,51,5.3,296.3,335.3,298.7
941.2,695,18.1,17.4,96,13.37,51,5.3,296.3,335.0,298.7
940.7,700,18.1,17.0,93,13.08,51,5.3,296.4,334.3,298.7
940.2,704,18.1,16.1,88,12.37,51,5.3,296.4,332.3,298.6
939.8,708,18.3,14.5,79,11.13,51,5.3,296.6,329.0,298.6
939.3,712,18.5,12.3,67,9.62,51,5.3,296.9,325.1,298.7
938.8,717,18.8,10.5,59,8.54,52,5.3,297.3,322.4,298.8
938.3,722,19.0,9.6,54,8.00,52,5.2,297.5,321.1,299.0
937.8,726,19.2,9.0,52,7.72,52,5.2,297.7,320.5,299.1
937.3,731,19.2,8.8,51,7.61,52,5.2,297.8,320.4,299.2
936.8,735,19.3,8.8,51,7.61,52,5.2,297.9,320.4,299.3
936.3,740,19.3,8.8,51,7.59,52,5.1,298.0,320.4,299.3
935.8,744,19.3,8.8,51,7.59,52,5.1,298.0,320.5,299.4
935.3,749,19.3,8.9,51,7.69,52,5.1,298.1,320.8,299.4
934.8,753,19.2,9.3,53,7.88,52,5.0,298.1,321.4,299.5
934.3,758,19.2,9.6,54,8.04,52,5.0,298.1,321.8,299.5
933.9,762,19.2,9.8,55,8.18,51,5.0,298.1,322.2,299.5
933.4,767,19.1,10.2,56,8.37,51,4.9,298.1,322.8,299.6
932.9,771,19.1,10.6,58,8.62,51,4.9,298.1,323.5,299.6
932.4,776,19.0,11.0,60,8.87,51,4.8,298.1,324.2,299.7
931.9,780,19.0,11.3,61,9.06,51,4.8,298.1,324.7,299.7
931.4,785,18.9,11.5,62,9.18,51,4.7,298.0,325.1,299.7
930.9,789,18.9,11.6,63,9.22,51,4.7,298.0,325.2,299.7
930.4,794,18.8,11.5,62,9.20,51,4.7,298.0,325.1,299.7
930.0,798,18.8,11.4,62,9.12,51,4.6,298.0,324.9,299.7
929.5,803,18.8,11.2,62,9.03,51,4.6,298.1,324.6,299.7
929.0,808,18.7,11.1,61,8.94,51,4.5,298.1,324.4,299.7
928.4,812,18.7,10.9,60,8.84,51,4.5,298.1,324.2,299.7
927.9,817,18.7,10.7,60,8.73,52,4.5,298.1,323.9,299.7
927.4,822,18.6,10.5,59,8.62,52,4.4,298.1,323.6,299.7
926.9,827,18.6,10.4,59,8.55,52,4.4,298.2,323.4,299.7
926.4,832,18.6,10.3,59,8.54,52,4.4,298.2,323.4,299.7
925.8,836,18.6,10.5,60,8.67,52,4.3,298.2,323.8,299.8
925.3,841,18.5,11.0,62,8.95,52,4.3,298.2,324.6,299.8
925.0,844,18.5,11.3,63,9.14,52,4.3,298.2,325.1,299.9
924.8,846,18.5,11.5,64,9.26,52,4.3,298.2,325.5,299.9
924.3,851,18.4,11.9,66,9.52,53,4.3,298.2,326.2,299.9
923.8,856,18.4,12.1,67,9.67,53,4.3,298.2,326.6,299.9
923.3,860,18.3,12.2,67,9.68,53,4.3,298.2,326.6,299.9
922.8,865,18.3,12.1,68,9.68,53,4.3,298.2,326.6,299.9
922.3,870,18.2,12.2,68,9.69,53,4.3,298.2,326.7,299.9
921.7,875,18.2,12.1,68,9.69,54,4.3,298.2,326.7,299.9
921.2,879,18.1,12.0,68,9.63,54,4.3,298.2,326.5,299.9
920.7,884,18.1,11.9,67,9.56,54,4.3,298.2,326.3,299.9
920.2,889,18.1,11.8,67,9.50,55,4.3,298.2,326.2,299.9
919.6,894,18.0,11.7,66,9.42,55,4.3,298.2,326.0,299.9
919.1,899,18.0,11.5,66,9.33,55,4.3,298.3,325.7,299.9
918.6,904,18.0,11.5,66,9.34,56,4.3,298.3,325.8,299.9
918.0,909,17.9,11.8,67,9.53,56,4.3,298.3,326.3,300.0
917.4,915,17.9,12.3,70,9.82,56,4.3,298.3,327.1,300.0
916.9,920,17.8,12.6,72,10.06,57,4.3,298.2,327.8,300.0
916.3,925,17.7,12.8,73,10.20,57,4.3,298.2,328.2,300.1
915.7,931,17.7,13.0,74,10.30,57,4.3,298.2,328.4,300.1
915.2,936,17.6,13.0,74,10.35,58,4.3,298.2,328.6,300.1
914.6,941,17.6,13.0,75,10.37,58,4.3,298.2,328.7,300.1
914.0,947,17.5,13.0,75,10.35,58,4.3,298.2,328.6,300.1
913.4,952,17.5,12.9,74,10.27,59,4.3,298.2,328.4,300.1
912.8,958,17.5,12.8,74,10.21,59,4.3,298.3,328.3,300.1
912.2,964,17.4,12.7,74,10.20,59,4.3,298.3,328.2,300.1
911.6,969,17.4,12.8,74,10.24,59,4.3,298.3,328.4,300.1
911.0,975,17.3,12.9,75,10.31,60,4.2,298.3,328.6,300.2
910.4,981,17.3,13.0,76,10.37,60,4.2,298.3,328.8,300.2
909.8,986,17.2,13.1,76,10.44,60,4.2,298.3,329.0,300.2
909.2,992,17.2,13.2,77,10.56,60,4.2,298.3,329.3,300.2
908.6,998,17.1,13.3,78,10.63,60,4.1,298.3,329.5,300.2
908.0,1003,17.1,13.3,79,10.66,60,4.1,298.3,329.6,300.2
907.4,1009,17.0,13.3,79,10.64,60,4.0,298.3,329.6,300.3
906.8,1014,17.0,13.2,78,10.57,59,4.0,298.4,329.4,300.3
906.2,1020,17.0,13.0,77,10.44,59,4.0,298.4,329.0,300.3
905.7,1025,17.0,12.7,76,10.22,59,3.9,298.4,328.5,300.3
905.1,1031,17.0,12.2,74,9.93,59,3.9,298.5,327.7,300.3
904.5,1036,17.0,11.8,72,9.66,58,3.8,298.5,327.0,300.3
903.9,1042,17.0,11.4,70,9.41,58,3.8,298.6,326.3,300.3
903.3,1047,17.0,11.0,68,9.15,57,3.7,298.7,325.6,300.3
902.8,1052,17.0,10.6,66,8.93,57,3.7,298.7,325.1,300.3
902.2,1058,17.0,10.5,66,8.85,57,3.6,298.8,324.9,300.4
901.7,1063,16.9,10.4,65,8.81,56,3.5,298.8,324.8,300.4
901.1,1068,16.9,10.3,65,8.73,56,3.5,298.8,324.6,300.4
900.6,1073,16.9,9.9,64,8.55,55,3.4,298.8,324.1,300.4
900.1,1078,16.9,9.3,61,8.20,55,3.4,298.9,323.2,300.3
899.5,1083,16.9,8.8,59,7.94,55,3.3,298.9,322.5,300.4
899.0,1088,16.9,8.8,59,7.92,55,3.3,299.0,322.5,300.4
898.4,1093,16.9,9.1,60,8.09,54,3.2,299.0,323.0,300.5
897.9,1099,16.9,9.4,61,8.25,54,3.2,299.1,323.5,300.6
897.4,1104,16.8,9.4,62,8.30,54,3.1,299.1,323.7,300.6
896.8,1109,16.8,9.4,62,8.31,54,3.1,299.1,323.7,300.6
896.3,1114,16.7,9.4,62,8.29,55,3.1,299.1,323.7,300.6
895.7,1120,16.7,9.4,62,8.27,55,3.0,299.1,323.6,300.6
895.1,1125,16.7,9.3,62,8.22,55,3.0,299.1,323.5,300.6
894.5,1131,16.6,9.2,61,8.18,56,3.0,299.1,323.4,300.6
893.9,1137,16.6,9.2,62,8.18,56,3.0,299.1,323.4,300.6
893.3,1142,16.5,9.2,62,8.18,57,2.9,299.2,323.4,300.6
892.7,1148,16.5,9.2,62,8.18,58,2.9,299.2,323.4,300.6
892.2,1153,16.4,9.2,62,8.19,59,2.9,299.2,323.5,300.6
891.6,1158,16.4,9.2,63,8.23,60,2.9,299.2,323.6,300.7
891.1,1164,16.3,9.3,63,8.30,61,2.9,299.2,323.8,300.7
890.6,1169,16.3,9.5,64,8.41,62,2.9,299.2,324.1,300.7
890.0,1174,16.3,9.8,66,8.60,63,3.0,299.2,324.7,300.7
889.5,1179,16.2,10.3,68,8.86,64,3.0,299.2,325.4,300.8
889.0,1184,16.1,10.8,70,9.17,65,3.0,299.2,326.3,300.8
888.4,1189,16.1,11.2,73,9.43,66,3.0,299.2,327.0,300.9
887.9,1194,16.0,11.3,74,9.51,67,3.1,299.2,327.2,300.9
887.4,1199,16.0,11.2,73,9.48,68,3.1,299.2,327.1,300.9
886.8,1204,15.9,11.2,73,9.44,69,3.1,299.2,327.0,300.9
886.3,1209,15.9,11.2,74,9.45,70,3.2,299.2,327.1,300.9
885.8,1215,15.8,11.3,74,9.51,70,3.2,299.2,327.2,300.9
885.2,1220,15.8,11.4,75,9.63,71,3.2,299.2,327.6,300.9
884.7,1225,15.7,11.6,76,9.74,72,3.3,299.1,327.9,300.9
884.2,1230,15.7,11.7,77,9.79,73,3.3,299.1,328.0,300.9
883.6,1235,15.6,11.7,77,9.80,73,3.3,299.2,328.1,300.9
883.1,1240,15.6,11.7,78,9.82,74,3.3,299.2,328.1,300.9
882.5,1246,15.5,11.7,78,9.82,74,3.4,299.2,328.1,300.9
882.0,1251,15.5,11.6,78,9.80,74,3.4,299.2,328.1,300.9
881.4,1256,15.4,11.6,78,9.78,75,3.4,299.2,328.0,300.9
880.9,1261,15.4,11.6,78,9.76,75,3.4,299.2,328.0,300.9
880.3,1267,15.3,11.5,78,9.76,75,3.4,299.2,328.0,300.9
879.8,1272,15.3,11.6,78,9.78,75,3.4,299.2,328.0,300.9
879.2,1278,15.3,11.6,79,9.78,76,3.4,299.2,328.1,301.0
878.6,1283,15.2,11.5,79,9.78,76,3.3,299.2,328.1,301.0
878.0,1289,15.2,11.5,79,9.78,76,3.3,299.2,328.1,301.0
877.4,1295,15.1,11.6,79,9.82,75,3.3,299.3,328.2,301.0
876.9,1300,15.1,11.6,80,9.85,75,3.2,299.3,328.3,301.0
876.3,1306,15.0,11.7,80,9.88,75,3.2,299.3,328.4,301.1
875.8,1311,15.0,11.7,81,9.89,75,3.1,299.3,328.5,301.0
875.2,1316,15.0,11.7,81,9.91,74,3.1,299.3,328.5,301.1
874.7,1321,14.9,11.7,81,9.93,74,3.0,299.3,328.6,301.1
874.2,1326,14.9,11.7,81,9.95,73,2.9,299.3,328.6,301.1
873.6,1332,14.8,11.7,82,9.95,73,2.9,299.3,328.7,301.1
873.1,1337,14.8,11.7,82,9.96,72,2.8,299.3,328.7,301.1
872.6,1342,14.7,11.7,82,9.96,71,2.7,299.3,328.7,301.1
872.0,1348,14.7,11.7,82,9.94,71,2.7,299.3,328.6,301.1
871.5,1353,14.7,11.6,82,9.90,70,2.6,299.3,328.6,301.1
870.9,1358,14.6,11.5,82,9.86,69,2.5,299.4,328.5,301.1
870.4,1364,14.6,11.5,82,9.86,68,2.5,299.4,328.5,301.1
869.8,1369,14.5,11.6,83,9.92,68,2.4,299.4,328.7,301.2
869.3,1374,14.5,11.8,84,10.06,67,2.4,299.4,329.0,301.2
868.7,1380,14.4,12.0,85,10.17,66,2.3,299.3,329.3,301.2
868.2,1385,14.4,12.0,85,10.18,65,2.3,299.4,329.4,301.2
867.6,1390,14.3,11.9,85,10.12,65,2.3,299.4,329.2,301.2
867.1,1396,14.3,11.8,85,10.08,65,2.2,299.4,329.1,301.2
866.5,1401,14.3,11.7,85,10.05,64,2.2,299.4,329.1,301.2
866.0,1406,14.2,11.7,85,10.03,64,2.2,299.4,329.0,301.2
865.4,1412,14.2,11.7,85,10.04,64,2.2,299.4,329.0,301.2
864.8,1417,14.1,11.7,86,10.06,64,2.2,299.4,329.1,301.2
864.3,1423,14.1,11.7,86,10.07,65,2.3,299.4,329.1,301.2
863.7,1428,14.0,11.8,86,10.09,65,2.3,299.4,329.2,301.2
863.2,1434,14.0,11.8,87,10.09,66,2.3,299.4,329.2,301.3
862.6,1439,13.9,11.8,87,10.10,66,2.3,299.5,329.3,301.3
862.0,1445,13.9,11.8,87,10.12,67,2.4,299.5,329.3,301.3
861.5,1450,13.8,11.8,87,10.14,68,2.4,299.5,329.4,301.3
860.9,1456,13.8,11.8,88,10.14,69,2.5,299.5,329.4,301.3
860.4,1461,13.8,11.8,88,10.13,70,2.5,299.5,329.4,301.3
859.8,1467,13.7,11.7,88,10.11,71,2.6,299.5,329.4,301.4
859.2,1472,13.7,11.6,87,10.06,72,2.6,299.6,329.3,301.4
858.7,1478,13.7,11.6,87,10.01,73,2.7,299.6,329.2,301.4
858.1,1484,13.7,11.5,87,9.97,74,2.8,299.6,329.1,301.4
857.5,1489,13.6,11.4,87,9.93,75,2.8,299.6,329.0,301.4
857.0,1495,13.6,11.4,86,9.90,77,2.9,299.7,328.9,301.4
856.4,1500,13.6,11.3,86,9.88,78,2.9,299.7,328.9,301.5
855.9,1505,13.5,11.3,86,9.88,79,3.0,299.7,328.9,301.5
855.4,1511,13.5,11.3,87,9.88,80,3.1,299.7,328.9,301.5
854.8,1516,13.5,11.3,87,9.89,81,3.1,299.7,329.0,301.5
854.3,1521,13.4,11.3,87,9.88,82,3.2,299.7,329.0,301.5
853.7,1527,13.4,11.3,87,9.88,83,3.3,299.8,329.0,301.6
853.2,1532,13.3,11.3,87,9.89,85,3.3,299.8,329.0,301.6
852.6,1537,13.3,11.3,88,9.89,86,3.4,299.8,329.0,301.6
852.1,1543,13.3,11.2,88,9.88,87,3.4,299.8,329.0,301.6
851.6,1548,13.2,11.2,87,9.84,88,3.5,299.8,328.9,301.6
851.0,1554,13.2,11.0,87,9.76,88,3.5,299.8,328.7,301.6
850.4,1559,13.2,10.9,86,9.67,89,3.6,299.9,328.5,301.6
850.0,1564,13.2,10.8,86,9.62,89,3.6,299.9,328.4,301.7
849.9,1565,13.2,10.8,85,9.60,90,3.6,299.9,328.3,301.7
849.3,1571,13.1,10.7,85,9.58,91,3.6,300.0,328.3,301.7
848.6,1577,13.1,10.7,85,9.57,92,3.7,300.0,328.4,301.7
848.0,1583,13.1,10.6,85,9.51,92,3.7,300.0,328.2,301.8
847.4,1589,13.1,10.4,84,9.39,93,3.7,300.1,327.9,301.8
846.8,1595,13.0,10.2,83,9.26,93,3.8,300.1,327.6,301.8
846.2,1601,13.0,10.0,82,9.14,94,3.8,300.2,327.3,301.8
845.7,1607,13.0,9.9,81,9.09,94,3.8,300.2,327.2,301.8
845.1,1612,13.0,10.0,82,9.14,94,3.8,300.2,327.4,301.9
844.6,1618,13.0,10.2,83,9.28,95,3.8,300.2,327.8,301.9
844.0,1623,12.9,10.4,85,9.45,95,3.8,300.3,328.3,302.0
843.5,1628,12.9,10.7,86,9.60,95,3.8,300.3,328.8,302.0
843.0,1634,12.9,10.8,87,9.70,95,3.8,300.3,329.1,302.1
842.4,1639,12.8,10.8,88,9.71,94,3.8,300.3,329.1,302.1
841.9,1644,12.8,10.7,87,9.65,94,3.8,300.4,329.0,302.1
841.4,1649,12.8,10.6,86,9.56,94,3.8,300.4,328.7,302.1
840.9,1655,12.8,10.3,85,9.39,93,3.8,300.4,328.3,302.1
840.4,1660,12.8,9.9,83,9.18,93,3.8,300.5,327.8,302.1
839.8,1665,12.8,9.6,81,8.98,92,3.8,300.5,327.2,302.2
839.3,1670,12.8,9.3,79,8.80,91,3.7,300.6,326.8,302.2
838.8,1675,12.8,9.0,78,8.63,91,3.7,300.6,326.3,302.2
838.3,1680,12.7,8.8,77,8.53,90,3.7,300.7,326.1,302.2
837.8,1685,12.7,8.7,77,8.48,89,3.7,300.7,326.0,302.2
837.3,1690,12.7,8.7,76,8.44,88,3.6,300.7,325.9,302.3
836.8,1695,12.7,8.6,76,8.40,87,3.6,300.8,325.8,302.3
836.3,1701,12.7,8.5,76,8.38,86,3.6,300.8,325.8,302.3
835.7,1706,12.7,8.4,75,8.33,85,3.5,300.8,325.7,302.3
835.2,1711,12.6,8.2,74,8.21,84,3.5,300.9,325.4,302.4
834.7,1716,12.6,7.9,73,8.04,83,3.5,300.9,325.0,302.4
834.2,1722,12.6,7.6,72,7.89,82,3.4,301.0,324.6,302.4
833.7,1727,12.6,7.4,70,7.76,81,3.4,301.0,324.3,302.4
833.2,1732,12.6,7.1,69,7.63,80,3.4,301.1,323.9,302.5
832.6,1737,12.6,7.0,68,7.55,79,3.3,301.1,323.8,302.5
832.1,1742,12.6,7.0,69,7.57,78,3.3,301.1,323.8,302.5
831.6,1747,12.6,7.1,70,7.66,77,3.3,301.2,324.1,302.5
831.1,1752,12.5,7.2,70,7.70,76,3.3,301.2,324.2,302.6
830.6,1758,12.5,7.2,70,7.67,75,3.2,301.2,324.2,302.6
830.1,1763,12.4,7.0,69,7.58,74,3.2,301.2,323.9,302.6
829.6,1768,12.4,6.7,68,7.45,73,3.2,301.2,323.6,302.6
829.1,1773,12.4,6.4,67,7.31,72,3.2,301.3,323.2,302.6
828.6,1778,12.4,6.2,66,7.22,71,3.2,301.3,323.0,302.6
828.1,1783,12.4,6.2,66,7.21,71,3.2,301.3,323.0,302.7
827.6,1788,12.4,6.3,66,7.24,70,3.2,301.4,323.1,302.7
827.1,1793,12.3,6.5,68,7.38,69,3.2,301.4,323.6,302.7
826.6,1798,12.3,7.2,71,7.71,69,3.2,301.4,324.5,302.8
826.1,1804,12.3,7.9,75,8.11,68,3.2,301.4,325.7,302.9
825.6,1809,12.2,8.1,76,8.23,68,3.2,301.4,326.1,302.9
825.0,1814,12.2,7.8,74,8.05,68,3.2,301.5,325.6,302.9
824.5,1820,12.2,7.1,71,7.72,67,3.2,301.5,324.7,302.9
824.0,1825,12.2,6.3,67,7.28,67,3.3,301.6,323.5,302.9
823.5,1830,12.3,5.2,62,6.74,67,3.3,301.7,322.0,302.9
822.9,1836,12.3,4.0,57,6.21,67,3.3,301.8,320.6,302.9
822.4,1841,12.4,3.0,53,5.77,67,3.4,301.9,319.5,303.0
821.9,1846,12.4,2.0,49,5.40,67,3.4,302.0,318.5,303.0
821.3,1852,12.5,1.3,47,5.13,67,3.4,302.1,317.8,303.1
820.8,1857,12.5,1.0,45,5.01,67,3.5,302.2,317.6,303.1
820.3,1863,12.5,0.8,45,4.96,67,3.5,302.3,317.5,303.2
819.7,1868,12.5,0.7,44,4.91,67,3.6,302.3,317.4,303.2
819.2,1874,12.5,0.6,44,4.89,67,3.7,302.4,317.4,303.3
818.7,1879,12.5,0.7,45,4.92,67,3.7,302.4,317.5,303.3
818.1,1885,12.4,0.8,45,4.96,68,3.8,302.4,317.6,303.3
817.6,1890,12.4,0.7,45,4.93,68,3.8,302.5,317.6,303.4
817.1,1895,12.4,0.6,44,4.89,68,3.9,302.5,317.6,303.4
816.6,1901,12.4,0.7,45,4.94,68,4.0,302.6,317.8,303.5
816.1,1906,12.5,1.1,46,5.10,68,4.1,302.7,318.3,303.6
815.5,1912,12.5,1.4,47,5.20,68,4.1,302.8,318.8,303.8
815.0,1917,12.6,0.9,45,5.03,69,4.2,302.9,318.4,303.8
814.4,1923,12.6,-0.0,42,4.70,69,4.3,303.0,317.5,303.9
813.9,1928,12.6,-0.9,39,4.41,69,4.4,303.1,316.7,303.9
813.3,1934,12.6,-1.4,38,4.26,69,4.4,303.2,316.4,303.9
812.7,1940,12.6,-1.5,37,4.21,69,4.5,303.2,316.3,304.0
812.2,1946,12.6,-1.8,37,4.13,69,4.6,303.2,316.1,304.0
811.6,1952,12.6,-2.3,35,3.98,69,4.6,303.3,315.7,304.0
811.0,1958,12.6,-2.9,34,3.81,69,4.7,303.3,315.2,304.0
810.5,1964,12.6,-3.4,33,3.67,69,4.8,303.4,314.9,304.1
