PRES,HGHT,TEMP,DWPT,RELH,MIXR,DRCT,SPED,THTA,THTE,THTV
1014.7,31,25.0,20.7,77,15.33,64,7.5,296.9,341.4,299.6
1014.2,35,25.0,20.7,77,15.33,60,6.1,297.0,341.4,299.7
1013.5,41,24.9,20.7,77,15.33,59,6.0,296.9,341.4,299.6
1012.8,47,24.8,20.7,78,15.33,58,6.3,296.9,341.4,299.6
1012.1,53,24.8,20.6,77,15.26,59,6.8,296.9,341.2,299.6
1011.5,58,24.7,20.4,77,15.11,59,7.4,296.9,340.7,299.6
1010.9,64,24.7,20.3,77,14.99,59,7.9,296.9,340.4,299.5
1010.1,71,24.6,20.2,77,14.95,60,8.3,296.9,340.2,299.5
1009.3,77,24.5,20.2,77,14.95,60,8.8,296.9,340.2,299.5
1008.6,84,24.5,20.2,77,14.95,60,9.2,296.9,340.2,299.5
1007.9,90,24.4,20.1,77,14.89,60,9.6,296.9,340.1,299.5
1007.2,96,24.3,20.0,77,14.76,61,10.0,296.8,339.7,299.5
1006.5,102,24.2,19.8,77,14.63,61,10.4,296.8,339.3,299.4
1005.8,108,24.1,19.7,76,14.50,61,10.8,296.8,338.9,299.4
1005.2,113,24.1,19.7,76,14.49,62,11.1,296.8,338.8,299.4
1004.6,118,24.0,19.7,77,14.52,62,11.4,296.8,338.9,299.4
1004.1,123,24.0,19.6,77,14.49,62,11.7,296.8,338.8,299.4
1003.5,128,23.9,19.6,77,14.45,63,11.9,296.8,338.7,299.4
1002.9,133,23.9,19.6,77,14.42,63,12.2,296.8,338.6,299.4
1002.3,138,23.8,19.5,77,14.41,64,12.4,296.8,338.6,299.4
1001.8,143,23.8,19.5,77,14.41,64,12.5,296.8,338.6,299.4
1001.2,148,23.8,19.5,77,14.41,64,12.7,296.8,338.6,299.4
1000.6,154,23.7,19.5,77,14.44,65,12.8,296.8,338.7,299.4
1000.0,159,23.7,19.6,78,14.48,66,13.0,296.8,338.8,299.4
999.4,164,23.6,19.6,78,14.52,66,13.0,296.8,338.9,299.4
998.9,169,23.6,19.6,78,14.52,66,13.1,296.8,338.9,299.4
998.3,174,23.6,19.6,78,14.53,66,13.2,296.9,339.0,299.4
997.7,179,23.5,19.6,79,14.58,67,13.2,296.9,339.2,299.5
997.1,184,23.5,19.7,79,14.62,67,13.2,296.9,339.3,299.5
996.6,189,23.4,19.7,79,14.62,67,13.3,296.8,339.2,299.4
996.0,194,23.4,19.7,80,14.62,68,13.3,296.8,339.2,299.4
995.4,199,23.3,19.6,80,14.61,68,13.3,296.8,339.2,299.4
994.9,204,23.3,19.6,80,14.60,68,13.3,296.8,339.2,299.4
994.3,209,23.2,19.6,80,14.63,69,13.3,296.9,339.3,299.5
993.8,214,23.2,19.7,81,14.66,69,13.2,296.9,339.4,299.5
993.2,218,23.1,19.6,81,14.65,69,13.2,296.8,339.3,299.5
992.6,223,23.1,19.6,81,14.63,69,13.2,296.8,339.3,299.5
992.1,229,23.0,19.6,81,14.62,69,13.2,296.8,339.2,299.4
991.5,234,23.0,19.6,81,14.60,70,13.2,296.8,339.2,299.4
990.9,239,22.9,19.5,81,14.55,70,13.1,296.8,339.1,299.4
990.3,244,22.9,19.5,81,14.52,70,13.1,296.9,339.0,299.4
989.7,250,22.9,19.5,81,14.52,70,13.1,296.9,339.0,299.5
989.1,255,22.8,19.5,81,14.53,70,13.1,296.9,339.1,299.5
988.5,260,22.8,19.4,81,14.51,70,13.0,296.9,339.0,299.5
987.9,265,22.7,19.4,81,14.47,71,13.0,296.9,338.9,299.5
987.4,270,22.7,19.4,82,14.48,71,13.0,296.9,338.9,299.5
986.8,275,22.6,19.4,82,14.49,71,13.0,296.9,339.0,299.5
986.2,280,22.6,19.4,82,14.51,71,12.9,296.9,339.1,299.5
985.6,285,22.6,19.4,82,14.51,71,12.9,297.0,339.1,299.6
985.0,291,22.6,19.4,82,14.52,71,12.9,297.0,339.1,299.6
984.4,296,22.5,19.4,83,14.55,71,12.9,297.0,339.2,299.6
983.8,302,22.4,19.4,83,14.55,71,12.8,297.0,339.2,299.6
983.1,308,22.4,19.4,83,14.55,71,12.8,297.0,339.2,299.6
982.4,314,22.3,19.4,83,14.55,72,12.8,297.0,339.2,299.5
981.7,320,22.3,19.3,83,14.52,72,12.8,297.0,339.1,299.5
981.1,326,22.2,19.3,83,14.52,72,12.7,297.0,339.1,299.6
980.4,332,22.2,19.3,83,14.51,72,12.7,297.0,339.2,299.6
979.8,337,22.2,19.2,83,14.48,72,12.7,297.1,339.1,299.6
979.1,343,22.1,19.2,83,14.44,72,12.7,297.1,339.0,299.6
978.5,349,22.1,19.2,84,14.43,72,12.6,297.0,338.9,299.6
977.8,354,22.0,19.2,84,14.46,72,12.6,297.1,339.1,299.7
977.2,360,22.0,19.2,84,14.47,72,12.6,297.1,339.1,299.6
976.6,366,21.9,19.2,84,14.45,72,12.5,297.1,339.0,299.6
976.0,371,21.9,19.1,84,14.44,72,12.5,297.1,339.0,299.7
975.3,377,21.9,19.1,84,14.43,72,12.5,297.1,339.0,299.7
974.7,382,21.8,19.1,84,14.41,72,12.4,297.1,339.0,299.7
974.1,388,21.8,19.1,85,14.40,72,12.4,297.1,339.0,299.7
973.4,394,21.7,19.1,85,14.40,72,12.3,297.2,339.0,299.7
972.8,399,21.7,19.0,85,14.40,72,12.3,297.2,339.0,299.7
972.2,405,21.6,19.0,85,14.41,72,12.3,297.2,339.0,299.7
971.5,411,21.6,19.0,85,14.40,72,12.2,297.2,339.0,299.7
970.9,416,21.5,19.0,85,14.36,72,12.2,297.2,338.9,299.7
970.3,422,21.5,18.9,85,14.34,72,12.2,297.2,338.8,299.7
969.7,427,21.4,18.9,86,14.36,73,12.1,297.2,338.9,299.7
969.1,433,21.4,19.0,86,14.38,73,12.1,297.2,339.0,299.8
968.5,438,21.4,19.0,86,14.39,73,12.1,297.2,339.0,299.8
967.9,444,21.3,18.9,86,14.38,73,12.0,297.2,339.0,299.8
967.3,449,21.2,18.9,87,14.36,73,12.0,297.2,338.9,299.7
966.7,455,21.2,18.9,87,14.34,73,12.0,297.2,338.8,299.7
966.1,460,21.1,18.9,87,14.36,74,12.0,297.2,338.9,299.8
965.5,465,21.1,18.9,87,14.38,74,12.0,297.2,339.0,299.8
964.9,471,21.1,18.9,87,14.39,74,12.0,297.2,339.1,299.8
964.3,476,21.0,18.9,88,14.39,74,12.0,297.3,339.1,299.8
963.6,482,21.0,18.9,88,14.37,74,12.0,297.3,339.0,299.8
963.0,487,21.0,18.8,88,14.35,75,12.0,297.3,339.0,299.9
962.4,493,20.9,18.8,88,14.35,75,12.0,297.3,339.0,299.9
961.8,498,20.9,18.8,88,14.37,75,12.0,297.4,339.1,299.9
961.3,503,20.9,18.9,88,14.40,75,12.0,297.4,339.3,300.0
960.7,509,20.9,18.9,88,14.42,75,12.0,297.4,339.3,300.0
960.1,514,20.8,18.8,88,14.39,75,12.0,297.4,339.3,300.0
959.5,519,20.8,18.8,88,14.35,75,12.0,297.4,339.1,300.0
959.0,524,20.7,18.7,88,14.33,75,12.0,297.4,339.1,300.0
958.4,529,20.7,18.7,88,14.32,76,12.0,297.4,339.1,300.0
957.8,534,20.6,18.7,89,14.34,76,12.0,297.4,339.1,300.0
957.2,540,20.6,18.7,89,14.35,75,12.0,297.4,339.2,300.0
956.6,545,20.5,18.8,90,14.38,75,12.0,297.4,339.2,300.0
956.0,551,20.5,18.8,90,14.40,75,12.0,297.4,339.3,300.0
955.4,556,20.4,18.8,90,14.41,75,12.0,297.4,339.3,300.0
954.8,562,20.4,18.8,90,14.42,75,12.0,297.4,339.4,300.0
954.2,567,20.3,18.7,91,14.41,75,12.0,297.4,339.3,300.0
953.6,573,20.3,18.7,91,14.39,75,12.0,297.4,339.3,300.0
952.9,579,20.2,18.7,91,14.38,75,12.0,297.4,339.3,300.0
952.3,585,20.2,18.7,91,14.40,75,12.0,297.4,339.3,300.0
951.7,590,20.1,18.7,92,14.41,75,12.0,297.4,339.3,300.0
951.0,596,20.1,18.7,92,14.42,74,11.9,297.4,339.4,300.0
950.4,602,20.0,18.7,92,14.42,74,11.9,297.5,339.4,300.0
949.7,608,20.0,18.7,92,14.42,74,11.9,297.5,339.4,300.0
949.1,614,19.9,18.7,93,14.43,74,11.9,297.5,339.4,300.0
948.5,620,19.8,18.7,93,14.44,74,11.9,297.4,339.4,300.0
947.8,625,19.8,18.7,93,14.43,74,11.8,297.4,339.4,300.0
947.2,631,19.7,18.6,93,14.41,74,11.8,297.4,339.3,300.0
946.5,637,19.7,18.6,93,14.37,74,11.8,297.4,339.2,300.0
945.9,643,19.6,18.5,93,14.33,74,11.8,297.4,339.1,300.0
945.2,649,19.6,18.5,94,14.31,74,11.8,297.5,339.1,300.0
944.6,655,19.5,18.5,94,14.33,74,11.8,297.5,339.1,300.0
944.0,660,19.5,18.5,94,14.36,74,11.7,297.5,339.2,300.0
943.4,666,19.4,18.5,95,14.37,74,11.7,297.5,339.3,300.0
942.8,671,19.4,18.5,95,14.40,74,11.7,297.5,339.4,300.0
942.2,677,19.3,18.5,95,14.41,74,11.7,297.5,339.4,300.0
941.6,682,19.2,18.5,96,14.39,74,11.7,297.5,339.3,300.0
941.0,688,19.2,18.5,96,14.37,74,11.7,297.5,339.3,300.0
940.4,693,19.2,18.5,96,14.37,74,11.7,297.5,339.3,300.0
939.8,698,19.1,18.4,96,14.36,74,11.7,297.5,339.2,300.1
939.2,704,19.1,18.4,96,14.37,75,11.7,297.5,339.3,300.1
938.7,709,19.0,18.4,96,14.36,75,11.7,297.5,339.3,300.1
938.1,715,19.0,18.4,96,14.36,75,11.7,297.5,339.3,300.1
937.5,720,19.0,18.4,96,14.33,75,11.7,297.5,339.2,300.1
936.9,726,18.9,18.4,97,14.32,75,11.7,297.5,339.2,300.1
936.3,731,18.9,18.4,97,14.33,76,11.7,297.6,339.2,300.1
935.7,737,18.8,18.4,97,14.34,76,11.7,297.6,339.3,300.1
935.0,742,18.7,18.3,98,14.34,76,11.7,297.5,339.3,300.1
934.4,748,18.7,18.3,98,14.33,76,11.7,297.5,339.2,300.1
933.8,754,18.6,18.3,98,14.33,77,11.7,297.5,339.2,300.1
933.2,760,18.6,18.3,98,14.33,77,11.7,297.6,339.2,300.1
932.5,766,18.5,18.3,98,14.31,77,11.7,297.6,339.2,300.1
931.9,772,18.5,18.2,98,14.30,78,11.7,297.6,339.2,300.1
931.2,778,18.4,18.2,99,14.29,78,11.7,297.6,339.2,300.1
930.5,784,18.4,18.2,99,14.29,78,11.7,297.6,339.2,300.2
929.9,790,18.3,18.2,99,14.30,79,11.7,297.6,339.2,300.2
929.2,796,18.3,18.2,99,14.30,79,11.7,297.6,339.2,300.2
928.6,802,18.3,18.2,99,14.27,80,11.7,297.7,339.2,300.2
927.9,808,18.2,18.1,99,14.25,80,11.7,297.7,339.2,300.2
927.3,814,18.2,18.1,99,14.25,81,11.7,297.7,339.2,300.3
926.7,820,18.2,18.1,99,14.25,81,11.6,297.7,339.2,300.3
926.1,825,18.2,18.1,100,14.27,82,11.6,297.8,339.3,300.3
925.5,831,18.2,18.1,100,14.29,82,11.6,297.9,339.5,300.4
925.0,835,18.2,18.1,100,14.30,82,11.6,297.9,339.6,300.5
924.8,837,18.2,18.1,100,14.31,83,11.5,297.9,339.6,300.5
924.2,843,18.2,18.1,100,14.32,83,11.5,298.0,339.7,300.5
923.6,848,18.1,18.1,100,14.29,84,11.5,298.0,339.6,300.5
923.0,854,18.1,18.0,99,14.23,84,11.4,298.0,339.5,300.5
922.4,860,18.1,18.0,99,14.20,85,11.4,298.0,339.4,300.6
921.8,865,18.1,18.0,99,14.20,85,11.3,298.1,339.5,300.6
921.2,870,18.0,18.0,100,14.24,86,11.3,298.1,339.6,300.6
920.7,876,18.0,18.0,100,14.26,86,11.2,298.1,339.7,300.7
920.1,881,18.0,18.0,100,14.27,87,11.2,298.2,339.8,300.7
919.5,887,18.0,18.0,100,14.25,87,11.1,298.2,339.8,300.8
918.9,892,18.0,17.9,100,14.21,87,11.1,298.2,339.7,300.8
918.3,898,17.9,17.8,100,14.14,88,11.0,298.2,339.5,300.8
917.7,903,17.9,17.8,99,14.08,88,10.9,298.2,339.3,300.8
917.1,909,17.8,17.7,99,14.00,88,10.9,298.2,339.1,300.7
916.5,914,17.7,17.6,99,13.94,88,10.8,298.2,338.9,300.7
915.9,920,17.7,17.6,99,13.92,88,10.8,298.2,338.9,300.7
915.3,926,17.7,17.6,99,13.95,88,10.7,298.3,339.0,300.8
914.7,932,17.7,17.7,100,14.03,88,10.7,298.3,339.3,300.8
914.1,938,17.6,17.6,100,14.03,88,10.6,298.3,339.3,300.9
913.4,944,17.5,17.5,100,13.91,88,10.6,298.3,338.9,300.8
912.8,950,17.4,17.4,100,13.85,88,10.5,298.2,338.7,300.7
912.1,956,17.5,17.5,100,13.91,88,10.5,298.4,339.0,300.8
911.4,963,17.6,17.5,100,13.94,87,10.5,298.5,339.3,301.0
910.7,969,17.6,17.3,98,13.79,87,10.4,298.6,338.9,301.1
910.0,976,17.4,16.9,97,13.44,87,10.4,298.5,337.8,300.9
909.3,982,17.1,16.3,95,12.93,86,10.4,298.2,336.0,300.5
908.6,989,16.8,16.1,96,12.77,86,10.3,298.0,335.3,300.3
907.8,997,16.8,16.5,98,13.10,86,10.3,298.1,336.3,300.4
907.0,1004,16.8,16.7,99,13.28,85,10.3,298.2,336.9,300.5
906.3,1011,16.8,16.7,100,13.34,85,10.3,298.2,337.2,300.6
905.6,1017,16.7,16.7,100,13.32,85,10.3,298.2,337.1,300.6
904.9,1024,16.7,16.6,100,13.28,85,10.3,298.2,337.0,300.6
904.2,1030,16.7,16.7,100,13.34,85,10.3,298.3,337.3,300.7
903.6,1036,16.7,16.7,100,13.37,84,10.4,298.4,337.4,300.8
902.9,1043,16.7,16.7,100,13.38,84,10.4,298.5,337.6,300.9
902.3,1049,16.7,16.7,100,13.33,85,10.4,298.5,337.5,300.9
901.6,1055,16.7,16.6,100,13.28,85,10.5,298.5,337.3,300.9
900.9,1062,16.6,16.5,100,13.26,85,10.5,298.5,337.3,300.9
900.2,1069,16.6,16.5,100,13.27,85,10.6,298.6,337.4,300.9
899.4,1076,16.7,16.7,100,13.39,85,10.6,298.7,337.9,301.1
898.7,1083,16.6,16.6,100,13.34,86,10.7,298.7,337.8,301.1
897.9,1090,16.6,16.5,100,13.27,86,10.8,298.8,337.6,301.1
897.1,1098,16.5,16.3,99,13.14,86,10.8,298.7,337.2,301.1
896.3,1105,16.3,16.2,99,13.00,87,10.9,298.7,336.7,301.0
895.6,1113,16.3,16.3,100,13.11,87,11.0,298.7,337.1,301.1
894.8,1120,16.4,16.4,100,13.19,88,11.1,298.8,337.4,301.2
894.0,1127,16.3,16.3,100,13.15,88,11.1,298.9,337.4,301.2
893.3,1134,16.2,16.1,99,13.01,89,11.2,298.8,336.9,301.2
892.5,1141,16.1,15.9,99,12.87,89,11.3,298.8,336.5,301.1
891.8,1149,15.9,15.7,99,12.69,89,11.4,298.7,335.8,300.9
891.1,1156,15.8,15.7,99,12.68,90,11.4,298.6,335.7,300.9
890.3,1163,15.8,15.8,100,12.75,90,11.5,298.7,336.0,301.0
889.6,1170,15.8,15.8,100,12.77,90,11.6,298.7,336.1,301.0
888.8,1177,15.8,15.8,100,12.83,90,11.6,298.9,336.4,301.2
888.1,1184,15.8,15.8,100,12.86,90,11.7,299.0,336.6,301.3
887.4,1191,15.8,15.8,100,12.84,90,11.7,299.0,336.6,301.3
886.7,1197,15.8,15.7,100,12.78,90,11.8,299.0,336.5,301.3
886.0,1204,15.7,15.7,100,12.74,90,11.8,299.0,336.4,301.3
885.3,1211,15.7,15.7,100,12.74,90,11.8,299.0,336.4,301.3
884.5,1218,15.6,15.6,100,12.72,90,11.9,299.1,336.3,301.3
883.8,1225,15.7,15.7,100,12.76,89,11.9,299.2,336.6,301.5
883.1,1232,15.7,15.7,100,12.79,89,11.9,299.3,336.8,301.6
882.3,1239,15.7,15.6,100,12.75,89,11.9,299.3,336.8,301.6
881.6,1246,15.7,15.5,99,12.69,89,12.0,299.4,336.7,301.7
880.9,1253,15.6,15.5,99,12.69,88,12.0,299.4,336.7,301.7
880.2,1260,15.5,15.5,99,12.65,88,12.0,299.4,336.5,301.7
879.5,1267,15.4,15.4,100,12.62,88,12.0,299.4,336.4,301.6
878.8,1274,15.4,15.4,100,12.60,88,12.0,299.4,336.4,301.6
878.1,1281,15.3,15.3,100,12.58,87,12.0,299.4,336.3,301.7
877.4,1288,15.3,15.3,100,12.59,87,12.0,299.5,336.4,301.7
876.7,1294,15.4,15.4,100,12.64,87,12.0,299.6,336.7,301.9
876.0,1301,15.5,15.5,100,12.73,87,12.0,299.8,337.2,302.0
875.4,1307,15.5,15.5,100,12.74,87,12.0,299.8,337.3,302.1
874.7,1313,15.4,15.3,100,12.59,87,12.0,299.7,336.8,302.0
874.1,1319,15.1,15.0,99,12.39,87,12.0,299.6,336.0,301.8
873.4,1326,15.0,15.0,100,12.38,87,12.0,299.5,335.9,301.7
872.8,1332,15.0,15.0,100,12.38,87,12.0,299.6,336.0,301.8
872.1,1339,15.0,15.0,100,12.38,88,11.9,299.6,336.0,301.8
871.3,1346,15.0,15.0,100,12.44,88,11.9,299.8,336.3,302.0
870.5,1354,15.1,15.1,100,12.49,88,11.9,299.9,336.7,302.2
869.8,1362,15.1,15.0,99,12.40,88,11.8,299.9,336.4,302.2
869.0,1369,14.9,14.8,99,12.25,88,11.8,299.8,335.9,302.0
868.2,1377,14.7,14.6,99,12.14,88,11.8,299.7,335.5,301.9
867.4,1385,14.6,14.6,100,12.11,89,11.7,299.7,335.3,301.9
866.6,1392,14.6,14.6,100,12.12,89,11.7,299.8,335.4,302.0
865.9,1400,14.6,14.6,100,12.16,89,11.7,299.9,335.7,302.1
865.1,1407,14.6,14.5,99,12.07,89,11.6,299.9,335.4,302.0
864.3,1415,14.5,14.4,99,12.01,89,11.6,299.9,335.2,302.0
863.6,1422,14.5,14.5,100,12.07,89,11.5,300.0,335.5,302.1
862.8,1430,14.6,14.6,100,12.18,89,11.5,300.1,336.0,302.3
862.0,1438,14.6,14.6,100,12.24,88,11.4,300.3,336.3,302.5
861.2,1445,14.6,14.6,100,12.25,88,11.4,300.3,336.5,302.5
860.5,1453,14.6,14.6,100,12.23,88,11.4,300.4,336.4,302.6
859.7,1460,14.6,14.6,100,12.23,88,11.3,300.4,336.5,302.6
858.9,1468,14.6,14.6,100,12.26,87,11.3,300.5,336.7,302.7
858.2,1475,14.7,14.7,100,12.34,87,11.3,300.7,337.1,302.9
857.5,1482,14.7,14.7,100,12.38,86,11.3,300.8,337.4,303.0
856.8,1489,14.7,14.7,100,12.40,86,11.3,300.9,337.5,303.1
856.1,1496,14.7,14.7,100,12.38,85,11.3,300.9,337.5,303.2
855.5,1502,14.7,14.6,100,12.34,84,11.3,300.9,337.4,303.2
854.9,1508,14.6,14.6,100,12.34,83,11.4,301.0,337.4,303.2
854.3,1514,14.6,14.6,100,12.33,83,11.4,301.0,337.5,303.2
853.7,1520,14.6,14.6,100,12.34,82,11.4,301.1,337.6,303.3
853.1,1525,14.6,14.6,100,12.36,81,11.5,301.1,337.7,303.4
852.6,1531,14.6,14.6,100,12.37,80,11.5,301.2,337.8,303.4
852.1,1536,14.6,14.6,100,12.38,79,11.5,301.2,337.9,303.5
851.6,1541,14.6,14.6,100,12.39,79,11.6,301.3,338.0,303.5
851.1,1545,14.6,14.6,100,12.39,78,11.6,301.3,338.0,303.6
850.7,1550,14.6,14.5,99,12.30,77,11.7,301.3,337.8,303.6
850.2,1554,14.5,14.2,98,12.10,76,11.7,301.3,337.2,303.5
850.0,1557,14.5,14.0,97,11.94,76,11.8,301.3,336.7,303.5
849.8,1559,14.5,13.8,96,11.79,76,11.8,301.3,336.3,303.5
849.3,1563,14.4,13.5,94,11.56,75,11.8,301.3,335.6,303.4
848.9,1567,14.4,13.3,94,11.42,75,11.8,301.3,335.2,303.4
848.5,1572,14.3,13.1,92,11.23,74,11.8,301.3,334.6,303.3
848.1,1575,14.3,12.7,90,10.95,74,11.8,301.3,333.8,303.2
847.7,1579,14.2,12.3,88,10.68,73,11.8,301.3,333.0,303.2
847.3,1583,14.2,12.3,88,10.64,73,11.8,301.2,332.8,303.2
847.0,1587,14.1,12.5,90,10.83,73,11.8,301.2,333.4,303.2
846.6,1591,14.1,12.6,91,10.89,72,11.7,301.2,333.5,303.2
846.2,1595,14.0,12.5,90,10.80,72,11.6,301.2,333.3,303.2
845.8,1599,14.0,12.4,90,10.74,72,11.6,301.2,333.1,303.2
845.3,1603,13.9,12.4,91,10.79,72,11.5,301.2,333.2,303.2
844.9,1608,13.9,12.5,92,10.86,73,11.4,301.2,333.4,303.1
844.3,1613,13.8,12.6,93,10.95,73,11.3,301.2,333.7,303.2
843.8,1619,13.7,12.7,94,11.03,73,11.1,301.1,333.9,303.1
843.2,1625,13.7,12.7,94,11.02,74,11.0,301.1,333.8,303.1
842.5,1631,13.5,12.6,94,10.94,74,10.9,301.1,333.5,303.1
841.9,1638,13.5,12.5,94,10.89,75,10.8,301.1,333.3,303.0
841.3,1644,13.4,12.6,95,10.95,76,10.6,301.0,333.5,303.0
840.6,1651,13.3,12.8,96,11.10,76,10.5,301.0,333.9,303.0
840.0,1657,13.2,12.9,98,11.19,77,10.4,301.0,334.2,303.0
839.3,1664,13.1,12.8,98,11.17,78,10.3,301.0,334.1,303.0
838.7,1670,13.0,12.8,98,11.11,79,10.2,300.9,333.9,302.9
838.1,1676,12.9,12.8,99,11.15,80,10.1,300.9,333.9,302.9
837.5,1682,12.9,12.8,100,11.20,81,10.0,300.9,334.1,302.9
836.9,1688,12.9,12.8,100,11.18,81,9.9,300.9,334.1,303.0
836.3,1694,12.8,12.7,100,11.14,82,9.9,300.9,333.9,303.0
835.8,1699,12.8,12.8,100,11.15,83,9.8,301.0,334.0,303.0
835.3,1704,12.8,12.8,100,11.17,84,9.8,301.0,334.1,303.0
834.8,1709,12.8,12.8,100,11.20,84,9.8,301.1,334.3,303.1
834.4,1714,12.8,12.8,100,11.20,85,9.9,301.1,334.3,303.1
833.9,1718,12.8,12.8,100,11.19,85,9.9,301.2,334.3,303.2
833.4,1723,12.7,12.7,100,11.18,85,9.9,301.2,334.3,303.2
833.0,1727,12.7,12.7,100,11.15,86,10.0,301.2,334.2,303.2
832.6,1732,12.6,12.6,100,11.11,86,10.1,301.1,334.1,303.2
832.1,1736,12.6,12.6,100,11.11,85,10.2,301.2,334.1,303.2
831.7,1740,12.7,12.7,100,11.17,85,10.4,301.3,334.4,303.3
831.3,1744,12.7,12.7,100,11.16,85,10.5,301.3,334.4,303.3
830.9,1748,12.6,12.6,100,11.09,85,10.7,301.2,334.1,303.3
830.6,1752,12.5,12.5,100,11.02,84,10.9,301.2,333.8,303.2
830.2,1755,12.5,12.5,100,11.07,84,11.1,301.3,334.1,303.3
829.9,1758,12.5,12.5,100,11.04,83,11.3,301.3,334.0,303.3
829.7,1761,12.5,12.5,100,11.02,83,11.5,301.3,334.0,303.3
829.4,1764,12.4,12.4,100,11.00,82,11.7,301.3,333.9,303.3
829.1,1766,12.4,12.3,99,10.90,82,12.0,301.3,333.6,303.2
828.9,1769,12.4,12.1,98,10.79,81,12.2,301.3,333.3,303.2
828.6,1772,12.4,12.0,98,10.69,80,12.5,301.3,333.0,303.2
828.3,1775,12.3,11.7,96,10.48,80,12.7,301.3,332.4,303.2
828.0,1778,12.3,11.4,95,10.31,79,12.9,301.2,331.9,303.1
827.7,1781,12.2,11.3,94,10.23,79,13.2,301.2,331.6,303.1
827.3,1785,12.2,11.5,96,10.36,78,13.4,301.2,332.0,303.1
827.0,1788,12.2,11.3,94,10.24,78,13.6,301.3,331.7,303.2
826.7,1791,12.1,10.3,89,9.54,78,13.8,301.1,329.5,302.9
826.5,1794,12.0,9.4,84,9.02,77,14.0,301.1,327.9,302.7
826.2,1796,12.0,9.3,84,8.96,77,14.1,301.1,327.8,302.7
825.9,1799,11.9,9.7,86,9.17,77,14.2,301.1,328.4,302.8
825.6,1802,11.9,10.0,88,9.36,77,14.3,301.0,328.9,302.7
825.3,1805,11.8,10.0,89,9.41,76,14.4,301.0,329.0,302.7
824.9,1809,11.8,10.0,89,9.40,76,14.4,301.1,329.0,302.8
824.5,1813,11.8,10.2,90,9.54,76,14.4,301.1,329.5,302.8
824.1,1818,11.7,10.7,94,9.88,76,14.4,301.1,330.4,302.9
823.6,1822,11.7,11.1,96,10.11,76,14.4,301.0,331.1,302.9
823.1,1827,11.6,11.2,97,10.18,76,14.3,301.0,331.2,302.8
822.6,1832,11.5,11.3,98,10.25,76,14.2,301.0,331.4,302.8
822.2,1837,11.6,11.3,98,10.32,75,14.1,301.1,331.7,303.0
821.7,1842,11.6,11.2,98,10.25,75,14.0,301.2,331.6,303.0
821.2,1847,11.4,11.1,98,10.19,75,13.9,301.0,331.3,302.9
820.7,1852,11.4,11.2,99,10.27,75,13.7,301.0,331.5,302.9
820.2,1857,11.5,11.5,100,10.44,75,13.5,301.2,332.2,303.1
819.7,1862,11.7,11.7,100,10.58,75,13.3,301.5,332.9,303.4
819.2,1867,11.9,11.9,100,10.75,75,13.1,301.8,333.7,303.7
818.7,1872,11.9,11.9,100,10.75,75,12.9,301.8,333.8,303.7
818.2,1878,11.7,11.7,100,10.64,74,12.7,301.7,333.3,303.6
817.7,1883,11.7,11.6,100,10.58,74,12.5,301.7,333.1,303.6
817.1,1889,11.5,11.5,100,10.52,74,12.3,301.6,332.9,303.5
816.6,1894,11.5,11.5,100,10.50,74,12.1,301.6,332.9,303.5
816.1,1900,11.3,11.3,100,10.36,74,12.0,301.5,332.3,303.4
815.5,1905,11.3,11.2,99,10.27,74,11.8,301.5,332.0,303.3
815.1,1910,11.2,11.0,99,10.20,73,11.6,301.4,331.8,303.3
814.6,1915,11.1,11.0,99,10.17,73,11.4,301.4,331.7,303.3
814.2,1919,11.1,11.0,100,10.18,73,11.2,301.4,331.7,303.2
813.8,1923,11.1,11.1,100,10.27,73,11.1,301.5,332.0,303.4
813.4,1927,11.1,11.1,100,10.29,73,10.9,301.6,332.2,303.4
813.1,1930,11.2,11.2,100,10.33,73,10.8,301.7,332.4,303.5
812.8,1934,11.3,11.3,100,10.42,73,10.7,301.8,332.8,303.7
812.5,1937,11.5,11.5,100,10.55,74,10.5,302.0,333.5,304.0
812.2,1940,11.7,11.7,100,10.70,74,10.4,302.3,334.2,304.2
811.9,1943,11.8,11.8,100,10.80,74,10.3,302.5,334.7,304.4
811.5,1946,11.8,11.7,100,10.73,74,10.2,302.5,334.5,304.4
811.2,1950,11.6,11.5,99,10.57,75,10.1,302.3,333.8,304.2
810.9,1953,11.4,11.3,99,10.46,75,10.0,302.2,333.4,304.1
810.5,1957,11.6,11.5,100,10.60,76,9.9,302.3,333.9,304.2
810.2,1960,11.8,11.8,100,10.79,76,9.9,302.6,334.8,304.6
809.9,1963,11.9,11.8,100,10.84,77,9.8,302.7,335.1,304.7
809.6,1967,11.8,11.7,99,10.76,78,9.7,302.7,334.9,304.7
809.3,1970,11.8,11.7,99,10.72,78,9.7,302.7,334.7,304.7
809.0,1973,11.8,11.7,99,10.75,79,9.6,302.7,334.8,304.7
808.7,1975,11.8,11.7,99,10.75,80,9.5,302.8,334.9,304.7
808.5,1978,11.7,11.6,99,10.69,80,9.5,302.7,334.6,304.6
