PRES,HGHT,TEMP,DWPT,RELH,MIXR,DRCT,SPED,THTA,THTE,THTV
1012.3,31,23.0,20.7,87,15.39,259,1.7,295.1,339.4,297.8
1011.7,36,23.4,20.9,86,15.53,323,0.8,295.6,340.3,298.3
1011.0,42,24.0,21.2,85,15.90,342,0.9,296.2,342.2,299.0
1010.4,47,24.5,21.3,82,15.99,348,0.9,296.8,343.1,299.6
1009.8,53,24.7,21.1,80,15.82,348,0.9,297.0,342.9,299.9
1009.1,59,24.8,21.0,79,15.70,347,0.9,297.2,342.8,300.0
1008.5,64,24.8,20.9,79,15.66,346,0.9,297.3,342.7,300.0
1007.8,69,24.8,20.9,79,15.66,346,0.9,297.3,342.8,300.1
1007.2,75,24.8,21.0,79,15.72,347,0.9,297.3,343.0,300.1
1006.5,81,24.8,21.1,80,15.80,347,0.9,297.4,343.3,300.2
1005.9,87,24.7,21.1,80,15.87,348,0.9,297.4,343.5,300.2
1005.2,92,24.7,21.2,81,15.94,349,0.9,297.4,343.7,300.2
1004.5,98,24.6,21.2,81,15.99,351,0.9,297.4,343.9,300.2
1003.9,104,24.6,21.3,82,16.05,352,0.9,297.4,344.0,300.2
1003.3,109,24.5,21.3,82,16.07,354,0.8,297.4,344.1,300.2
1002.7,114,24.5,21.3,82,16.08,356,0.8,297.4,344.1,300.3
1002.1,119,24.4,21.3,82,16.07,358,0.8,297.4,344.1,300.3
1001.6,124,24.4,21.2,82,16.02,1,0.7,297.4,344.0,300.2
1001.0,129,24.3,21.2,82,15.99,3,0.7,297.4,343.9,300.2
1000.4,135,24.3,21.2,83,16.04,6,0.7,297.4,344.0,300.3
1000.0,138,24.3,21.2,83,16.09,6,0.7,297.4,344.2,300.3
999.8,140,24.3,21.3,83,16.11,10,0.7,297.4,344.2,300.3
999.2,145,24.2,21.2,84,16.11,14,0.6,297.4,344.2,300.3
998.6,151,24.1,21.2,84,16.09,19,0.6,297.4,344.2,300.3
997.9,156,24.1,21.2,84,16.09,23,0.6,297.4,344.2,300.3
997.3,162,24.0,21.2,84,16.08,29,0.6,297.4,344.1,300.3
996.7,167,24.0,21.2,84,16.08,34,0.6,297.4,344.1,300.3
996.1,172,23.9,21.2,85,16.13,39,0.6,297.4,344.3,300.3
995.6,177,23.9,21.3,85,16.21,44,0.6,297.4,344.5,300.3
995.0,182,23.8,21.3,86,16.27,50,0.6,297.4,344.7,300.3
994.4,187,23.8,21.4,86,16.30,55,0.6,297.4,344.8,300.3
993.8,192,23.8,21.4,86,16.33,61,0.6,297.4,344.9,300.3
993.2,198,23.7,21.4,87,16.33,67,0.7,297.4,344.9,300.3
992.7,203,23.6,21.3,87,16.31,72,0.7,297.4,344.8,300.3
992.1,208,23.6,21.3,87,16.30,77,0.8,297.4,344.8,300.3
991.5,213,23.5,21.3,87,16.30,81,0.8,297.4,344.8,300.3
991.0,218,23.5,21.3,87,16.30,85,0.9,297.4,344.8,300.3
990.4,223,23.5,21.3,88,16.32,89,0.9,297.4,344.8,300.3
989.9,227,23.4,21.3,88,16.34,93,1.0,297.4,344.9,300.3
989.3,232,23.4,21.3,88,16.36,96,1.1,297.4,345.0,300.3
988.8,237,23.3,21.3,88,16.37,99,1.2,297.4,345.0,300.4
988.2,242,23.3,21.3,89,16.40,101,1.3,297.4,345.1,300.4
987.7,247,23.2,21.3,89,16.38,103,1.4,297.4,345.1,300.3
987.1,252,23.2,21.3,89,16.36,104,1.5,297.4,345.0,300.3
986.6,257,23.1,21.3,89,16.38,105,1.6,297.4,345.0,300.3
986.1,261,23.1,21.3,90,16.38,106,1.7,297.4,345.0,300.3
985.5,266,23.0,21.3,90,16.35,106,1.9,297.4,344.9,300.3
985.1,270,23.0,21.2,90,16.33,107,2.0,297.4,344.9,300.3
984.6,274,23.0,21.2,90,16.35,107,2.1,297.4,345.0,300.3
984.1,279,22.9,21.3,90,16.39,107,2.3,297.4,345.1,300.4
983.6,283,22.9,21.3,91,16.40,107,2.4,297.4,345.1,300.3
983.1,288,22.9,21.3,91,16.41,107,2.6,297.4,345.1,300.4
982.5,292,22.8,21.4,91,16.51,107,2.7,297.5,345.5,300.4
982.0,297,22.8,21.4,92,16.58,106,2.8,297.5,345.7,300.5
981.5,302,22.8,21.4,92,16.57,106,3.0,297.5,345.7,300.5
980.9,307,22.8,21.4,92,16.57,105,3.1,297.6,345.8,300.5
980.3,312,22.7,21.3,92,16.53,105,3.2,297.6,345.7,300.5
979.7,317,22.7,21.3,92,16.46,104,3.4,297.6,345.4,300.5
979.1,323,22.7,21.2,92,16.45,104,3.5,297.6,345.5,300.5
978.5,329,22.7,21.2,91,16.41,103,3.6,297.7,345.4,300.6
977.8,334,22.7,21.1,91,16.35,102,3.7,297.7,345.3,300.6
977.2,340,22.7,21.1,91,16.32,102,3.8,297.8,345.2,300.7
976.6,346,22.6,21.1,91,16.30,101,3.8,297.8,345.2,300.7
975.9,352,22.6,21.0,91,16.28,101,3.9,297.8,345.2,300.7
975.3,357,22.5,21.0,91,16.26,100,4.0,297.8,345.1,300.7
974.7,362,22.5,21.0,91,16.23,100,4.0,297.8,345.0,300.7
974.1,368,22.5,20.9,91,16.15,100,4.0,297.8,344.9,300.7
973.6,373,22.4,20.8,90,16.07,99,4.0,297.8,344.6,300.7
973.0,378,22.4,20.7,90,16.02,99,4.1,297.9,344.5,300.7
972.4,383,22.3,20.7,91,16.04,99,4.1,297.9,344.6,300.7
971.9,388,22.3,20.8,91,16.08,98,4.0,297.9,344.7,300.7
971.4,393,22.3,20.8,91,16.13,98,4.0,297.9,344.8,300.7
970.8,397,22.2,20.8,92,16.12,98,4.0,297.9,344.8,300.7
970.3,402,22.2,20.7,91,16.06,98,4.0,297.9,344.6,300.7
969.7,407,22.1,20.7,91,16.02,98,3.9,297.9,344.5,300.7
969.2,412,22.1,20.6,91,15.96,98,3.9,297.9,344.4,300.7
968.6,417,22.1,20.5,91,15.89,98,3.8,297.9,344.2,300.7
968.1,422,22.0,20.5,91,15.84,98,3.8,297.9,344.1,300.8
967.5,427,22.0,20.4,91,15.78,98,3.7,297.9,343.9,300.8
967.0,432,22.0,20.3,90,15.71,98,3.7,298.0,343.7,300.8
966.4,437,21.9,20.2,90,15.65,98,3.7,298.0,343.6,300.8
965.8,442,21.9,20.2,90,15.61,98,3.6,298.0,343.5,300.8
965.3,447,21.9,20.1,90,15.56,98,3.6,298.0,343.4,300.8
964.7,452,21.9,20.0,89,15.47,98,3.6,298.1,343.2,300.8
964.1,458,21.9,19.8,88,15.28,98,3.5,298.1,342.7,300.8
963.6,463,21.9,19.6,87,15.06,98,3.5,298.2,342.1,300.9
963.0,468,21.9,19.4,86,14.92,98,3.5,298.2,341.8,300.9
962.4,473,21.8,19.4,86,14.86,98,3.5,298.2,341.6,300.9
961.9,478,21.8,19.3,86,14.82,98,3.5,298.2,341.5,300.9
961.3,483,21.8,19.3,86,14.78,98,3.6,298.3,341.4,300.9
960.7,489,21.8,19.2,85,14.73,98,3.6,298.3,341.3,300.9
960.1,494,21.8,19.0,85,14.60,98,3.6,298.4,341.0,301.0
959.5,499,21.8,18.9,84,14.43,98,3.7,298.4,340.6,301.0
959.0,504,21.8,18.7,83,14.33,98,3.7,298.5,340.3,301.0
958.4,510,21.7,18.7,83,14.29,98,3.8,298.5,340.2,301.0
957.8,515,21.7,18.6,83,14.26,98,3.8,298.5,340.2,301.0
957.3,520,21.7,18.5,82,14.15,97,3.9,298.5,339.9,301.0
956.7,525,21.7,18.3,81,13.99,97,3.9,298.6,339.5,301.1
956.2,530,21.7,18.1,80,13.84,97,4.0,298.6,339.1,301.1
955.6,535,21.7,18.1,80,13.79,97,4.0,298.7,339.0,301.1
955.0,540,21.6,18.1,80,13.81,97,4.1,298.7,339.1,301.1
954.5,545,21.6,18.0,80,13.76,97,4.1,298.7,338.9,301.1
953.9,550,21.6,17.9,80,13.65,97,4.2,298.7,338.7,301.2
953.4,555,21.6,17.7,79,13.51,97,4.2,298.8,338.3,301.2
952.9,560,21.6,17.5,78,13.34,97,4.3,298.8,337.9,301.2
952.3,565,21.6,17.4,77,13.23,97,4.3,298.9,337.6,301.2
951.8,569,21.5,17.3,77,13.16,97,4.3,298.9,337.4,301.2
951.3,574,21.5,17.3,77,13.13,97,4.4,298.9,337.4,301.2
950.8,578,21.5,17.3,77,13.17,97,4.4,298.9,337.5,301.3
950.3,583,21.4,17.4,78,13.24,97,4.4,298.9,337.7,301.3
949.9,588,21.4,17.4,78,13.31,98,4.4,298.9,337.9,301.3
949.4,592,21.3,17.5,79,13.37,98,4.4,298.9,338.0,301.3
948.9,597,21.3,17.5,79,13.35,98,4.4,298.9,338.0,301.3
948.4,601,21.2,17.3,78,13.24,99,4.4,298.9,337.7,301.2
947.9,606,21.2,17.1,77,13.06,99,4.4,298.9,337.2,301.2
947.4,610,21.2,16.9,76,12.88,100,4.4,298.9,336.7,301.2
946.9,614,21.2,16.6,75,12.67,100,4.4,299.0,336.1,301.3
946.4,619,21.2,16.4,74,12.52,101,4.4,299.0,335.8,301.3
945.9,624,21.2,16.3,73,12.38,102,4.4,299.1,335.4,301.3
945.4,628,21.2,16.1,73,12.26,102,4.3,299.1,335.1,301.3
944.9,633,21.2,16.0,72,12.20,103,4.3,299.1,335.0,301.3
944.4,638,21.2,16.1,73,12.24,104,4.3,299.1,335.1,301.3
943.8,643,21.1,16.1,73,12.27,104,4.3,299.1,335.2,301.3
943.3,648,21.0,16.0,73,12.23,105,4.2,299.1,335.1,301.3
942.8,652,21.0,15.9,73,12.14,105,4.2,299.1,334.8,301.3
942.3,657,21.0,15.8,72,12.03,106,4.1,299.1,334.5,301.3
941.8,662,21.0,15.6,71,11.90,106,4.1,299.2,334.2,301.3
941.3,666,21.0,15.5,71,11.81,106,4.1,299.2,333.9,301.4
940.8,671,21.0,15.4,70,11.76,106,4.0,299.3,333.9,301.4
940.3,675,20.9,15.4,71,11.80,106,4.0,299.3,334.0,301.4
939.8,680,20.9,15.6,71,11.92,106,3.9,299.3,334.4,301.5
939.3,684,20.9,15.8,72,12.08,106,3.9,299.3,334.9,301.5
938.8,689,20.9,15.9,73,12.17,105,3.8,299.4,335.1,301.5
938.3,694,20.8,15.9,73,12.20,105,3.8,299.4,335.2,301.6
937.8,699,20.8,16.0,74,12.31,104,3.7,299.4,335.5,301.6
937.2,704,20.7,16.3,76,12.55,103,3.7,299.3,336.2,301.6
936.7,709,20.6,16.5,77,12.73,102,3.7,299.3,336.7,301.6
936.1,714,20.5,16.6,78,12.77,101,3.6,299.3,336.8,301.6
935.6,719,20.5,16.6,78,12.79,100,3.6,299.3,336.8,301.6
935.0,724,20.4,16.7,79,12.86,99,3.6,299.3,337.0,301.6
934.5,729,20.4,16.7,79,12.92,98,3.6,299.3,337.2,301.6
933.9,734,20.4,16.8,80,13.00,97,3.6,299.3,337.4,301.6
933.4,739,20.3,16.9,81,13.09,96,3.6,299.3,337.7,301.6
932.8,744,20.2,17.0,82,13.18,95,3.6,299.3,337.9,301.6
932.3,750,20.2,17.0,82,13.21,94,3.7,299.3,338.0,301.6
931.7,755,20.1,17.0,82,13.23,94,3.7,299.3,338.1,301.6
931.1,760,20.1,17.1,83,13.25,93,3.7,299.3,338.2,301.7
930.5,766,20.1,17.0,83,13.23,93,3.8,299.3,338.1,301.7
930.0,771,20.0,16.9,82,13.11,92,3.8,299.3,337.8,301.7
929.4,776,20.0,16.6,81,12.89,92,3.9,299.3,337.2,301.7
928.9,781,20.0,16.3,79,12.63,92,3.9,299.4,336.5,301.7
928.4,786,20.0,16.0,78,12.39,92,4.0,299.5,335.9,301.7
927.9,791,20.0,15.8,77,12.29,93,4.0,299.5,335.7,301.7
927.4,795,20.0,15.9,77,12.32,93,4.1,299.5,335.8,301.8
926.9,799,20.0,15.9,77,12.35,93,4.1,299.5,335.9,301.8
926.5,804,20.0,15.8,77,12.30,94,4.2,299.6,335.7,301.8
926.0,808,19.9,15.7,77,12.20,94,4.2,299.6,335.5,301.8
925.5,812,19.9,15.5,76,12.06,95,4.3,299.6,335.1,301.8
925.1,816,19.9,15.3,75,11.93,95,4.3,299.6,334.8,301.8
925.0,817,19.9,15.3,75,11.91,96,4.3,299.7,334.7,301.8
924.6,821,19.9,15.2,74,11.84,96,4.3,299.7,334.5,301.8
924.1,825,19.9,15.1,74,11.78,96,4.3,299.7,334.4,301.8
923.6,830,19.8,15.1,74,11.75,97,4.4,299.7,334.3,301.8
923.1,835,19.8,15.1,74,11.75,97,4.4,299.7,334.3,301.8
922.7,839,19.8,15.1,74,11.75,97,4.4,299.7,334.3,301.8
922.2,844,19.7,15.1,75,11.79,98,4.4,299.7,334.4,301.8
921.7,848,19.7,15.1,75,11.82,98,4.4,299.7,334.5,301.9
921.2,853,19.7,15.2,75,11.84,98,4.3,299.8,334.6,301.9
920.7,858,19.6,15.2,75,11.84,98,4.3,299.8,334.7,301.9
920.2,863,19.6,15.1,75,11.83,98,4.3,299.8,334.6,301.9
919.6,868,19.5,15.1,75,11.79,98,4.2,299.8,334.5,301.9
919.1,872,19.5,15.0,75,11.76,98,4.2,299.8,334.4,301.9
918.6,877,19.4,15.0,76,11.79,98,4.1,299.8,334.5,301.9
918.0,882,19.4,15.1,76,11.87,98,4.1,299.8,334.7,301.9
917.5,887,19.3,15.2,77,11.93,98,4.0,299.7,334.9,301.9
917.0,892,19.3,15.2,77,11.89,98,4.0,299.7,334.8,301.9
916.5,897,19.2,15.0,77,11.81,98,3.9,299.8,334.6,301.9
915.9,902,19.2,14.9,76,11.73,99,3.9,299.8,334.4,301.9
915.4,907,19.2,14.9,76,11.68,99,3.8,299.8,334.2,301.9
914.9,912,19.1,14.8,76,11.68,99,3.8,299.8,334.2,301.9
914.4,917,19.1,14.9,77,11.69,99,3.7,299.8,334.2,301.9
913.9,922,19.0,14.9,77,11.72,100,3.6,299.8,334.3,301.9
913.4,926,19.0,14.9,77,11.78,100,3.6,299.8,334.5,301.9
912.9,931,19.0,15.0,78,11.84,101,3.6,299.8,334.7,301.9
912.4,936,18.9,15.1,78,11.89,101,3.5,299.8,334.8,302.0
911.9,940,18.9,15.1,79,11.95,102,3.5,299.8,335.0,302.0
911.4,945,18.8,15.2,79,12.00,103,3.4,299.8,335.2,302.0
911.0,949,18.8,15.2,80,12.04,103,3.4,299.8,335.3,302.0
910.5,953,18.8,15.3,80,12.09,104,3.4,299.8,335.4,302.0
910.0,958,18.7,15.4,81,12.14,105,3.4,299.9,335.6,302.0
909.6,962,18.7,15.4,81,12.15,106,3.3,299.8,335.6,302.0
909.1,967,18.7,15.3,81,12.11,106,3.3,299.9,335.5,302.0
908.6,971,18.6,15.2,81,12.08,107,3.3,299.9,335.4,302.0
908.2,975,18.6,15.2,81,12.07,108,3.3,299.9,335.4,302.0
907.7,980,18.5,15.3,81,12.11,108,3.2,299.9,335.5,302.1
907.3,984,18.5,15.3,82,12.15,109,3.2,299.9,335.7,302.1
906.8,988,18.5,15.3,82,12.17,109,3.2,299.9,335.7,302.1
906.3,993,18.5,15.3,82,12.17,109,3.2,299.9,335.8,302.1
905.9,997,18.4,15.3,82,12.16,110,3.1,299.9,335.8,302.1
905.4,1002,18.4,15.3,82,12.18,110,3.1,299.9,335.8,302.1
904.9,1007,18.4,15.3,83,12.21,110,3.1,299.9,335.9,302.1
904.4,1011,18.3,15.4,83,12.23,110,3.0,299.9,336.0,302.2
903.9,1016,18.3,15.4,83,12.28,110,3.0,300.0,336.2,302.2
903.4,1021,18.3,15.5,84,12.32,110,2.9,300.0,336.3,302.2
902.9,1025,18.2,15.4,84,12.30,109,2.9,300.0,336.2,302.2
902.4,1030,18.2,15.3,84,12.24,109,2.8,300.0,336.0,302.2
902.0,1035,18.1,15.3,84,12.20,108,2.7,300.0,335.9,302.2
901.5,1039,18.1,15.3,84,12.18,108,2.7,300.0,335.9,302.2
901.0,1043,18.0,15.3,84,12.20,107,2.6,300.0,335.9,302.2
900.6,1048,18.0,15.3,84,12.22,106,2.6,300.0,336.0,302.2
900.1,1052,18.0,15.3,85,12.26,105,2.5,300.0,336.1,302.2
899.6,1057,17.9,15.4,85,12.33,104,2.4,300.0,336.3,302.2
899.1,1062,17.9,15.5,86,12.38,103,2.4,300.0,336.5,302.3
898.6,1067,17.9,15.5,86,12.41,101,2.3,300.1,336.6,302.3
898.1,1072,17.8,15.4,86,12.36,100,2.3,300.1,336.5,302.3
897.6,1077,17.8,15.3,85,12.28,98,2.2,300.0,336.2,302.3
897.1,1081,17.7,15.2,85,12.20,97,2.2,300.1,336.0,302.3
896.6,1086,17.7,15.2,85,12.18,95,2.2,300.1,336.0,302.3
896.1,1090,17.7,15.2,85,12.22,93,2.1,300.1,336.1,302.3
895.7,1094,17.7,15.2,85,12.21,92,2.1,300.1,336.1,302.3
895.3,1098,17.7,15.1,85,12.16,90,2.1,300.2,336.0,302.3
894.8,1103,17.7,15.0,84,12.09,89,2.1,300.2,335.9,302.4
894.3,1107,17.7,15.0,84,12.04,87,2.1,300.3,335.8,302.4
893.9,1112,17.7,14.9,84,12.02,86,2.1,300.3,335.8,302.5
893.4,1117,17.7,14.9,84,11.98,85,2.1,300.3,335.7,302.5
892.8,1122,17.6,14.8,84,11.96,84,2.2,300.3,335.6,302.5
892.3,1127,17.6,14.8,84,11.94,83,2.2,300.3,335.6,302.5
891.8,1131,17.5,14.8,84,11.95,82,2.2,300.4,335.6,302.5
891.3,1136,17.5,14.9,84,12.01,81,2.3,300.4,335.8,302.5
890.8,1141,17.5,15.0,85,12.11,81,2.3,300.4,336.1,302.5
890.3,1146,17.4,15.2,87,12.27,81,2.4,300.4,336.6,302.6
889.8,1151,17.4,15.3,87,12.36,81,2.4,300.4,336.9,302.6
889.3,1156,17.4,15.3,88,12.38,81,2.5,300.4,336.9,302.6
888.8,1160,17.3,15.3,88,12.37,81,2.6,300.4,336.9,302.7
888.3,1165,17.3,15.3,88,12.41,81,2.6,300.4,337.0,302.7
887.8,1170,17.2,15.3,89,12.44,82,2.7,300.4,337.1,302.7
887.3,1175,17.2,15.3,89,12.44,82,2.8,300.4,337.1,302.7
886.9,1179,17.1,15.3,89,12.43,83,2.9,300.4,337.1,302.6
886.4,1184,17.1,15.3,89,12.43,83,3.0,300.4,337.1,302.7
886.0,1188,17.1,15.3,90,12.46,84,3.0,300.4,337.2,302.7
885.5,1192,17.0,15.4,90,12.55,84,3.1,300.4,337.5,302.7
885.0,1197,17.0,15.6,91,12.66,85,3.2,300.5,337.8,302.7
884.6,1201,17.0,15.6,92,12.70,85,3.3,300.5,337.9,302.8
884.1,1206,17.0,15.6,92,12.69,86,3.3,300.5,337.9,302.8
883.7,1210,16.9,15.6,92,12.68,87,3.4,300.5,337.9,302.8
883.2,1215,16.9,15.6,92,12.73,87,3.4,300.5,338.1,302.8
882.7,1220,16.9,15.7,93,12.79,88,3.5,300.6,338.3,302.9
882.1,1225,16.9,15.7,93,12.80,89,3.5,300.6,338.4,302.9
881.6,1230,16.9,15.5,92,12.68,89,3.6,300.7,338.1,303.0
881.1,1235,16.9,15.3,90,12.49,90,3.6,300.7,337.6,303.0
880.6,1240,16.9,15.1,89,12.35,91,3.6,300.8,337.3,303.0
880.1,1245,17.0,15.2,89,12.43,92,3.7,300.9,337.7,303.2
879.6,1250,17.0,15.4,90,12.63,92,3.7,301.0,338.4,303.3
879.1,1254,17.1,15.7,91,12.83,93,3.7,301.1,339.0,303.4
878.7,1259,17.1,15.8,92,12.92,94,3.7,301.2,339.4,303.5
878.2,1263,17.1,15.7,92,12.90,95,3.7,301.2,339.4,303.6
877.8,1267,17.1,15.7,91,12.85,96,3.7,301.3,339.3,303.6
877.3,1272,17.1,15.6,91,12.82,97,3.7,301.3,339.2,303.6
876.9,1276,17.1,15.6,91,12.81,98,3.7,301.3,339.2,303.6
876.4,1281,17.1,15.6,91,12.80,99,3.7,301.4,339.3,303.7
875.9,1286,17.0,15.6,91,12.79,100,3.6,301.4,339.3,303.7
875.4,1290,17.0,15.5,91,12.77,101,3.6,301.4,339.2,303.7
874.9,1295,17.0,15.4,91,12.72,102,3.6,301.4,339.1,303.7
874.4,1300,17.0,15.4,91,12.69,103,3.6,301.5,339.0,303.7
873.9,1305,16.9,15.4,91,12.70,104,3.5,301.5,339.1,303.8
873.4,1310,16.9,15.4,91,12.73,106,3.5,301.5,339.2,303.8
872.9,1315,16.9,15.4,91,12.74,107,3.4,301.5,339.2,303.8
872.4,1320,16.8,15.4,92,12.75,108,3.4,301.5,339.3,303.8
872.0,1324,16.8,15.5,92,12.77,109,3.4,301.5,339.3,303.8
871.5,1329,16.8,15.5,92,12.78,110,3.3,301.5,339.4,303.8
871.0,1334,16.7,15.5,92,12.79,111,3.3,301.5,339.4,303.8
870.5,1339,16.7,15.5,93,12.80,112,3.2,301.5,339.5,303.9
870.0,1343,16.6,15.5,93,12.81,113,3.2,301.6,339.5,303.9
869.5,1348,16.6,15.5,93,12.81,114,3.2,301.6,339.5,303.9
869.0,1353,16.6,15.5,93,12.84,114,3.1,301.6,339.6,303.9
868.5,1358,16.5,15.5,94,12.86,115,3.1,301.6,339.7,303.9
868.0,1363,16.5,15.5,94,12.87,116,3.0,301.6,339.7,303.9
867.5,1368,16.4,15.6,95,12.92,117,3.0,301.6,339.9,303.9
867.0,1373,16.4,15.7,95,13.01,117,3.0,301.6,340.1,303.9
866.6,1377,16.4,15.8,96,13.11,118,2.9,301.6,340.4,304.0
866.1,1382,16.3,15.8,97,13.19,119,2.9,301.6,340.7,304.0
865.6,1387,16.3,15.8,97,13.20,119,2.9,301.6,340.7,304.0
865.2,1391,16.2,15.8,97,13.17,120,2.8,301.6,340.6,304.0
864.7,1396,16.2,15.7,97,13.11,120,2.8,301.6,340.4,304.0
864.2,1400,16.2,15.7,97,13.06,121,2.8,301.7,340.4,304.0
863.7,1405,16.2,15.7,97,13.06,121,2.8,301.7,340.4,304.1
863.2,1410,16.2,15.7,97,13.09,121,2.8,301.8,340.6,304.1
862.7,1415,16.2,15.7,97,13.15,122,2.8,301.8,340.8,304.2
862.2,1420,16.2,15.8,97,13.17,122,2.8,301.8,340.9,304.2
861.7,1425,16.2,15.7,97,13.17,122,2.8,301.9,340.9,304.3
861.2,1430,16.1,15.7,97,13.12,122,2.9,301.9,340.8,304.3
860.7,1435,16.2,15.7,97,13.12,122,2.9,302.0,340.9,304.3
860.3,1440,16.1,15.7,97,13.12,122,2.9,302.0,340.9,304.4
859.8,1444,16.1,15.6,97,13.11,121,3.0,302.0,341.0,304.4
859.3,1449,16.1,15.6,97,13.11,121,3.0,302.0,341.0,304.4
858.8,1454,16.1,15.6,97,13.10,121,3.1,302.1,341.0,304.5
858.3,1459,16.0,15.6,97,13.10,120,3.2,302.1,341.0,304.5
857.8,1464,16.0,15.6,97,13.09,120,3.2,302.1,341.0,304.5
857.3,1469,16.0,15.6,97,13.08,119,3.3,302.1,340.9,304.5
856.8,1474,15.9,15.5,98,13.08,119,3.4,302.1,340.9,304.5
856.3,1479,15.9,15.5,98,13.06,118,3.4,302.1,340.9,304.5
855.8,1484,15.9,15.5,97,13.01,118,3.5,302.2,340.8,304.5
855.3,1489,15.9,15.4,97,13.01,117,3.6,302.2,340.9,304.6
854.8,1494,15.9,15.5,97,13.04,117,3.7,302.3,341.1,304.7
854.2,1500,15.9,15.4,97,13.02,116,3.7,302.3,341.0,304.7
853.7,1505,15.8,15.4,97,12.96,116,3.8,302.3,340.9,304.7
853.2,1510,15.9,15.3,96,12.94,115,3.8,302.4,340.9,304.8
852.7,1515,15.9,15.3,96,12.91,115,3.9,302.5,340.9,304.8
852.2,1520,15.8,15.2,96,12.87,115,3.9,302.5,340.8,304.8
851.7,1525,15.8,15.2,96,12.86,114,4.0,302.5,340.7,304.8
851.2,1530,15.7,15.2,97,12.87,114,4.0,302.5,340.8,304.8
850.7,1535,15.7,15.2,97,12.91,114,4.0,302.5,340.9,304.8
850.2,1540,15.7,15.2,97,12.92,114,4.1,302.5,340.9,304.9
850.0,1542,15.6,15.2,98,12.93,114,4.1,302.5,341.0,304.9
849.7,1545,15.6,15.2,98,12.92,114,4.1,302.5,340.9,304.9
849.2,1550,15.6,15.2,98,12.90,114,4.1,302.5,340.9,304.9
848.7,1555,15.5,15.2,98,12.90,114,4.1,302.5,340.9,304.9
848.3,1559,15.5,15.2,98,12.94,114,4.1,302.5,341.0,304.9
847.8,1564,15.5,15.3,99,12.97,115,4.1,302.6,341.2,304.9
847.4,1568,15.4,15.2,99,12.97,115,4.1,302.6,341.1,304.9
846.9,1573,15.4,15.2,99,12.93,115,4.1,302.6,341.0,304.9
846.5,1577,15.4,15.1,99,12.89,115,4.0,302.6,340.9,304.9
846.0,1582,15.3,15.1,99,12.85,116,4.0,302.6,340.8,304.9
845.6,1587,15.3,15.1,99,12.83,116,4.0,302.6,340.8,304.9
845.1,1591,15.2,15.0,99,12.81,117,4.0,302.6,340.7,304.9
844.7,1596,15.2,15.0,98,12.76,117,4.0,302.6,340.6,304.9
844.2,1600,15.2,14.9,98,12.73,117,3.9,302.6,340.5,304.9
843.7,1605,15.2,14.9,98,12.70,117,3.9,302.7,340.5,305.0
843.3,1610,15.2,14.8,98,12.68,117,3.9,302.7,340.5,305.0
842.8,1614,15.2,14.8,98,12.67,117,3.9,302.8,340.5,305.1
842.3,1619,15.2,14.8,97,12.63,117,3.9,302.8,340.4,305.1
841.8,1624,15.1,14.7,97,12.58,117,3.8,302.8,340.3,305.1
841.3,1629,15.1,14.7,97,12.57,117,3.8,302.8,340.3,305.1
840.8,1634,15.1,14.6,97,12.54,117,3.8,302.8,340.2,305.1
840.4,1639,15.1,14.6,97,12.50,116,3.8,302.9,340.1,305.2
839.9,1644,15.1,14.5,96,12.45,116,3.8,303.0,340.1,305.2
839.4,1648,15.1,14.5,96,12.45,115,3.7,303.0,340.1,305.3
839.0,1653,15.1,14.5,96,12.45,114,3.7,303.0,340.2,305.3
838.5,1658,15.1,14.5,97,12.49,113,3.7,303.1,340.4,305.4
838.0,1663,15.1,14.6,97,12.54,113,3.7,303.1,340.5,305.4
837.5,1668,15.0,14.6,97,12.57,111,3.6,303.1,340.6,305.4
837.0,1674,15.0,14.5,97,12.52,110,3.6,303.2,340.5,305.5
836.4,1679,15.0,14.4,96,12.43,109,3.6,303.2,340.3,305.5
835.9,1684,14.9,14.3,96,12.33,108,3.5,303.2,340.0,305.5
835.4,1689,15.0,14.1,95,12.24,107,3.5,303.3,339.9,305.5
835.0,1694,15.0,14.1,94,12.20,105,3.4,303.4,339.9,305.6
834.5,1698,15.1,14.1,94,12.20,104,3.3,303.5,340.0,305.7
834.1,1703,15.1,14.1,94,12.18,103,3.2,303.6,340.0,305.8
833.6,1708,15.1,14.0,93,12.15,101,3.2,303.6,339.9,305.8
833.1,1712,15.1,13.9,93,12.11,100,3.1,303.7,339.9,305.9
832.7,1717,15.1,13.9,92,12.04,98,3.0,303.7,339.8,305.9
832.2,1722,15.1,13.8,92,11.97,97,2.9,303.8,339.6,306.0
831.7,1727,15.1,13.6,91,11.89,95,2.8,303.8,339.4,306.0
831.2,1732,15.1,13.5,90,11.78,93,2.7,303.9,339.2,306.0
830.8,1737,15.1,13.3,89,11.64,91,2.6,304.0,338.9,306.1
830.3,1742,15.2,13.2,87,11.55,89,2.5,304.1,338.8,306.2
829.8,1747,15.3,13.1,87,11.52,88,2.4,304.3,338.8,306.4
829.3,1752,15.3,13.1,87,11.51,85,2.3,304.3,338.9,306.4
828.8,1757,15.3,13.1,87,11.48,83,2.2,304.3,338.8,306.4
828.3,1762,15.2,13.0,86,11.43,81,2.1,304.3,338.7,306.4
827.8,1767,15.2,12.9,86,11.38,79,2.0,304.4,338.6,306.5
827.3,1773,15.2,12.9,86,11.35,76,1.9,304.4,338.5,306.5
