PRES,HGHT,TEMP,DWPT,RELH,MIXR,DRCT,SPED,THTA,THTE,THTV
1006.3,31,25.3,19.5,70,14.29,43,6.7,297.9,339.6,300.5
1006.1,32,25.3,19.9,72,14.66,40,4.1,297.9,340.6,300.5
1005.5,37,25.1,19.7,72,14.55,39,3.4,297.8,340.2,300.4
1004.6,46,24.9,19.5,72,14.36,39,3.4,297.6,339.4,300.2
1004.1,50,24.7,19.3,72,14.15,40,3.7,297.5,338.6,300.0
1003.4,56,24.5,19.1,72,13.96,41,4.0,297.3,337.9,299.8
1003.0,60,24.3,18.8,72,13.78,42,4.3,297.2,337.3,299.7
1002.4,65,24.2,18.7,71,13.67,43,4.5,297.1,336.9,299.6
1001.8,70,24.1,18.6,71,13.62,43,4.7,297.1,336.7,299.5
1001.3,75,24.1,18.6,72,13.62,44,5.0,297.1,336.7,299.6
1000.7,80,24.1,18.5,71,13.55,45,5.1,297.2,336.6,299.6
1000.1,85,24.0,18.3,71,13.39,45,5.3,297.1,336.1,299.5
1000.0,86,24.0,18.3,71,13.37,46,5.5,297.1,336.0,299.5
999.5,90,23.9,18.2,70,13.31,46,5.5,297.1,335.8,299.5
998.8,96,23.9,18.3,71,13.33,47,5.6,297.1,335.9,299.5
998.2,102,23.8,18.3,71,13.34,47,5.7,297.1,335.9,299.5
997.5,107,23.8,18.3,71,13.35,48,5.9,297.1,336.0,299.5
996.9,113,23.7,18.2,71,13.34,48,5.9,297.1,335.9,299.5
996.2,119,23.7,18.2,71,13.33,48,6.0,297.1,335.9,299.5
995.5,125,23.6,18.2,72,13.32,48,6.1,297.1,335.9,299.5
994.8,131,23.5,18.2,72,13.31,49,6.1,297.1,335.8,299.5
994.1,137,23.5,18.2,72,13.31,49,6.1,297.1,335.8,299.5
993.5,143,23.4,18.1,72,13.30,49,6.1,297.1,335.8,299.5
992.9,148,23.4,18.1,72,13.31,49,6.1,297.1,335.8,299.5
992.3,153,23.3,18.2,73,13.34,49,6.1,297.1,335.9,299.5
991.7,159,23.3,18.2,73,13.34,48,6.1,297.1,335.9,299.5
991.1,164,23.2,18.1,73,13.33,48,6.0,297.1,335.9,299.5
990.6,169,23.2,18.1,73,13.31,48,6.0,297.1,335.8,299.5
990.0,174,23.2,18.0,73,13.25,47,5.9,297.2,335.7,299.5
989.4,179,23.2,17.9,72,13.13,47,5.9,297.2,335.4,299.6
988.8,184,23.2,17.8,72,13.04,46,5.8,297.3,335.2,299.6
988.2,189,23.2,17.7,71,13.00,45,5.7,297.3,335.2,299.6
987.7,194,23.2,17.7,71,12.97,45,5.7,297.4,335.1,299.7
987.1,200,23.1,17.6,71,12.94,44,5.6,297.4,335.1,299.7
986.5,205,23.1,17.6,71,12.91,43,5.5,297.4,335.0,299.7
985.9,210,23.1,17.5,71,12.88,42,5.5,297.4,334.9,299.7
985.3,215,23.0,17.5,71,12.84,41,5.4,297.4,334.8,299.7
984.7,220,23.0,17.5,71,12.84,40,5.3,297.4,334.9,299.7
984.2,225,22.9,17.5,71,12.86,39,5.3,297.4,334.9,299.7
983.6,230,22.9,17.4,71,12.85,38,5.2,297.5,334.9,299.7
983.1,235,22.9,17.4,71,12.82,38,5.1,297.5,334.8,299.8
982.6,240,22.8,17.3,71,12.78,37,5.1,297.5,334.7,299.8
982.1,244,22.8,17.3,71,12.75,36,5.0,297.5,334.7,299.8
981.6,248,22.8,17.3,71,12.73,36,5.0,297.5,334.6,299.8
981.1,252,22.8,17.2,71,12.71,35,4.9,297.5,334.6,299.8
980.7,256,22.7,17.2,71,12.70,35,4.9,297.5,334.5,299.8
980.2,260,22.7,17.2,71,12.71,35,4.9,297.6,334.6,299.8
979.8,264,22.7,17.2,71,12.73,35,4.8,297.6,334.7,299.8
979.3,268,22.7,17.3,72,12.77,35,4.8,297.6,334.8,299.9
978.9,273,22.7,17.3,72,12.77,35,4.8,297.6,334.8,299.9
978.4,277,22.6,17.3,72,12.77,35,4.8,297.6,334.8,299.9
977.9,281,22.6,17.2,72,12.75,36,4.8,297.6,334.8,299.9
977.3,286,22.5,17.2,72,12.74,36,4.8,297.6,334.7,299.9
976.8,291,22.5,17.2,72,12.72,37,4.8,297.6,334.7,299.9
976.2,296,22.5,17.1,72,12.68,38,4.8,297.6,334.6,299.9
975.7,301,22.4,17.1,72,12.65,39,4.8,297.7,334.5,299.9
975.1,306,22.4,17.0,72,12.63,39,4.9,297.7,334.5,299.9
974.6,311,22.3,17.0,72,12.62,40,4.9,297.7,334.5,299.9
974.0,316,22.3,17.0,72,12.62,41,4.9,297.7,334.5,299.9
973.4,321,22.3,17.1,72,12.66,42,5.0,297.7,334.6,300.0
972.9,326,22.2,17.1,73,12.74,43,5.0,297.7,334.9,300.0
972.3,331,22.2,17.2,73,12.81,44,5.1,297.7,335.1,300.0
971.8,336,22.1,17.2,74,12.83,45,5.1,297.7,335.1,300.0
971.2,341,22.1,17.2,74,12.82,45,5.1,297.7,335.1,300.0
970.6,346,22.0,17.2,74,12.84,46,5.2,297.7,335.1,300.0
970.0,352,22.0,17.3,75,12.91,47,5.2,297.7,335.3,300.0
969.4,357,21.9,17.3,75,12.94,48,5.2,297.7,335.4,300.0
968.8,363,21.9,17.3,75,12.92,48,5.3,297.7,335.4,300.0
968.1,368,21.8,17.2,75,12.88,49,5.3,297.7,335.3,300.0
967.5,374,21.8,17.2,75,12.86,49,5.2,297.7,335.2,300.0
966.9,380,21.7,17.2,75,12.86,49,5.2,297.7,335.2,300.0
966.3,385,21.7,17.2,76,12.86,50,5.2,297.7,335.2,300.0
965.7,390,21.6,17.1,76,12.84,50,5.1,297.7,335.2,300.0
965.1,396,21.6,17.1,76,12.81,50,5.1,297.7,335.1,300.0
964.5,401,21.6,17.1,76,12.80,51,5.0,297.8,335.1,300.1
963.9,407,21.5,17.1,76,12.81,51,4.9,297.8,335.2,300.1
963.2,413,21.5,17.0,76,12.76,51,4.8,297.8,335.1,300.1
962.6,418,21.5,16.9,75,12.66,51,4.7,297.9,334.8,300.1
962.0,424,21.5,16.7,74,12.56,51,4.6,297.9,334.6,300.2
961.4,429,21.5,16.7,74,12.51,51,4.4,298.0,334.5,300.2
960.8,434,21.5,16.7,74,12.55,50,4.3,298.0,334.6,300.2
960.2,440,21.4,16.8,75,12.61,50,4.1,298.0,334.8,300.2
959.7,445,21.3,16.7,75,12.59,50,4.0,298.0,334.7,300.2
959.1,450,21.3,16.6,75,12.50,50,3.8,298.0,334.5,300.2
958.6,454,21.3,16.5,74,12.41,49,3.7,298.0,334.3,300.2
958.1,459,21.3,16.4,74,12.30,49,3.5,298.0,334.0,300.2
957.6,464,21.3,16.2,72,12.15,48,3.4,298.1,333.7,300.3
957.1,468,21.4,16.1,72,12.07,47,3.2,298.2,333.6,300.4
956.6,473,21.4,16.1,72,12.08,47,3.1,298.3,333.6,300.5
956.1,477,21.4,16.1,72,12.10,46,2.9,298.3,333.7,300.5
955.6,482,21.3,16.1,72,12.10,46,2.8,298.3,333.8,300.5
955.1,486,21.3,16.1,72,12.10,45,2.7,298.4,333.8,300.5
954.6,490,21.3,16.0,72,12.10,44,2.6,298.4,333.8,300.5
954.1,495,21.2,16.0,72,12.09,44,2.5,298.4,333.8,300.5
953.6,500,21.2,16.0,72,12.09,43,2.4,298.4,333.8,300.5
953.1,504,21.2,16.0,72,12.09,43,2.3,298.4,333.8,300.5
952.6,509,21.1,16.0,73,12.09,42,2.3,298.4,333.8,300.5
952.1,514,21.1,15.9,72,12.04,42,2.2,298.4,333.6,300.5
951.5,519,21.0,15.9,72,12.00,42,2.2,298.4,333.5,300.5
950.9,524,21.0,15.8,72,11.94,42,2.1,298.4,333.4,300.6
950.4,529,21.0,15.7,72,11.88,42,2.1,298.4,333.2,300.6
949.8,535,21.0,15.6,71,11.79,42,2.1,298.5,333.0,300.6
949.2,540,21.0,15.5,71,11.73,42,2.1,298.5,332.9,300.6
948.7,545,20.9,15.5,71,11.76,43,2.1,298.5,333.0,300.6
948.1,550,20.9,15.6,72,11.82,43,2.1,298.5,333.2,300.7
947.6,555,20.8,15.6,72,11.84,43,2.1,298.5,333.2,300.6
947.0,560,20.8,15.6,72,11.83,44,2.1,298.5,333.2,300.6
946.5,565,20.7,15.5,72,11.81,44,2.1,298.5,333.1,300.6
946.0,570,20.7,15.5,72,11.79,45,2.1,298.5,333.1,300.6
945.4,574,20.6,15.5,72,11.76,45,2.2,298.5,333.0,300.6
944.9,579,20.6,15.4,72,11.73,45,2.2,298.5,332.9,300.6
944.3,585,20.6,15.4,72,11.71,46,2.2,298.6,332.9,300.7
943.8,590,20.5,15.3,72,11.69,46,2.2,298.6,332.9,300.7
943.2,595,20.5,15.3,72,11.70,46,2.2,298.6,332.9,300.7
942.6,601,20.5,15.4,73,11.72,45,2.2,298.6,333.0,300.7
941.9,607,20.4,15.4,73,11.76,45,2.2,298.6,333.1,300.7
941.3,612,20.3,15.4,73,11.77,45,2.2,298.6,333.1,300.7
940.7,618,20.3,15.4,73,11.76,44,2.2,298.6,333.1,300.7
940.1,624,20.2,15.3,73,11.72,44,2.2,298.6,333.0,300.7
939.5,629,20.2,15.2,73,11.64,43,2.2,298.6,332.8,300.7
938.9,635,20.2,15.1,72,11.55,42,2.2,298.7,332.5,300.7
938.3,640,20.2,14.9,72,11.46,41,2.2,298.7,332.3,300.7
937.8,645,20.1,14.9,72,11.43,40,2.2,298.7,332.2,300.8
937.3,650,20.1,14.9,72,11.40,38,2.1,298.7,332.2,300.8
936.7,654,20.1,14.8,72,11.39,37,2.1,298.7,332.2,300.8
936.2,659,20.0,14.8,72,11.41,36,2.1,298.7,332.2,300.8
935.7,664,20.0,14.9,72,11.44,34,2.1,298.7,332.3,300.8
935.3,668,19.9,14.9,73,11.46,33,2.0,298.7,332.3,300.8
934.8,673,19.9,14.9,73,11.48,31,2.0,298.7,332.4,300.8
934.3,677,19.8,14.9,73,11.49,30,1.9,298.7,332.4,300.8
933.8,682,19.8,14.9,73,11.47,28,1.9,298.7,332.4,300.8
933.3,686,19.8,14.8,73,11.41,27,1.9,298.7,332.2,300.8
932.7,691,19.7,14.6,72,11.30,25,1.8,298.8,331.9,300.8
932.2,696,19.7,14.5,72,11.20,24,1.8,298.8,331.7,300.8
931.6,702,19.7,14.4,72,11.16,22,1.7,298.8,331.6,300.8
931.0,707,19.7,14.4,72,11.17,21,1.7,298.8,331.7,300.8
930.5,712,19.6,14.5,72,11.19,19,1.6,298.8,331.7,300.8
929.9,718,19.6,14.4,72,11.17,18,1.6,298.9,331.7,300.9
929.3,723,19.5,14.3,72,11.12,17,1.5,298.9,331.6,300.9
928.8,728,19.5,14.3,72,11.06,16,1.5,298.9,331.4,300.9
928.2,733,19.5,14.2,71,11.02,15,1.4,298.9,331.3,300.9
927.7,738,19.4,14.1,71,10.98,14,1.4,298.9,331.2,300.9
927.2,742,19.4,14.1,71,10.95,13,1.3,298.9,331.1,300.9
926.8,747,19.4,14.0,71,10.93,12,1.2,298.9,331.1,300.9
926.3,751,19.3,14.0,71,10.91,11,1.2,298.9,331.0,300.9
925.8,756,19.3,14.0,71,10.88,10,1.1,298.9,330.9,300.9
925.3,761,19.2,13.9,71,10.88,9,1.0,298.9,330.9,300.9
925.0,763,19.2,14.0,72,10.90,9,1.0,299.0,331.0,300.9
924.8,765,19.2,14.0,72,10.91,8,0.9,299.0,331.0,300.9
924.2,770,19.2,14.0,72,10.97,6,0.9,299.0,331.2,301.0
923.7,775,19.1,14.1,73,11.01,5,0.8,299.0,331.4,301.0
923.1,781,19.1,14.1,73,11.03,3,0.7,299.0,331.4,301.0
922.6,786,19.0,14.1,73,11.04,1,0.7,299.0,331.4,301.0
922.1,791,19.0,14.1,73,11.03,358,0.6,299.0,331.4,301.0
921.6,795,19.0,14.1,73,11.02,355,0.6,299.0,331.4,301.0
921.1,800,19.0,14.1,73,11.02,351,0.5,299.0,331.4,301.0
920.6,804,18.9,14.1,74,11.03,347,0.5,299.0,331.5,301.0
920.2,808,18.8,14.1,74,11.05,343,0.5,299.0,331.5,301.0
919.7,812,18.8,14.1,74,11.06,338,0.4,299.0,331.5,301.0
919.3,816,18.8,14.1,74,11.05,334,0.4,299.1,331.5,301.0
918.9,820,18.8,14.1,74,11.05,330,0.4,299.0,331.6,301.0
918.5,824,18.7,14.1,74,11.06,327,0.4,299.0,331.5,301.0
918.0,828,18.7,14.1,75,11.05,325,0.5,299.0,331.5,301.0
917.6,832,18.6,14.0,75,11.03,323,0.5,299.0,331.5,301.0
917.2,836,18.6,14.0,75,11.03,322,0.5,299.1,331.5,301.0
916.8,840,18.6,14.0,75,11.03,322,0.5,299.1,331.5,301.1
916.3,844,18.6,14.0,75,11.03,323,0.6,299.1,331.6,301.1
915.9,848,18.6,14.0,75,11.03,323,0.6,299.1,331.6,301.1
915.4,853,18.6,14.0,75,11.05,324,0.6,299.2,331.7,301.1
914.9,857,18.5,14.0,75,11.07,326,0.6,299.2,331.7,301.2
914.4,862,18.5,14.1,75,11.09,327,0.7,299.2,331.8,301.2
913.9,867,18.4,14.0,76,11.09,329,0.7,299.2,331.8,301.2
913.3,873,18.4,14.0,76,11.09,330,0.7,299.2,331.8,301.2
912.8,878,18.4,14.0,76,11.08,332,0.8,299.2,331.8,301.2
912.2,883,18.3,14.0,76,11.10,333,0.8,299.2,331.9,301.2
911.7,888,18.3,14.1,77,11.15,334,0.8,299.2,332.0,301.2
911.1,893,18.2,14.2,77,11.23,335,0.8,299.2,332.3,301.3
910.6,898,18.2,14.3,78,11.30,335,0.8,299.2,332.5,301.3
910.1,903,18.2,14.3,78,11.34,335,0.8,299.2,332.6,301.3
909.5,908,18.1,14.3,79,11.37,335,0.8,299.3,332.7,301.3
909.0,913,18.1,14.4,79,11.42,334,0.8,299.3,332.9,301.3
908.5,918,18.0,14.4,79,11.44,333,0.8,299.3,332.9,301.3
908.0,922,18.0,14.4,79,11.42,332,0.8,299.3,332.9,301.3
907.5,927,18.0,14.3,79,11.37,329,0.8,299.3,332.8,301.3
907.0,932,17.9,14.3,79,11.35,326,0.8,299.3,332.7,301.3
906.5,937,17.9,14.3,80,11.36,323,0.8,299.3,332.7,301.3
906.0,941,17.8,14.3,80,11.38,319,0.8,299.3,332.8,301.3
905.6,946,17.8,14.3,80,11.39,314,0.9,299.3,332.8,301.3
905.1,950,17.7,14.3,80,11.38,310,0.9,299.3,332.7,301.3
904.6,955,17.7,14.3,80,11.37,305,0.9,299.3,332.7,301.3
904.1,959,17.6,14.2,80,11.35,301,1.0,299.3,332.7,301.3
903.6,964,17.6,14.2,80,11.33,297,1.1,299.3,332.6,301.3
903.2,968,17.6,14.2,80,11.31,293,1.2,299.3,332.5,301.3
902.7,973,17.5,14.2,81,11.33,291,1.3,299.3,332.6,301.3
902.3,977,17.5,14.2,81,11.35,288,1.4,299.3,332.7,301.3
901.8,981,17.4,14.2,81,11.34,286,1.5,299.3,332.7,301.3
901.3,986,17.4,14.1,81,11.32,284,1.7,299.3,332.6,301.4
900.9,990,17.4,14.1,81,11.29,283,1.8,299.3,332.6,301.4
900.5,994,17.4,14.1,81,11.27,282,2.0,299.4,332.5,301.4
900.0,998,17.4,14.0,81,11.25,281,2.1,299.4,332.5,301.4
899.6,1003,17.3,14.1,81,11.28,280,2.2,299.4,332.6,301.4
899.1,1007,17.3,14.1,81,11.33,279,2.4,299.4,332.8,301.5
898.6,1012,17.3,14.1,81,11.33,278,2.5,299.5,332.8,301.5
898.1,1017,17.4,14.0,81,11.28,278,2.7,299.6,332.8,301.6
897.5,1022,17.4,13.9,80,11.21,277,2.8,299.7,332.7,301.7
896.9,1028,17.4,13.9,80,11.19,277,3.0,299.7,332.7,301.7
896.3,1034,17.3,13.9,80,11.18,276,3.1,299.7,332.6,301.7
895.7,1040,17.2,13.8,80,11.16,275,3.2,299.6,332.5,301.7
895.1,1046,17.2,13.8,80,11.12,275,3.3,299.6,332.4,301.6
894.4,1052,17.1,13.7,81,11.12,274,3.4,299.6,332.4,301.6
893.8,1057,17.0,13.7,81,11.11,273,3.5,299.6,332.4,301.6
893.2,1063,17.0,13.7,81,11.10,273,3.6,299.7,332.4,301.7
892.7,1069,17.0,13.7,81,11.08,272,3.7,299.7,332.3,301.7
892.1,1074,16.9,13.6,81,11.07,271,3.7,299.7,332.3,301.7
891.5,1080,16.9,13.7,81,11.09,270,3.8,299.7,332.4,301.7
891.0,1085,16.8,13.7,82,11.09,270,3.9,299.7,332.4,301.7
890.4,1090,16.8,13.6,82,11.09,269,3.9,299.7,332.4,301.7
889.9,1095,16.7,13.7,82,11.12,268,4.0,299.7,332.4,301.7
889.3,1101,16.7,13.7,83,11.15,267,4.0,299.7,332.6,301.7
888.8,1106,16.7,13.7,83,11.17,266,4.1,299.7,332.6,301.7
888.2,1111,16.6,13.7,83,11.17,266,4.1,299.8,332.7,301.8
887.7,1116,16.6,13.7,83,11.17,265,4.1,299.8,332.7,301.8
887.1,1122,16.6,13.7,83,11.17,264,4.2,299.8,332.7,301.8
886.6,1127,16.5,13.7,83,11.15,264,4.2,299.8,332.7,301.8
886.0,1132,16.5,13.7,83,11.16,263,4.2,299.8,332.7,301.8
885.5,1137,16.4,13.7,84,11.18,263,4.3,299.8,332.7,301.8
885.0,1143,16.4,13.7,84,11.20,262,4.3,299.8,332.8,301.8
884.4,1148,16.3,13.7,84,11.19,262,4.3,299.8,332.8,301.8
883.9,1153,16.3,13.7,84,11.18,261,4.4,299.8,332.8,301.8
883.3,1158,16.2,13.6,85,11.19,261,4.4,299.8,332.8,301.8
882.8,1164,16.2,13.7,85,11.20,261,4.5,299.8,332.8,301.8
882.2,1170,16.1,13.6,85,11.20,260,4.5,299.8,332.8,301.8
881.6,1175,16.0,13.6,85,11.16,260,4.5,299.8,332.7,301.8
881.0,1181,16.0,13.5,85,11.10,260,4.6,299.8,332.5,301.8
880.4,1187,16.0,13.4,85,11.06,260,4.6,299.8,332.4,301.8
879.8,1193,15.9,13.4,85,11.07,260,4.7,299.8,332.5,301.8
879.2,1198,15.8,13.5,86,11.10,259,4.7,299.8,332.6,301.8
878.6,1204,15.8,13.5,86,11.13,259,4.8,299.8,332.6,301.8
878.0,1210,15.7,13.5,87,11.14,259,4.8,299.8,332.7,301.8
877.5,1215,15.7,13.5,87,11.14,259,4.8,299.8,332.7,301.8
876.9,1221,15.6,13.5,87,11.17,259,4.9,299.8,332.7,301.8
876.3,1226,15.6,13.5,88,11.19,259,4.9,299.8,332.8,301.8
875.7,1232,15.5,13.5,88,11.19,259,5.0,299.8,332.8,301.8
875.1,1238,15.4,13.5,88,11.21,258,5.1,299.8,332.9,301.8
874.4,1245,15.4,13.5,89,11.22,258,5.1,299.8,332.9,301.8
873.8,1251,15.3,13.5,89,11.22,258,5.2,299.8,332.8,301.8
873.1,1258,15.2,13.5,90,11.22,258,5.2,299.8,332.8,301.8
872.4,1264,15.1,13.5,90,11.24,258,5.3,299.7,332.9,301.8
871.8,1270,15.1,13.5,90,11.23,258,5.4,299.7,332.8,301.8
871.2,1276,15.0,13.5,91,11.21,258,5.4,299.7,332.8,301.7
870.6,1282,15.0,13.4,91,11.19,258,5.5,299.7,332.7,301.8
870.0,1288,14.9,13.4,91,11.19,258,5.6,299.7,332.7,301.8
869.4,1294,14.9,13.4,91,11.17,258,5.6,299.7,332.7,301.8
868.8,1299,14.8,13.3,91,11.13,258,5.7,299.8,332.6,301.8
868.3,1305,14.8,13.3,91,11.09,258,5.8,299.8,332.5,301.8
867.7,1310,14.7,13.2,91,11.08,258,5.9,299.8,332.5,301.8
867.2,1315,14.7,13.2,91,11.08,258,6.0,299.8,332.5,301.8
866.7,1320,14.7,13.2,91,11.08,258,6.0,299.8,332.5,301.8
866.2,1325,14.6,13.2,91,11.08,259,6.1,299.8,332.5,301.8
865.6,1330,14.6,13.2,91,11.08,259,6.2,299.8,332.5,301.8
865.1,1335,14.5,13.1,91,11.04,259,6.3,299.8,332.4,301.8
864.6,1341,14.5,13.1,91,11.01,259,6.3,299.8,332.3,301.8
864.1,1346,14.4,13.1,92,11.05,259,6.4,299.8,332.4,301.8
863.5,1351,14.4,13.2,92,11.09,259,6.5,299.8,332.5,301.8
863.0,1356,14.3,13.2,93,11.10,260,6.5,299.8,332.6,301.8
862.5,1361,14.3,13.1,93,11.07,260,6.6,299.8,332.5,301.8
861.9,1367,14.3,13.0,92,11.00,260,6.6,299.9,332.3,301.9
861.4,1372,14.3,12.9,91,10.89,260,6.7,300.0,332.1,301.9
860.8,1378,14.3,12.7,90,10.81,261,6.7,300.0,331.9,302.0
860.2,1383,14.3,12.6,90,10.75,261,6.8,300.0,331.8,302.0
859.6,1389,14.2,12.5,89,10.67,261,6.8,300.1,331.6,302.0
859.1,1395,14.2,12.4,89,10.62,261,6.8,300.1,331.5,302.0
858.5,1401,14.2,12.4,89,10.63,262,6.8,300.1,331.5,302.0
857.9,1407,14.1,12.4,89,10.60,262,6.8,300.1,331.5,302.0
857.3,1412,14.1,12.3,89,10.55,262,6.8,300.2,331.3,302.1
856.7,1418,14.1,12.3,89,10.54,263,6.8,300.2,331.4,302.1
856.1,1424,14.0,12.3,89,10.55,263,6.8,300.2,331.4,302.1
855.6,1430,14.0,12.2,89,10.53,263,6.8,300.2,331.3,302.1
855.0,1435,13.9,12.1,89,10.43,264,6.8,300.2,331.1,302.1
854.4,1441,13.9,12.0,88,10.34,264,6.8,300.3,330.9,302.1
853.8,1447,13.9,11.9,88,10.29,264,6.7,300.3,330.8,302.2
853.2,1453,13.9,11.9,88,10.29,265,6.7,300.3,330.8,302.2
852.6,1459,13.8,11.9,88,10.33,265,6.7,300.3,330.9,302.2
852.0,1465,13.7,12.0,89,10.38,266,6.7,300.3,331.0,302.2
851.4,1470,13.7,12.0,90,10.44,266,6.7,300.3,331.2,302.2
850.8,1476,13.6,12.1,91,10.49,266,6.7,300.3,331.3,302.2
850.2,1482,13.5,12.1,91,10.50,267,6.7,300.3,331.3,302.2
850.0,1485,13.5,12.1,91,10.49,267,6.7,300.3,331.3,302.1
849.6,1488,13.4,12.1,91,10.47,267,6.7,300.3,331.2,302.1
849.0,1494,13.4,12.0,91,10.43,267,6.8,300.3,331.1,302.2
848.5,1500,13.4,11.9,91,10.37,268,6.8,300.3,331.0,302.2
847.9,1506,13.4,11.8,90,10.33,268,6.8,300.3,330.9,302.2
847.3,1512,13.3,11.8,90,10.29,268,6.9,300.3,330.8,302.2
846.6,1518,13.3,11.7,90,10.23,268,6.9,300.4,330.7,302.2
846.0,1524,13.2,11.6,89,10.17,268,7.0,300.4,330.5,302.2
845.4,1530,13.2,11.4,89,10.10,268,7.0,300.4,330.4,302.3
844.8,1536,13.2,11.3,88,10.04,268,7.1,300.5,330.2,302.3
844.2,1542,13.2,11.2,88,9.97,268,7.2,300.5,330.1,302.3
843.6,1548,13.2,11.2,88,9.94,268,7.2,300.6,330.1,302.4
843.1,1554,13.1,11.2,88,9.94,268,7.3,300.6,330.1,302.4
842.5,1559,13.1,11.0,87,9.86,268,7.4,300.6,329.9,302.4
842.0,1565,13.1,10.8,86,9.69,268,7.5,300.7,329.5,302.4
841.4,1570,13.1,10.6,85,9.61,268,7.6,300.7,329.3,302.5
840.9,1575,13.1,10.7,85,9.63,268,7.6,300.8,329.4,302.5
840.4,1581,13.0,10.7,86,9.64,268,7.7,300.8,329.4,302.5
839.9,1586,13.0,10.7,86,9.68,268,7.8,300.7,329.5,302.5
839.3,1591,12.9,10.9,87,9.78,268,7.9,300.7,329.8,302.5
838.8,1596,12.8,11.0,89,9.90,267,8.0,300.7,330.1,302.5
838.3,1601,12.7,11.1,90,9.95,267,8.0,300.7,330.2,302.5
837.8,1607,12.7,11.0,90,9.89,267,8.1,300.6,330.0,302.4
837.3,1612,12.6,10.9,89,9.83,267,8.2,300.6,329.8,302.4
836.7,1617,12.6,10.9,89,9.81,267,8.2,300.7,329.8,302.4
836.2,1623,12.5,10.8,89,9.80,267,8.3,300.7,329.7,302.4
835.6,1628,12.5,10.8,89,9.77,267,8.3,300.7,329.7,302.4
835.1,1634,12.4,10.7,89,9.75,267,8.4,300.7,329.6,302.4
834.5,1640,12.4,10.8,90,9.77,268,8.4,300.7,329.7,302.4
833.9,1646,12.3,10.8,91,9.83,268,8.4,300.6,329.8,302.4
833.3,1651,12.2,10.9,92,9.87,268,8.4,300.6,329.9,302.4
832.8,1657,12.1,10.9,92,9.89,268,8.5,300.6,329.9,302.4
832.2,1663,12.1,10.9,92,9.88,268,8.5,300.6,329.9,302.4
831.6,1668,12.0,10.9,93,9.89,268,8.5,300.6,329.9,302.4
831.1,1674,12.0,10.9,93,9.91,269,8.5,300.6,330.0,302.4
830.5,1680,11.9,10.9,93,9.91,269,8.5,300.6,330.0,302.4
830.0,1685,11.9,10.8,93,9.87,269,8.5,300.6,329.9,302.4
829.4,1691,11.8,10.7,93,9.81,269,8.5,300.6,329.7,302.4
828.8,1697,11.8,10.7,93,9.78,270,8.5,300.6,329.6,302.4
828.2,1703,11.7,10.6,93,9.76,270,8.5,300.7,329.6,302.4
827.6,1709,11.7,10.6,93,9.77,270,8.5,300.7,329.7,302.4
827.0,1715,11.6,10.6,93,9.76,270,8.5,300.7,329.7,302.4
826.4,1721,11.6,10.5,93,9.71,270,8.6,300.7,329.5,302.5
825.9,1727,11.6,10.5,93,9.67,271,8.6,300.7,329.4,302.5
825.3,1733,11.5,10.4,93,9.65,271,8.6,300.7,329.4,302.5
824.7,1739,11.5,10.4,93,9.62,271,8.6,300.8,329.3,302.5
824.1,1745,11.5,10.3,93,9.58,271,8.6,300.8,329.2,302.5
823.5,1752,11.4,10.3,93,9.59,271,8.6,300.8,329.3,302.5
822.8,1758,11.3,10.3,93,9.62,271,8.7,300.8,329.4,302.5
822.2,1764,11.3,10.4,94,9.66,271,8.7,300.8,329.5,302.5
821.6,1770,11.2,10.4,95,9.70,272,8.7,300.7,329.5,302.5
821.0,1777,11.1,10.4,96,9.72,272,8.8,300.7,329.6,302.5
820.4,1783,11.0,10.5,96,9.74,272,8.8,300.7,329.6,302.5
819.8,1789,11.0,10.5,97,9.75,272,8.9,300.7,329.7,302.5
819.1,1796,10.9,10.5,97,9.78,272,8.9,300.7,329.8,302.5
818.5,1802,10.8,10.5,98,9.80,272,9.0,300.7,329.8,302.5
817.9,1808,10.8,10.5,98,9.77,272,9.0,300.7,329.7,302.5
817.3,1815,10.7,10.4,98,9.71,272,9.1,300.7,329.5,302.5
816.6,1821,10.7,10.2,97,9.60,271,9.2,300.7,329.3,302.5
816.0,1827,10.7,10.0,96,9.48,271,9.3,300.8,328.9,302.5
815.4,1834,10.6,9.9,95,9.45,271,9.4,300.8,328.9,302.5
814.8,1839,10.6,10.1,97,9.56,271,9.5,300.8,329.2,302.6
814.3,1845,10.5,10.2,98,9.67,271,9.5,300.8,329.6,302.6
813.7,1851,10.5,10.3,99,9.70,271,9.6,300.8,329.7,302.6
813.2,1856,10.4,10.2,98,9.66,270,9.8,300.8,329.5,302.6
812.7,1861,10.4,10.0,98,9.56,270,9.9,300.9,329.3,302.6
812.2,1867,10.4,9.8,96,9.41,270,10.0,300.9,328.9,302.6
811.7,1872,10.3,9.6,95,9.27,270,10.1,300.9,328.5,302.6
811.2,1877,10.3,9.2,93,9.05,270,10.2,300.9,327.9,302.6
810.7,1883,10.3,8.9,91,8.89,270,10.3,301.0,327.5,302.6
810.1,1888,10.4,8.9,91,8.87,269,10.4,301.1,327.6,302.7
809.6,1894,10.4,9.0,91,8.92,269,10.6,301.1,327.7,302.8
809.0,1899,10.3,9.0,92,8.95,269,10.7,301.2,327.9,302.8
808.5,1905,10.3,9.0,92,8.95,269,10.8,301.2,327.9,302.8
807.9,1911,10.2,8.9,92,8.91,269,10.9,301.2,327.8,302.8
807.4,1916,10.2,8.9,91,8.87,268,11.0,301.2,327.7,302.8
