PRES,HGHT,TEMP,DWPT,RELH,MIXR,DRCT,SPED,THTA,THTE,THTV
1016.3,31,25.0,19.8,73,14.49,63,6.8,296.8,338.8,299.4
1015.7,36,24.9,19.6,73,14.30,69,4.8,296.7,338.2,299.2
1015.0,41,24.7,19.2,72,13.93,72,4.3,296.6,336.9,299.0
1014.4,47,24.5,18.8,71,13.60,73,4.4,296.4,335.8,298.8
1013.7,53,24.3,18.6,71,13.44,73,4.7,296.2,335.2,298.6
1013.0,59,24.1,18.6,71,13.42,73,5.0,296.2,335.0,298.5
1012.2,66,24.0,18.5,71,13.35,73,5.3,296.1,334.8,298.5
1011.6,71,23.9,18.4,71,13.26,73,5.6,296.1,334.5,298.5
1010.9,77,23.9,18.3,71,13.20,73,5.8,296.1,334.3,298.4
1010.2,83,23.8,18.2,71,13.16,72,6.0,296.1,334.2,298.4
1009.5,89,23.7,18.2,71,13.12,72,6.2,296.1,334.1,298.4
1008.9,95,23.7,18.2,71,13.11,72,6.4,296.1,334.0,298.4
1008.2,101,23.6,18.1,71,13.09,72,6.6,296.1,334.0,298.4
1007.5,106,23.6,18.1,71,13.05,72,6.8,296.1,333.9,298.4
1006.9,112,23.5,18.0,71,13.00,72,6.9,296.1,333.7,298.4
1006.3,117,23.5,17.9,71,12.96,72,7.1,296.1,333.6,298.4
1005.7,123,23.4,17.9,71,12.96,72,7.2,296.1,333.6,298.4
1005.1,128,23.4,17.9,71,12.97,72,7.3,296.1,333.7,298.4
1004.5,133,23.3,18.0,72,13.01,72,7.4,296.1,333.8,298.4
1003.9,138,23.3,18.0,72,13.05,72,7.5,296.1,333.9,298.4
1003.3,143,23.2,18.0,72,13.04,72,7.6,296.1,333.9,298.4
1002.7,148,23.2,18.0,72,13.02,73,7.7,296.1,333.8,298.4
1002.2,153,23.1,18.0,73,13.04,73,7.8,296.1,333.8,298.4
1001.6,158,23.1,18.0,73,13.08,73,7.9,296.1,333.9,298.4
1001.0,163,23.0,18.1,74,13.14,73,8.0,296.1,334.1,298.4
1000.4,169,23.0,18.1,74,13.18,73,8.0,296.1,334.2,298.4
1000.0,172,22.9,18.1,74,13.18,73,8.0,296.1,334.2,298.4
999.8,174,22.9,18.1,74,13.18,73,8.1,296.1,334.2,298.4
999.2,179,22.9,18.1,74,13.17,73,8.2,296.1,334.2,298.4
998.6,184,22.8,18.1,75,13.18,73,8.2,296.1,334.2,298.4
998.0,189,22.8,18.1,75,13.18,73,8.3,296.1,334.2,298.4
997.4,195,22.7,18.1,75,13.18,73,8.4,296.1,334.2,298.4
996.8,200,22.6,18.1,75,13.19,73,8.4,296.1,334.2,298.4
996.1,206,22.6,18.0,75,13.17,73,8.5,296.1,334.2,298.4
995.5,211,22.5,18.0,75,13.13,73,8.5,296.1,334.1,298.4
994.9,217,22.5,17.9,75,13.11,73,8.6,296.1,334.0,298.4
994.3,222,22.4,17.9,76,13.11,73,8.6,296.1,334.0,298.4
993.7,228,22.4,17.9,76,13.10,73,8.7,296.1,334.0,298.4
993.0,233,22.3,17.9,76,13.11,73,8.7,296.1,334.0,298.4
992.4,239,22.3,17.9,76,13.12,72,8.8,296.1,334.0,298.4
991.8,244,22.2,17.9,77,13.12,72,8.8,296.1,334.0,298.4
991.2,250,22.2,17.9,77,13.10,72,8.8,296.0,334.0,298.4
990.5,255,22.1,17.8,77,13.09,72,8.8,296.1,333.9,298.4
989.9,260,22.1,17.9,77,13.12,72,8.9,296.1,334.1,298.4
989.3,266,22.0,17.9,78,13.18,72,8.9,296.1,334.2,298.4
988.7,271,22.0,17.9,78,13.20,72,8.9,296.1,334.3,298.4
988.1,277,21.9,17.9,78,13.20,72,8.9,296.1,334.3,298.4
987.5,282,21.9,17.9,78,13.19,72,8.9,296.1,334.2,298.4
986.8,288,21.8,17.9,79,13.19,72,8.8,296.1,334.2,298.4
986.2,293,21.7,17.9,79,13.20,72,8.8,296.1,334.3,298.4
985.6,299,21.7,17.9,79,13.19,72,8.8,296.1,334.2,298.4
984.9,305,21.6,17.9,79,13.18,72,8.8,296.1,334.2,298.4
984.3,310,21.6,17.9,79,13.18,71,8.7,296.1,334.2,298.4
983.7,316,21.5,17.9,80,13.20,71,8.7,296.1,334.3,298.4
983.1,321,21.5,17.9,80,13.21,71,8.7,296.1,334.3,298.4
982.5,326,21.4,17.9,80,13.22,71,8.6,296.0,334.3,298.4
981.9,331,21.4,17.9,80,13.23,71,8.6,296.1,334.3,298.4
981.4,336,21.3,17.9,81,13.26,71,8.5,296.0,334.4,298.4
980.8,341,21.3,17.9,81,13.26,71,8.5,296.0,334.4,298.4
980.3,346,21.2,17.8,81,13.23,71,8.5,296.0,334.3,298.4
979.7,351,21.2,17.8,81,13.22,70,8.4,296.0,334.3,298.4
979.2,355,21.1,17.8,81,13.24,70,8.4,296.1,334.4,298.4
978.6,360,21.1,17.9,82,13.27,70,8.3,296.1,334.5,298.4
978.1,365,21.0,17.9,82,13.29,70,8.3,296.0,334.5,298.4
977.5,370,21.0,17.9,82,13.29,70,8.2,296.0,334.5,298.4
977.0,375,20.9,17.8,82,13.28,69,8.2,296.0,334.5,298.4
976.4,380,20.9,17.8,83,13.26,69,8.2,296.0,334.4,298.4
975.8,385,20.8,17.8,83,13.25,69,8.1,296.0,334.4,298.4
975.2,390,20.8,17.8,83,13.24,69,8.1,296.0,334.3,298.4
974.7,395,20.7,17.8,83,13.24,69,8.1,296.0,334.3,298.4
974.1,400,20.7,17.8,83,13.24,68,8.1,296.0,334.3,298.4
973.5,405,20.6,17.8,84,13.25,68,8.0,296.0,334.4,298.4
973.0,410,20.6,17.8,84,13.26,68,8.0,296.0,334.4,298.4
972.4,415,20.5,17.8,84,13.27,68,8.0,296.0,334.4,298.4
971.9,420,20.5,17.8,84,13.28,68,8.0,296.0,334.4,298.4
971.3,425,20.4,17.8,85,13.30,68,8.0,296.0,334.5,298.4
970.8,430,20.4,17.8,85,13.30,68,8.0,296.0,334.5,298.4
970.2,435,20.3,17.8,85,13.30,68,8.1,296.0,334.5,298.4
969.6,440,20.3,17.7,85,13.29,68,8.1,296.0,334.5,298.4
969.0,446,20.2,17.7,85,13.25,68,8.1,296.0,334.4,298.4
968.4,451,20.2,17.6,85,13.23,68,8.1,296.0,334.3,298.4
967.8,457,20.1,17.6,86,13.23,68,8.2,296.0,334.3,298.4
967.1,463,20.1,17.6,86,13.24,68,8.2,296.0,334.3,298.4
966.5,468,20.0,17.6,86,13.24,68,8.2,296.0,334.3,298.4
965.9,474,20.0,17.6,86,13.21,68,8.3,296.0,334.2,298.4
965.2,480,19.9,17.5,86,13.18,68,8.3,296.0,334.2,298.4
964.6,485,19.9,17.5,86,13.18,68,8.3,296.0,334.2,298.4
964.0,491,19.8,17.5,87,13.18,68,8.4,296.0,334.2,298.4
963.4,496,19.8,17.5,87,13.18,69,8.4,296.0,334.2,298.4
962.8,502,19.7,17.5,87,13.19,69,8.5,296.0,334.2,298.4
962.2,507,19.7,17.5,88,13.21,69,8.5,296.0,334.3,298.4
961.6,512,19.6,17.5,88,13.23,69,8.6,296.0,334.3,298.4
961.0,518,19.5,17.5,88,13.22,69,8.6,296.0,334.3,298.4
960.4,523,19.5,17.5,88,13.19,69,8.7,296.0,334.2,298.4
959.8,529,19.4,17.5,88,13.19,69,8.7,296.0,334.2,298.4
959.2,534,19.4,17.5,89,13.19,69,8.7,296.0,334.2,298.4
958.6,539,19.3,17.4,89,13.19,69,8.8,296.0,334.2,298.4
958.0,545,19.3,17.5,89,13.21,69,8.8,296.0,334.2,298.4
957.4,550,19.2,17.5,90,13.23,69,8.8,296.0,334.3,298.4
956.8,555,19.2,17.5,90,13.26,69,8.9,296.1,334.4,298.4
956.2,561,19.1,17.5,90,13.29,69,8.9,296.1,334.5,298.4
955.6,566,19.1,17.5,91,13.30,69,8.9,296.1,334.5,298.4
955.0,572,19.0,17.5,91,13.32,69,8.9,296.0,334.6,298.4
954.4,577,19.0,17.5,91,13.31,69,8.9,296.0,334.5,298.4
953.8,583,18.9,17.5,91,13.28,69,8.9,296.0,334.5,298.4
953.2,588,18.9,17.4,91,13.24,68,9.0,296.0,334.3,298.4
952.5,594,18.8,17.4,92,13.24,68,9.0,296.0,334.4,298.4
951.9,599,18.8,17.4,92,13.28,68,9.0,296.1,334.5,298.4
951.3,605,18.7,17.5,92,13.31,68,9.0,296.0,334.5,298.4
950.8,610,18.6,17.4,93,13.30,68,9.0,296.0,334.5,298.4
950.2,615,18.6,17.4,93,13.28,68,9.0,296.0,334.4,298.4
949.6,621,18.5,17.4,93,13.27,68,9.0,296.0,334.4,298.4
949.0,626,18.5,17.4,93,13.27,68,9.0,296.0,334.4,298.4
948.4,631,18.5,17.4,93,13.27,69,9.0,296.0,334.4,298.4
947.9,636,18.4,17.4,94,13.28,69,9.0,296.0,334.5,298.4
947.3,641,18.4,17.4,94,13.29,69,9.0,296.0,334.5,298.4
946.7,646,18.3,17.4,94,13.31,69,9.0,296.0,334.5,298.4
946.2,652,18.3,17.4,95,13.30,69,9.0,296.0,334.5,298.4
945.6,657,18.2,17.3,95,13.27,69,9.0,296.0,334.4,298.4
945.0,662,18.2,17.3,95,13.23,69,9.0,296.0,334.3,298.4
944.4,668,18.1,17.2,95,13.21,69,8.9,296.0,334.2,298.4
943.8,673,18.1,17.2,95,13.18,70,8.9,296.1,334.2,298.4
943.2,678,18.0,17.2,95,13.18,70,8.9,296.1,334.2,298.4
942.6,684,18.0,17.2,95,13.18,70,8.9,296.1,334.2,298.4
942.1,689,17.9,17.1,95,13.16,70,8.9,296.1,334.1,298.4
941.5,694,17.9,17.1,95,13.15,70,8.9,296.1,334.1,298.4
940.9,700,17.8,17.1,96,13.15,71,8.9,296.1,334.1,298.4
940.3,705,17.8,17.1,96,13.19,71,8.9,296.1,334.2,298.4
939.8,710,17.7,17.2,97,13.23,71,8.9,296.1,334.3,298.4
939.2,715,17.7,17.2,97,13.22,71,8.9,296.1,334.3,298.4
938.6,720,17.6,17.1,97,13.18,71,8.9,296.1,334.2,298.4
938.1,725,17.6,17.0,97,13.14,72,8.9,296.1,334.1,298.4
937.6,730,17.5,17.0,97,13.10,72,8.9,296.1,334.0,298.4
937.1,734,17.5,16.9,96,13.05,72,8.9,296.1,333.8,298.4
936.6,739,17.5,16.8,96,12.99,72,8.9,296.1,333.7,298.4
936.2,743,17.4,16.8,96,12.96,72,8.9,296.1,333.6,298.4
935.7,747,17.4,16.8,96,12.97,72,8.8,296.1,333.6,298.4
935.2,752,17.4,16.8,97,12.98,72,8.8,296.1,333.7,298.4
934.7,756,17.3,16.7,96,12.90,72,8.8,296.1,333.5,298.4
934.3,760,17.3,16.4,95,12.69,72,8.8,296.1,332.9,298.4
933.8,765,17.3,16.0,92,12.33,72,8.8,296.2,331.9,298.4
933.3,769,17.3,15.6,90,12.02,72,8.8,296.3,331.1,298.4
932.8,773,17.3,15.7,90,12.08,72,8.8,296.3,331.3,298.5
932.4,778,17.3,16.0,92,12.37,72,8.7,296.3,332.1,298.5
931.9,782,17.2,16.3,95,12.63,72,8.7,296.3,332.8,298.5
931.5,786,17.1,16.4,96,12.72,72,8.7,296.2,333.1,298.5
931.0,790,17.1,16.5,96,12.76,71,8.7,296.2,333.2,298.5
930.6,794,17.0,16.5,97,12.83,71,8.7,296.2,333.3,298.5
930.1,799,17.0,16.6,97,12.84,71,8.7,296.2,333.4,298.5
929.6,803,16.9,16.6,98,12.85,71,8.7,296.2,333.4,298.5
929.1,807,16.9,16.5,97,12.77,71,8.6,296.2,333.2,298.5
928.7,812,16.8,16.2,96,12.57,71,8.6,296.2,332.6,298.4
928.2,816,16.8,16.0,95,12.39,70,8.6,296.2,332.1,298.4
927.6,821,16.8,15.9,94,12.31,70,8.6,296.3,332.0,298.5
927.1,826,16.8,15.9,94,12.34,70,8.6,296.3,332.1,298.5
926.6,831,16.8,15.9,95,12.36,70,8.6,296.3,332.1,298.5
926.1,835,16.7,15.8,95,12.32,70,8.6,296.3,332.0,298.5
925.6,840,16.7,15.8,94,12.25,70,8.6,296.3,331.8,298.5
925.1,845,16.7,15.7,94,12.20,70,8.6,296.3,331.7,298.5
925.0,846,16.7,15.7,94,12.20,70,8.6,296.3,331.7,298.5
924.6,850,16.6,15.6,94,12.15,70,8.6,296.4,331.6,298.5
924.0,855,16.6,15.6,94,12.15,70,8.6,296.4,331.6,298.5
923.5,859,16.6,15.5,94,12.09,69,8.6,296.4,331.4,298.5
923.0,864,16.5,15.3,92,11.89,69,8.6,296.4,330.9,298.5
922.4,869,16.5,14.9,90,11.65,69,8.6,296.4,330.3,298.5
921.9,874,16.5,14.7,89,11.51,69,8.6,296.5,329.9,298.5
921.3,879,16.5,14.7,89,11.50,69,8.6,296.5,329.9,298.6
920.8,884,16.5,14.8,90,11.54,69,8.6,296.5,330.1,298.6
920.3,889,16.4,14.8,90,11.57,69,8.6,296.5,330.1,298.6
919.7,894,16.4,14.8,90,11.57,69,8.6,296.6,330.2,298.6
919.2,900,16.4,14.7,90,11.55,69,8.6,296.6,330.1,298.6
918.6,905,16.3,14.7,90,11.51,69,8.6,296.6,330.1,298.7
918.0,910,16.3,14.6,90,11.46,69,8.6,296.6,329.9,298.7
917.4,916,16.3,14.5,89,11.40,69,8.6,296.6,329.8,298.7
916.8,921,16.2,14.4,89,11.32,69,8.6,296.6,329.6,298.7
916.2,927,16.2,14.3,88,11.22,69,8.6,296.6,329.3,298.6
915.6,933,16.1,14.1,88,11.10,69,8.6,296.7,329.0,298.7
915.0,938,16.1,14.0,87,11.04,69,8.6,296.7,328.8,298.7
914.4,943,16.1,13.9,87,11.01,69,8.6,296.7,328.8,298.7
913.9,949,16.1,13.9,87,11.01,69,8.6,296.8,328.8,298.7
913.3,954,16.0,13.9,87,11.02,69,8.6,296.8,328.9,298.7
912.8,959,16.0,13.9,88,11.03,69,8.6,296.8,328.9,298.7
912.2,964,15.9,14.0,88,11.06,69,8.6,296.8,329.0,298.8
911.6,970,15.9,14.0,88,11.06,69,8.6,296.8,329.0,298.8
911.1,975,15.9,13.9,88,11.03,69,8.6,296.8,328.9,298.8
910.5,980,15.8,13.8,88,10.95,69,8.6,296.8,328.7,298.8
909.9,986,15.8,13.5,86,10.75,70,8.6,296.8,328.2,298.8
909.4,991,15.8,13.0,83,10.40,70,8.6,296.9,327.3,298.8
908.8,996,15.9,12.4,80,10.03,70,8.6,297.1,326.4,298.9
908.3,1001,16.0,12.1,78,9.81,70,8.6,297.2,325.9,298.9
907.8,1005,16.0,12.0,77,9.75,70,8.6,297.3,325.8,299.0
907.3,1010,16.0,12.0,77,9.77,70,8.6,297.3,325.9,299.0
906.9,1014,15.9,12.1,78,9.83,71,8.6,297.3,326.0,299.0
906.4,1019,15.9,12.2,79,9.89,71,8.5,297.3,326.2,299.0
905.9,1023,15.8,12.2,79,9.93,71,8.5,297.2,326.3,299.0
905.5,1027,15.8,12.3,80,9.98,71,8.5,297.2,326.4,299.0
905.0,1032,15.7,12.4,81,10.04,72,8.5,297.2,326.6,299.0
904.5,1036,15.7,12.4,81,10.05,72,8.4,297.2,326.6,299.0
904.1,1041,15.6,12.3,81,10.01,72,8.4,297.2,326.5,299.0
903.6,1045,15.6,12.3,81,9.97,73,8.4,297.2,326.3,299.0
903.2,1049,15.5,12.3,81,9.98,73,8.4,297.2,326.3,299.0
902.7,1054,15.5,12.3,81,9.99,73,8.3,297.2,326.4,299.0
902.2,1058,15.4,12.2,81,9.95,74,8.3,297.2,326.2,298.9
901.8,1062,15.4,12.0,80,9.81,74,8.3,297.2,325.9,298.9
901.3,1067,15.4,11.8,79,9.66,74,8.2,297.2,325.5,298.9
900.9,1071,15.4,11.3,76,9.37,74,8.2,297.3,324.8,299.0
900.4,1075,15.5,10.6,73,8.97,75,8.2,297.4,323.8,299.0
899.9,1080,15.6,10.3,71,8.75,75,8.2,297.6,323.3,299.1
899.5,1084,15.6,10.3,71,8.80,75,8.2,297.7,323.5,299.2
899.0,1088,15.6,10.6,72,8.98,76,8.1,297.7,324.1,299.3
898.6,1092,15.6,10.7,73,9.05,76,8.1,297.7,324.3,299.3
898.1,1097,15.6,10.6,72,9.00,76,8.1,297.7,324.2,299.3
897.6,1101,15.5,10.5,72,8.93,77,8.1,297.7,324.0,299.3
897.1,1106,15.5,10.5,72,8.90,77,8.1,297.8,323.9,299.4
896.6,1111,15.5,10.4,72,8.89,77,8.1,297.8,323.9,299.4
896.1,1116,15.5,10.4,72,8.85,77,8.1,297.8,323.8,299.4
895.6,1121,15.4,10.3,71,8.79,78,8.1,297.8,323.7,299.4
895.1,1125,15.4,10.1,71,8.70,78,8.1,297.8,323.5,299.4
894.6,1130,15.4,9.9,70,8.58,78,8.1,297.9,323.2,299.4
894.1,1135,15.5,9.7,68,8.46,78,8.1,298.0,323.0,299.5
893.6,1140,15.5,9.6,68,8.43,79,8.1,298.1,322.9,299.6
893.1,1145,15.5,9.7,69,8.51,79,8.1,298.1,323.2,299.6
892.6,1149,15.4,9.9,70,8.63,79,8.2,298.1,323.5,299.6
892.1,1154,15.3,10.0,71,8.66,79,8.2,298.0,323.5,299.6
891.6,1159,15.2,9.9,70,8.61,79,8.2,298.0,323.3,299.5
891.1,1163,15.2,9.8,70,8.56,79,8.2,298.0,323.2,299.5
890.6,1168,15.2,9.7,70,8.51,80,8.2,298.0,323.1,299.5
890.0,1174,15.1,9.6,69,8.45,80,8.2,298.0,322.9,299.6
889.5,1179,15.1,9.4,69,8.36,80,8.2,298.1,322.8,299.6
888.9,1184,15.2,9.3,68,8.31,80,8.2,298.2,322.7,299.7
888.4,1190,15.2,9.3,68,8.29,80,8.2,298.2,322.7,299.7
887.8,1195,15.1,9.2,68,8.28,81,8.2,298.2,322.7,299.7
887.2,1201,15.1,9.2,68,8.25,81,8.2,298.2,322.6,299.7
886.6,1206,15.0,9.1,68,8.23,81,8.2,298.3,322.6,299.7
886.0,1212,15.0,9.1,68,8.23,81,8.2,298.3,322.6,299.7
885.4,1217,14.9,9.1,68,8.21,82,8.2,298.3,322.5,299.8
884.9,1223,14.9,9.0,68,8.16,82,8.2,298.3,322.4,299.7
884.3,1228,14.9,8.9,67,8.12,83,8.2,298.3,322.3,299.8
883.8,1233,14.8,8.9,68,8.12,83,8.2,298.3,322.3,299.8
883.2,1239,14.8,8.9,68,8.15,84,8.2,298.3,322.4,299.8
882.7,1244,14.7,8.9,68,8.15,84,8.2,298.3,322.4,299.8
882.2,1248,14.7,8.8,68,8.09,85,8.3,298.3,322.3,299.8
881.7,1253,14.7,8.6,67,7.99,85,8.3,298.4,322.0,299.8
881.2,1258,14.7,8.4,66,7.89,86,8.3,298.4,321.7,299.8
880.7,1263,14.7,8.4,66,7.87,86,8.3,298.4,321.8,299.9
880.2,1267,14.6,8.5,67,7.93,87,8.4,298.5,322.0,299.9
879.7,1272,14.6,8.6,67,8.01,87,8.4,298.5,322.2,299.9
879.3,1277,14.6,8.7,68,8.06,88,8.5,298.5,322.3,299.9
878.8,1281,14.5,8.7,68,8.05,88,8.5,298.5,322.3,300.0
878.3,1286,14.5,8.7,68,8.04,89,8.6,298.5,322.3,300.0
877.9,1290,14.5,8.7,68,8.05,89,8.7,298.5,322.4,300.0
877.4,1295,14.4,8.7,69,8.08,90,8.7,298.5,322.5,300.0
877.0,1299,14.4,8.8,69,8.13,90,8.8,298.5,322.6,300.0
876.5,1303,14.4,8.9,70,8.18,90,8.9,298.6,322.8,300.0
876.1,1308,14.3,9.0,70,8.23,91,9.0,298.6,322.9,300.0
875.6,1312,14.3,9.0,70,8.25,91,9.0,298.6,323.0,300.0
875.2,1316,14.3,9.0,71,8.26,91,9.1,298.6,323.0,300.1
874.7,1320,14.2,9.0,71,8.28,91,9.2,298.6,323.1,300.1
874.3,1325,14.2,9.1,71,8.32,91,9.2,298.6,323.2,300.1
873.9,1329,14.2,9.3,72,8.42,91,9.3,298.6,323.5,300.1
873.5,1333,14.1,9.5,74,8.54,91,9.3,298.6,323.8,300.1
873.0,1337,14.1,9.7,75,8.68,91,9.3,298.6,324.2,300.2
872.6,1341,14.1,10.0,77,8.87,91,9.3,298.6,324.8,300.2
872.2,1345,14.0,10.4,78,9.10,91,9.3,298.6,325.5,300.3
871.8,1349,14.0,10.7,80,9.29,91,9.3,298.7,326.0,300.3
871.3,1353,14.0,10.9,82,9.44,91,9.3,298.7,326.5,300.4
870.9,1358,14.0,11.0,82,9.52,91,9.3,298.7,326.8,300.4
870.4,1363,14.0,10.9,82,9.45,90,9.2,298.7,326.6,300.4
869.9,1367,14.0,10.5,79,9.18,90,9.1,298.8,325.8,300.4
869.4,1372,14.0,9.8,76,8.78,90,9.0,298.8,324.8,300.4
868.9,1377,14.0,9.2,73,8.45,90,8.9,298.9,324.0,300.5
868.4,1382,14.0,8.9,71,8.28,90,8.8,299.0,323.5,300.5
867.9,1387,14.1,8.8,70,8.19,90,8.7,299.1,323.3,300.5
867.4,1392,14.1,8.6,70,8.13,89,8.6,299.1,323.3,300.6
866.9,1397,14.1,8.5,69,8.07,89,8.4,299.2,323.1,300.7
866.3,1402,14.1,8.4,69,8.02,89,8.3,299.3,323.1,300.7
865.7,1408,14.1,8.4,69,8.01,89,8.1,299.3,323.1,300.7
865.2,1413,14.0,8.4,69,8.03,89,8.0,299.3,323.2,300.8
864.6,1419,14.0,8.3,69,7.99,89,7.8,299.3,323.1,300.8
864.0,1425,14.0,8.2,68,7.91,88,7.7,299.4,322.9,300.8
863.4,1431,13.9,8.0,68,7.84,88,7.5,299.4,322.7,300.8
862.8,1436,13.9,7.9,67,7.78,88,7.4,299.4,322.5,300.8
862.2,1442,13.9,7.8,67,7.71,88,7.2,299.5,322.4,300.8
861.7,1447,13.9,7.7,66,7.67,87,7.1,299.5,322.3,300.9
861.2,1452,13.9,7.7,66,7.67,87,6.9,299.5,322.4,300.9
860.7,1457,13.9,7.8,67,7.71,86,6.8,299.6,322.5,301.0
860.3,1461,13.8,7.8,67,7.74,86,6.7,299.6,322.6,301.0
859.8,1466,13.8,7.8,67,7.74,85,6.6,299.6,322.7,301.0
859.4,1470,13.8,7.8,67,7.74,85,6.5,299.6,322.7,301.0
859.0,1474,13.8,7.8,67,7.74,84,6.5,299.6,322.7,301.0
858.6,1478,13.7,7.7,67,7.72,83,6.4,299.6,322.6,301.0
858.1,1482,13.7,7.6,67,7.66,82,6.4,299.7,322.5,301.1
857.7,1487,13.7,7.3,65,7.50,82,6.3,299.7,322.1,301.1
857.2,1491,13.7,6.7,63,7.22,81,6.3,299.7,321.3,301.1
856.7,1496,13.7,6.0,60,6.88,80,6.3,299.8,320.4,301.1
856.3,1501,13.7,5.4,57,6.60,79,6.3,299.9,319.7,301.1
855.8,1505,13.7,5.1,56,6.45,78,6.3,299.9,319.3,301.1
855.4,1509,13.7,5.0,56,6.40,78,6.4,300.0,319.2,301.1
855.0,1513,13.7,4.9,55,6.36,77,6.4,300.0,319.1,301.1
854.6,1517,13.7,4.8,55,6.31,76,6.4,300.0,319.0,301.2
854.3,1520,13.7,4.7,54,6.26,76,6.5,300.0,318.9,301.2
853.9,1524,13.7,4.6,54,6.26,75,6.5,300.1,318.9,301.2
853.6,1527,13.7,4.7,55,6.29,75,6.6,300.1,319.0,301.2
853.2,1531,13.6,4.7,55,6.31,74,6.6,300.1,319.0,301.2
852.8,1535,13.6,4.8,55,6.32,74,6.7,300.1,319.1,301.2
852.4,1539,13.6,4.8,56,6.35,74,6.7,300.1,319.2,301.2
852.0,1543,13.5,4.9,56,6.38,73,6.8,300.1,319.3,301.2
851.6,1547,13.5,5.0,56,6.41,73,6.8,300.1,319.4,301.3
851.1,1552,13.4,5.1,57,6.47,73,6.9,300.1,319.5,301.3
850.6,1556,13.4,5.3,58,6.56,73,6.9,300.1,319.8,301.3
850.2,1561,13.3,5.4,59,6.65,73,7.0,300.1,320.0,301.3
850.0,1563,13.3,5.5,59,6.66,73,7.0,300.1,320.1,301.3
849.7,1566,13.3,5.5,59,6.69,73,7.0,300.1,320.2,301.3
849.2,1570,13.3,5.5,59,6.69,73,7.1,300.1,320.2,301.3
848.7,1575,13.2,5.5,59,6.67,73,7.1,300.1,320.1,301.3
848.3,1579,13.2,5.5,60,6.68,73,7.1,300.1,320.1,301.3
847.9,1584,13.1,5.5,60,6.69,74,7.2,300.1,320.2,301.3
847.4,1588,13.1,5.5,60,6.71,74,7.2,300.1,320.3,301.3
847.0,1592,13.1,5.7,61,6.80,74,7.3,300.1,320.5,301.4
846.6,1597,13.0,6.0,63,6.96,75,7.3,300.1,321.0,301.4
846.1,1601,13.0,6.7,65,7.27,75,7.4,300.1,321.9,301.5
845.6,1606,12.9,7.6,70,7.74,75,7.4,300.1,323.2,301.5
845.2,1610,12.9,8.6,75,8.30,76,7.4,300.1,324.8,301.6
844.7,1615,12.8,9.2,79,8.69,76,7.5,300.1,325.9,301.7
844.2,1620,12.8,9.5,80,8.84,77,7.5,300.1,326.3,301.7
843.7,1625,12.7,9.4,80,8.84,77,7.5,300.1,326.3,301.7
843.3,1630,12.7,9.3,80,8.77,78,7.6,300.1,326.2,301.7
842.8,1634,12.7,9.3,80,8.73,79,7.6,300.1,326.1,301.7
842.4,1638,12.7,9.2,80,8.72,79,7.6,300.2,326.1,301.7
841.9,1643,12.6,9.2,80,8.71,80,7.6,300.2,326.1,301.8
841.5,1647,12.6,9.2,80,8.70,81,7.6,300.2,326.1,301.8
841.0,1652,12.6,9.3,80,8.77,81,7.7,300.3,326.3,301.8
840.6,1656,12.6,9.5,81,8.89,82,7.7,300.3,326.7,301.9
840.1,1661,12.5,9.6,82,9.00,83,7.7,300.3,327.0,301.9
839.6,1666,12.5,9.7,83,9.03,83,7.6,300.3,327.1,301.9
839.1,1671,12.5,9.6,83,9.01,84,7.6,300.3,327.0,301.9
838.6,1676,12.4,9.6,83,8.96,85,7.6,300.3,326.9,301.9
838.1,1681,12.4,9.5,83,8.94,85,7.6,300.3,326.9,301.9
837.7,1685,12.4,9.5,83,8.94,86,7.6,300.3,326.9,301.9
837.2,1690,12.3,9.5,83,8.94,87,7.5,300.3,326.9,302.0
836.8,1694,12.3,9.5,83,8.93,87,7.5,300.3,326.9,302.0
836.4,1698,12.3,9.4,83,8.91,88,7.5,300.4,326.8,302.0
836.0,1702,12.3,9.4,83,8.88,89,7.4,300.4,326.8,302.0
835.6,1706,12.2,9.3,82,8.84,89,7.4,300.4,326.7,302.0
835.2,1710,12.2,9.3,82,8.82,90,7.3,300.4,326.7,302.0
834.8,1714,12.2,9.2,82,8.81,90,7.3,300.4,326.7,302.0
834.4,1718,12.2,9.2,82,8.82,91,7.3,300.5,326.7,302.1
834.0,1722,12.1,9.2,82,8.81,92,7.2,300.5,326.7,302.1
833.6,1727,12.1,9.2,82,8.79,92,7.2,300.5,326.6,302.1
833.2,1731,12.1,9.2,83,8.80,93,7.1,300.5,326.7,302.1
832.8,1735,12.0,9.2,83,8.81,93,7.1,300.5,326.7,302.1
832.4,1739,12.0,9.2,83,8.82,93,7.1,300.5,326.8,302.1
832.0,1742,12.0,9.2,83,8.83,94,7.1,300.5,326.8,302.1
831.6,1746,12.0,9.2,83,8.83,94,7.0,300.5,326.8,302.1
831.2,1750,11.9,9.2,83,8.83,94,7.0,300.6,326.8,302.2
830.8,1754,11.9,9.2,83,8.82,94,7.0,300.6,326.8,302.2
830.4,1758,11.9,9.2,83,8.81,94,7.0,300.6,326.8,302.2
830.0,1763,11.9,9.2,83,8.81,94,7.0,300.6,326.8,302.2
829.5,1767,11.8,9.2,84,8.81,94,7.0,300.6,326.9,302.2
829.1,1772,11.8,9.1,84,8.81,94,7.0,300.6,326.9,302.2
828.6,1777,11.8,9.1,84,8.80,94,7.0,300.7,326.9,302.3
828.1,1782,11.8,9.1,84,8.79,94,7.1,300.7,326.9,302.3
827.6,1787,11.8,9.1,84,8.80,94,7.1,300.7,327.0,302.3
827.1,1792,11.7,9.1,84,8.80,94,7.1,300.8,327.0,302.4
826.6,1797,11.7,9.1,84,8.78,94,7.2,300.8,327.0,302.4
826.1,1802,11.7,9.0,84,8.78,94,7.2,300.8,327.0,302.4
825.6,1807,11.6,9.0,84,8.78,93,7.2,300.8,327.0,302.4
825.1,1812,11.6,9.0,84,8.78,93,7.3,300.8,327.0,302.4
824.7,1817,11.6,9.0,84,8.78,93,7.3,300.8,327.0,302.4
824.2,1821,11.5,9.0,85,8.80,93,7.4,300.8,327.1,302.4
823.8,1826,11.5,9.1,85,8.83,92,7.4,300.8,327.1,302.4
