PRES,HGHT,TEMP,DWPT,RELH,MIXR,DRCT,SPED,THTA,THTE,THTV
1015.5,31,25.4,21.5,79,16.12,53,5.5,297.2,344.1,300.1
1014.7,38,25.6,21.6,79,16.26,65,5.1,297.5,344.8,300.4
1014.1,42,25.6,21.6,79,16.23,68,5.3,297.6,344.8,300.4
1013.6,47,25.6,21.5,78,16.18,69,5.6,297.6,344.7,300.5
1013.0,52,25.6,21.4,78,16.03,69,6.0,297.6,344.3,300.5
1012.3,59,25.5,21.2,77,15.82,69,6.4,297.6,343.7,300.5
1011.6,64,25.5,21.0,76,15.63,69,6.7,297.7,343.2,300.5
1011.1,69,25.5,20.9,76,15.57,69,7.1,297.7,343.0,300.4
1010.6,74,25.4,20.9,76,15.62,69,7.4,297.7,343.2,300.5
1010.0,78,25.4,21.1,77,15.76,69,7.7,297.7,343.6,300.5
1009.4,83,25.3,21.2,78,15.94,70,8.0,297.7,344.1,300.5
1008.9,88,25.3,21.3,78,15.97,70,8.3,297.7,344.2,300.5
1008.4,93,25.2,21.1,78,15.85,70,8.6,297.7,343.8,300.5
1007.8,97,25.2,21.0,77,15.71,70,8.8,297.7,343.4,300.5
1007.3,102,25.2,20.9,77,15.63,70,9.1,297.7,343.2,300.5
1006.8,107,25.1,20.9,77,15.62,70,9.3,297.7,343.2,300.5
1006.2,112,25.1,20.8,77,15.54,70,9.5,297.7,342.9,300.5
1005.6,117,25.0,20.7,77,15.43,70,9.6,297.7,342.6,300.5
1005.0,122,25.0,20.6,77,15.42,70,9.8,297.7,342.6,300.5
1004.3,128,24.9,20.7,77,15.46,70,10.0,297.7,342.7,300.5
1003.7,134,24.9,20.7,77,15.45,70,10.1,297.7,342.7,300.4
1003.0,139,24.8,20.6,78,15.44,70,10.2,297.7,342.7,300.5
1002.4,145,24.8,20.6,78,15.44,70,10.3,297.7,342.6,300.4
1001.7,151,24.7,20.6,78,15.45,70,10.4,297.7,342.7,300.4
1001.0,157,24.6,20.6,78,15.48,70,10.5,297.7,342.8,300.5
1000.4,163,24.6,20.7,79,15.53,70,10.6,297.7,342.9,300.5
1000.0,166,24.6,20.7,79,15.55,70,10.6,297.7,343.0,300.5
999.7,168,24.5,20.7,79,15.55,70,10.7,297.7,343.0,300.5
999.1,174,24.5,20.7,79,15.55,70,10.7,297.7,343.0,300.5
998.5,180,24.4,20.7,80,15.56,70,10.8,297.7,343.0,300.5
997.8,185,24.4,20.7,80,15.59,70,10.8,297.7,343.1,300.5
997.2,191,24.3,20.7,80,15.63,70,10.9,297.7,343.2,300.5
996.6,196,24.2,20.8,81,15.68,70,10.9,297.7,343.3,300.5
996.0,202,24.2,20.8,81,15.72,70,10.9,297.7,343.4,300.5
995.4,207,24.1,20.8,82,15.71,70,11.0,297.7,343.4,300.5
994.8,212,24.1,20.8,82,15.69,70,11.0,297.7,343.3,300.5
994.2,217,24.0,20.7,82,15.69,70,11.0,297.7,343.3,300.5
993.6,223,24.0,20.7,82,15.68,70,11.0,297.7,343.3,300.5
993.0,228,23.9,20.7,82,15.67,69,11.0,297.7,343.3,300.5
992.4,233,23.9,20.7,82,15.69,69,11.0,297.7,343.3,300.5
991.9,238,23.8,20.7,83,15.72,69,11.0,297.7,343.4,300.5
991.3,243,23.8,20.7,83,15.69,69,11.0,297.7,343.3,300.5
990.7,248,23.7,20.6,83,15.60,69,11.0,297.7,343.1,300.5
990.1,254,23.7,20.5,82,15.51,69,11.0,297.7,342.8,300.5
989.5,259,23.7,20.5,82,15.49,69,10.9,297.7,342.8,300.5
988.9,264,23.6,20.5,83,15.55,68,10.9,297.7,343.0,300.5
988.3,269,23.6,20.6,83,15.62,68,10.9,297.7,343.2,300.5
987.8,274,23.5,20.6,84,15.61,68,10.8,297.7,343.1,300.5
987.2,279,23.5,20.5,83,15.53,68,10.8,297.7,342.9,300.5
986.7,284,23.4,20.4,83,15.44,68,10.7,297.7,342.6,300.5
986.2,288,23.4,20.3,83,15.41,67,10.7,297.7,342.6,300.5
985.7,292,23.4,20.3,83,15.40,67,10.7,297.7,342.6,300.5
985.2,297,23.3,20.3,83,15.41,67,10.6,297.7,342.6,300.5
984.7,301,23.3,20.3,84,15.42,67,10.6,297.7,342.6,300.5
984.2,306,23.2,20.3,84,15.43,67,10.5,297.7,342.6,300.5
983.7,310,23.2,20.3,84,15.45,66,10.5,297.7,342.7,300.5
983.2,315,23.1,20.3,84,15.46,66,10.5,297.7,342.7,300.5
982.7,319,23.1,20.4,85,15.49,66,10.4,297.7,342.8,300.5
982.2,323,23.1,20.4,85,15.53,65,10.4,297.7,342.9,300.5
981.7,328,23.0,20.4,85,15.56,65,10.4,297.7,343.0,300.5
981.2,332,22.9,20.4,86,15.55,65,10.3,297.7,343.0,300.5
980.7,337,22.9,20.4,86,15.52,65,10.3,297.7,342.9,300.5
980.3,341,22.9,20.3,86,15.51,65,10.3,297.7,342.8,300.5
979.8,345,22.8,20.3,86,15.53,64,10.3,297.7,342.9,300.5
979.3,350,22.8,20.4,86,15.56,64,10.3,297.7,343.0,300.5
978.8,354,22.7,20.4,86,15.55,64,10.3,297.7,343.0,300.5
978.3,358,22.7,20.3,86,15.53,64,10.2,297.7,342.9,300.5
977.8,363,22.7,20.3,87,15.51,64,10.2,297.7,342.8,300.5
977.3,368,22.6,20.3,87,15.50,64,10.2,297.7,342.8,300.5
976.8,372,22.6,20.3,87,15.50,64,10.2,297.7,342.8,300.5
976.2,377,22.5,20.3,87,15.50,64,10.2,297.7,342.8,300.5
975.7,382,22.5,20.2,87,15.50,64,10.2,297.7,342.8,300.5
975.2,387,22.4,20.2,87,15.49,63,10.2,297.7,342.8,300.5
974.6,391,22.4,20.2,87,15.48,63,10.2,297.7,342.8,300.5
974.1,396,22.3,20.2,88,15.45,64,10.2,297.7,342.7,300.5
973.6,401,22.3,20.2,88,15.46,64,10.2,297.7,342.7,300.5
973.0,405,22.3,20.2,88,15.47,64,10.3,297.7,342.8,300.5
972.5,410,22.2,20.2,88,15.48,64,10.3,297.7,342.8,300.5
972.0,415,22.2,20.2,88,15.48,64,10.3,297.7,342.8,300.5
971.5,419,22.1,20.2,89,15.48,64,10.3,297.7,342.8,300.5
971.0,424,22.1,20.1,89,15.47,64,10.3,297.7,342.7,300.5
970.5,429,22.0,20.1,89,15.46,64,10.2,297.7,342.7,300.5
970.0,433,22.0,20.1,89,15.46,64,10.2,297.7,342.7,300.5
969.5,438,21.9,20.1,89,15.46,64,10.2,297.7,342.7,300.5
969.0,442,21.9,20.1,89,15.45,64,10.2,297.7,342.7,300.5
968.4,447,21.9,20.1,89,15.43,65,10.2,297.7,342.6,300.5
967.9,452,21.8,20.0,89,15.40,65,10.2,297.7,342.6,300.5
967.4,456,21.8,20.0,89,15.37,65,10.2,297.7,342.5,300.5
966.9,461,21.8,19.9,89,15.33,65,10.2,297.8,342.4,300.5
966.3,466,21.7,19.9,89,15.29,65,10.2,297.8,342.3,300.5
965.7,471,21.7,19.8,89,15.26,65,10.2,297.8,342.2,300.5
965.2,476,21.7,19.8,89,15.20,65,10.2,297.8,342.1,300.5
964.6,482,21.6,19.7,89,15.13,65,10.2,297.8,341.9,300.5
964.0,487,21.6,19.6,88,15.10,65,10.2,297.9,341.9,300.6
963.4,492,21.6,19.6,89,15.11,65,10.2,297.9,341.9,300.6
962.9,497,21.5,19.6,89,15.06,65,10.2,297.9,341.7,300.6
962.3,502,21.5,19.4,88,14.93,65,10.2,297.9,341.4,300.6
961.8,507,21.5,19.3,87,14.80,65,10.2,298.0,341.1,300.6
961.3,512,21.6,19.2,87,14.76,64,10.2,298.1,341.1,300.7
960.8,516,21.6,19.2,87,14.77,64,10.3,298.1,341.2,300.7
960.3,521,21.5,19.3,87,14.79,64,10.3,298.1,341.2,300.7
959.8,525,21.5,19.3,87,14.81,64,10.3,298.1,341.3,300.7
959.3,529,21.4,19.3,87,14.82,63,10.3,298.1,341.3,300.8
958.8,534,21.4,19.3,88,14.84,63,10.2,298.1,341.4,300.8
958.3,538,21.3,19.3,88,14.86,63,10.2,298.1,341.4,300.7
957.8,543,21.3,19.3,88,14.88,63,10.2,298.1,341.5,300.7
957.3,547,21.2,19.3,89,14.89,62,10.2,298.1,341.5,300.7
956.8,552,21.2,19.3,89,14.89,62,10.2,298.1,341.5,300.7
956.3,557,21.1,19.3,89,14.89,62,10.2,298.1,341.5,300.7
955.8,561,21.1,19.3,90,14.91,62,10.1,298.1,341.5,300.7
955.3,566,21.0,19.3,90,14.94,61,10.1,298.0,341.6,300.7
954.8,570,21.0,19.3,90,14.96,61,10.1,298.0,341.7,300.7
954.3,575,20.9,19.3,91,14.96,61,10.0,298.0,341.7,300.7
953.8,580,20.9,19.3,91,14.96,61,10.0,298.1,341.7,300.7
953.2,585,20.9,19.3,91,14.97,61,9.9,298.1,341.7,300.7
952.6,590,20.8,19.3,91,14.98,61,9.9,298.1,341.7,300.7
952.0,595,20.7,19.3,91,14.96,61,9.8,298.0,341.7,300.7
951.4,601,20.7,19.2,91,14.90,61,9.8,298.1,341.5,300.7
950.8,607,20.7,19.2,91,14.86,61,9.7,298.1,341.4,300.7
950.2,612,20.6,19.1,91,14.83,61,9.6,298.1,341.3,300.7
949.6,618,20.6,19.1,91,14.82,61,9.6,298.1,341.3,300.8
949.0,624,20.6,19.1,91,14.79,61,9.5,298.1,341.3,300.8
948.3,629,20.5,19.0,91,14.71,61,9.5,298.2,341.1,300.8
947.7,635,20.5,18.9,90,14.61,61,9.4,298.2,340.8,300.8
947.1,640,20.5,18.8,90,14.56,62,9.3,298.2,340.7,300.8
946.5,646,20.5,18.7,90,14.53,62,9.3,298.3,340.7,300.9
945.9,651,20.4,18.7,90,14.52,62,9.3,298.3,340.7,300.9
945.3,657,20.4,18.7,90,14.51,63,9.2,298.3,340.6,300.9
944.7,663,20.4,18.7,90,14.47,63,9.2,298.3,340.6,300.9
944.1,668,20.3,18.6,90,14.45,63,9.2,298.3,340.5,300.9
943.5,673,20.3,18.6,90,14.46,63,9.2,298.3,340.5,300.9
942.9,679,20.2,18.6,91,14.49,64,9.2,298.3,340.6,300.9
942.4,684,20.1,18.7,91,14.56,64,9.2,298.3,340.8,300.9
941.8,689,20.1,18.8,92,14.61,64,9.2,298.3,341.0,300.9
941.2,695,20.0,18.7,92,14.61,64,9.2,298.3,341.0,300.9
940.7,700,20.0,18.7,92,14.55,64,9.2,298.3,340.8,300.9
940.1,705,20.0,18.6,92,14.46,64,9.2,298.3,340.5,300.9
939.6,710,19.9,18.5,91,14.39,64,9.3,298.3,340.3,300.9
939.0,715,19.9,18.4,91,14.36,64,9.3,298.3,340.3,300.9
938.5,720,19.8,18.5,92,14.40,64,9.4,298.4,340.4,300.9
938.0,725,19.8,18.5,92,14.45,64,9.4,298.3,340.5,300.9
937.4,729,19.7,18.5,93,14.46,64,9.5,298.3,340.5,300.9
936.9,734,19.7,18.5,93,14.45,63,9.5,298.3,340.5,300.9
936.3,739,19.7,18.5,93,14.42,63,9.6,298.4,340.5,301.0
935.8,745,19.6,18.4,93,14.39,63,9.7,298.4,340.4,301.0
935.2,750,19.6,18.4,93,14.36,63,9.7,298.4,340.3,301.0
934.6,756,19.6,18.3,93,14.34,62,9.8,298.4,340.3,301.0
933.9,762,19.5,18.3,93,14.33,62,9.8,298.5,340.3,301.0
933.3,768,19.5,18.3,93,14.33,62,9.9,298.5,340.3,301.0
932.6,774,19.4,18.3,93,14.33,61,10.0,298.5,340.3,301.0
931.9,780,19.4,18.2,93,14.28,61,10.0,298.5,340.2,301.0
931.3,786,19.4,18.1,93,14.21,60,10.1,298.5,340.0,301.1
930.6,792,19.3,18.1,93,14.19,60,10.1,298.5,340.0,301.1
930.0,798,19.2,18.1,93,14.18,60,10.1,298.5,339.9,301.1
929.4,804,19.2,18.1,93,14.19,59,10.2,298.5,340.0,301.0
928.8,809,19.1,18.1,94,14.22,59,10.2,298.5,340.1,301.1
928.3,814,19.1,18.1,94,14.25,59,10.2,298.5,340.2,301.1
927.7,819,19.0,18.1,94,14.26,58,10.3,298.5,340.2,301.1
927.2,824,19.0,18.1,95,14.25,58,10.3,298.5,340.2,301.1
926.7,829,19.0,18.1,95,14.25,58,10.3,298.5,340.2,301.1
926.2,834,18.9,18.1,95,14.23,57,10.3,298.6,340.1,301.1
925.7,838,18.9,18.0,95,14.19,57,10.3,298.6,340.0,301.1
925.2,843,18.9,18.0,94,14.15,57,10.2,298.6,339.9,301.1
925.0,845,18.9,17.9,94,14.10,57,10.2,298.6,339.8,301.1
924.7,848,18.8,17.8,94,14.04,57,10.2,298.6,339.6,301.1
924.2,852,18.8,17.7,93,13.93,56,10.2,298.6,339.3,301.1
923.7,857,18.8,17.6,93,13.87,56,10.2,298.6,339.2,301.1
923.1,862,18.8,17.7,93,13.91,56,10.2,298.7,339.3,301.1
922.6,867,18.7,17.7,94,13.96,56,10.1,298.6,339.5,301.1
922.1,872,18.6,17.7,94,13.97,56,10.1,298.6,339.5,301.1
921.6,876,18.6,17.6,94,13.91,56,10.1,298.6,339.3,301.1
921.1,881,18.6,17.5,94,13.82,56,10.0,298.6,339.0,301.1
920.6,886,18.5,17.4,93,13.72,55,10.0,298.7,338.8,301.1
920.0,891,18.5,17.3,93,13.64,55,9.9,298.7,338.6,301.1
919.5,896,18.5,17.2,92,13.54,55,9.9,298.7,338.4,301.2
919.0,901,18.5,17.0,91,13.37,55,9.8,298.8,337.9,301.2
918.4,906,18.5,16.7,89,13.10,55,9.8,298.9,337.2,301.2
917.9,911,18.6,16.4,87,12.85,55,9.7,298.9,336.6,301.3
917.4,916,18.6,16.2,86,12.72,54,9.7,299.0,336.3,301.3
916.8,921,18.6,16.1,85,12.67,54,9.6,299.1,336.2,301.4
916.3,926,18.6,16.1,85,12.65,54,9.6,299.1,336.2,301.4
915.7,932,18.5,16.1,86,12.64,54,9.5,299.1,336.2,301.4
915.1,937,18.5,16.1,86,12.68,53,9.5,299.1,336.3,301.4
914.6,942,18.4,16.2,87,12.74,53,9.4,299.1,336.5,301.4
914.0,948,18.4,16.2,87,12.78,53,9.4,299.1,336.6,301.4
913.5,953,18.3,16.2,87,12.78,52,9.3,299.1,336.6,301.4
912.9,958,18.3,16.1,87,12.73,52,9.2,299.1,336.4,301.4
912.3,963,18.2,16.0,87,12.66,52,9.1,299.1,336.2,301.4
911.8,969,18.2,15.9,87,12.58,51,9.1,299.1,336.0,301.4
911.2,974,18.2,15.9,86,12.55,51,9.0,299.2,336.0,301.4
910.7,979,18.1,15.9,87,12.55,51,8.9,299.2,336.0,301.4
910.1,984,18.1,15.9,87,12.57,50,8.8,299.2,336.1,301.5
909.6,989,18.1,15.9,87,12.59,50,8.7,299.2,336.2,301.5
909.1,994,18.0,15.9,87,12.59,50,8.6,299.2,336.2,301.5
908.6,999,18.0,15.9,88,12.60,49,8.5,299.2,336.2,301.5
908.1,1004,18.0,15.9,88,12.60,49,8.3,299.2,336.2,301.5
907.6,1008,17.9,15.9,88,12.59,49,8.2,299.2,336.2,301.5
907.1,1013,17.9,15.8,88,12.56,49,8.1,299.2,336.1,301.5
906.6,1018,17.8,15.8,88,12.54,49,8.0,299.2,336.0,301.5
906.1,1022,17.8,15.7,88,12.50,49,7.9,299.2,336.0,301.5
905.6,1027,17.8,15.7,88,12.45,49,7.8,299.3,335.8,301.5
905.2,1031,17.7,15.6,87,12.39,49,7.7,299.3,335.6,301.5
904.7,1035,17.8,15.4,86,12.29,49,7.6,299.3,335.4,301.6
904.2,1040,17.8,15.3,85,12.18,49,7.5,299.4,335.2,301.6
903.8,1044,17.8,15.2,85,12.09,49,7.4,299.5,335.0,301.7
903.3,1049,17.8,15.1,84,12.04,49,7.3,299.6,335.0,301.7
902.9,1053,17.9,15.1,84,12.06,49,7.2,299.6,335.1,301.8
902.4,1057,17.9,15.3,85,12.19,49,7.2,299.7,335.6,301.9
901.9,1062,17.9,15.4,86,12.33,49,7.2,299.7,336.0,302.0
901.5,1066,17.9,15.5,86,12.34,49,7.1,299.8,336.1,302.0
901.0,1071,17.9,15.4,85,12.28,49,7.1,299.9,336.0,302.1
900.5,1076,18.0,15.3,84,12.23,48,7.1,300.0,336.0,302.2
900.0,1080,18.0,15.3,84,12.21,48,7.2,300.0,336.0,302.2
899.5,1085,18.0,15.3,84,12.21,48,7.2,300.1,336.0,302.3
899.0,1089,17.9,15.3,84,12.24,47,7.2,300.1,336.1,302.3
898.5,1094,17.9,15.3,85,12.29,47,7.3,300.1,336.3,302.3
898.0,1099,17.9,15.4,85,12.33,46,7.4,300.1,336.4,302.3
897.5,1104,17.8,15.4,86,12.36,46,7.5,300.1,336.5,302.3
896.9,1110,17.8,15.4,86,12.34,45,7.5,300.1,336.5,302.3
896.4,1115,17.7,15.3,86,12.30,45,7.6,300.1,336.3,302.3
895.8,1121,17.7,15.2,86,12.25,44,7.7,300.1,336.2,302.3
895.2,1126,17.6,15.2,85,12.19,44,7.8,300.1,336.0,302.3
894.6,1132,17.6,15.0,85,12.11,43,8.0,300.1,335.8,302.3
894.0,1137,17.6,15.0,85,12.05,43,8.1,300.2,335.7,302.3
893.5,1143,17.5,14.9,85,12.02,42,8.2,300.2,335.6,302.4
893.0,1147,17.5,14.9,85,12.04,42,8.3,300.2,335.7,302.4
892.5,1152,17.5,14.9,85,12.06,41,8.4,300.2,335.8,302.4
892.0,1157,17.4,15.0,85,12.10,41,8.5,300.2,335.9,302.4
891.6,1161,17.4,15.0,86,12.10,41,8.6,300.2,335.9,302.4
891.1,1165,17.4,14.9,86,12.08,40,8.7,300.2,335.9,302.4
890.7,1170,17.3,14.9,86,12.06,40,8.7,300.3,335.8,302.4
890.2,1174,17.3,14.9,86,12.05,40,8.8,300.3,335.8,302.4
889.7,1179,17.3,14.9,86,12.06,40,8.8,300.3,335.9,302.5
889.3,1183,17.2,14.9,86,12.06,40,8.9,300.3,335.9,302.5
888.8,1188,17.2,14.9,86,12.05,40,8.9,300.3,335.8,302.5
888.3,1192,17.2,14.8,86,12.04,40,9.0,300.3,335.8,302.5
887.8,1197,17.1,14.8,86,12.04,40,9.0,300.3,335.8,302.5
887.3,1202,17.1,14.8,87,12.04,41,9.0,300.3,335.8,302.5
886.8,1207,17.0,14.9,87,12.07,41,9.0,300.3,335.9,302.5
886.3,1212,17.0,14.9,88,12.12,41,9.0,300.3,336.1,302.5
885.7,1217,16.9,15.0,88,12.18,42,9.0,300.3,336.3,302.5
885.2,1223,16.9,15.0,88,12.19,42,9.0,300.3,336.3,302.5
884.6,1228,16.9,14.9,88,12.17,43,9.0,300.4,336.3,302.5
884.1,1233,16.8,14.9,88,12.12,43,9.0,300.4,336.1,302.5
883.5,1239,16.8,14.8,88,12.06,43,8.9,300.4,336.0,302.6
883.0,1244,16.8,14.7,87,11.98,44,8.9,300.4,335.8,302.6
882.4,1249,16.7,14.6,87,11.90,44,8.9,300.4,335.6,302.6
881.9,1254,16.7,14.5,87,11.85,45,8.9,300.5,335.5,302.6
881.4,1259,16.7,14.5,87,11.83,45,8.9,300.5,335.4,302.6
880.9,1264,16.7,14.5,87,11.83,45,8.9,300.5,335.5,302.7
880.4,1269,16.7,14.4,87,11.82,46,8.9,300.6,335.5,302.7
879.9,1273,16.6,14.4,87,11.79,46,8.9,300.6,335.4,302.7
879.5,1278,16.6,14.4,87,11.78,46,8.9,300.6,335.4,302.7
879.0,1283,16.5,14.3,87,11.77,47,8.9,300.6,335.3,302.7
878.5,1287,16.5,14.2,87,11.70,47,8.9,300.5,335.1,302.7
878.0,1292,16.5,14.1,86,11.61,47,8.9,300.6,334.9,302.7
877.5,1297,16.4,14.0,86,11.55,47,8.9,300.6,334.7,302.7
877.0,1302,16.4,14.0,85,11.52,47,8.9,300.6,334.7,302.7
876.4,1307,16.4,14.0,86,11.52,47,8.9,300.6,334.7,302.7
875.9,1312,16.3,14.0,86,11.52,47,9.0,300.6,334.7,302.7
875.4,1317,16.3,14.0,86,11.54,47,9.0,300.6,334.8,302.7
874.9,1322,16.2,14.0,87,11.56,46,9.0,300.6,334.8,302.7
874.4,1327,16.2,14.0,87,11.56,46,9.1,300.6,334.8,302.7
873.9,1332,16.1,13.9,87,11.52,46,9.1,300.6,334.7,302.7
873.3,1337,16.1,13.9,87,11.47,46,9.1,300.6,334.6,302.7
872.8,1342,16.0,13.8,87,11.45,46,9.2,300.7,334.5,302.7
872.3,1347,16.0,13.8,87,11.44,45,9.2,300.7,334.5,302.8
871.8,1352,16.0,13.8,87,11.45,45,9.2,300.7,334.6,302.8
871.3,1357,16.0,13.8,87,11.43,45,9.3,300.7,334.5,302.8
870.9,1362,15.9,13.7,87,11.39,45,9.3,300.7,334.4,302.8
870.4,1367,15.9,13.6,87,11.35,44,9.3,300.7,334.3,302.8
869.9,1371,15.8,13.6,87,11.34,44,9.4,300.7,334.3,302.8
869.4,1376,15.8,13.6,87,11.34,44,9.4,300.7,334.3,302.8
868.9,1381,15.8,13.6,87,11.37,44,9.4,300.7,334.4,302.8
868.4,1386,15.7,13.7,88,11.40,44,9.4,300.7,334.5,302.8
867.8,1391,15.7,13.7,88,11.41,44,9.5,300.7,334.5,302.8
867.3,1397,15.6,13.6,88,11.38,44,9.5,300.8,334.4,302.8
866.8,1402,15.6,13.6,88,11.34,43,9.5,300.8,334.3,302.8
866.2,1407,15.6,13.5,88,11.31,43,9.5,300.8,334.3,302.8
865.7,1413,15.5,13.5,88,11.30,43,9.5,300.8,334.3,302.9
865.1,1418,15.5,13.5,88,11.29,44,9.5,300.8,334.3,302.9
864.6,1424,15.5,13.5,88,11.29,44,9.4,300.8,334.3,302.9
864.0,1429,15.4,13.4,88,11.29,44,9.4,300.9,334.3,302.9
863.4,1434,15.3,13.4,88,11.29,44,9.4,300.9,334.3,302.9
862.9,1440,15.3,13.4,89,11.30,44,9.4,300.9,334.3,302.9
862.4,1445,15.2,13.4,89,11.31,44,9.3,300.8,334.3,302.9
861.8,1451,15.2,13.4,89,11.31,45,9.3,300.8,334.3,302.9
861.3,1456,15.1,13.4,89,11.28,45,9.2,300.8,334.2,302.9
860.8,1461,15.1,13.3,89,11.23,46,9.2,300.8,334.1,302.9
860.3,1466,15.1,13.3,89,11.21,46,9.2,300.9,334.1,302.9
859.8,1471,15.0,13.3,89,11.21,47,9.1,300.9,334.1,302.9
859.3,1476,15.0,13.3,90,11.22,48,9.1,300.9,334.1,302.9
858.8,1481,14.9,13.3,90,11.22,48,9.0,300.9,334.1,302.9
858.3,1486,14.9,13.2,90,11.22,49,9.0,300.9,334.1,302.9
857.8,1491,14.8,13.3,90,11.23,50,8.9,300.9,334.1,302.9
857.3,1496,14.8,13.2,90,11.23,51,8.9,300.9,334.1,302.9
856.8,1501,14.8,13.2,90,11.21,52,8.9,300.9,334.1,303.0
856.2,1506,14.8,13.2,90,11.20,53,8.9,301.0,334.2,303.0
855.7,1511,14.8,13.2,90,11.21,54,8.9,301.0,334.2,303.1
855.2,1516,14.7,13.2,91,11.23,55,8.9,301.0,334.3,303.1
854.6,1522,14.7,13.2,91,11.26,56,8.9,301.0,334.4,303.1
854.1,1527,14.6,13.2,91,11.25,57,8.9,301.0,334.4,303.1
853.5,1533,14.6,13.1,91,11.20,59,8.9,301.1,334.3,303.1
853.0,1538,14.6,13.1,91,11.15,60,9.0,301.1,334.1,303.1
852.4,1543,14.5,13.0,90,11.09,61,9.0,301.1,334.0,303.1
851.9,1549,14.5,12.8,90,10.99,62,9.1,301.1,333.7,303.1
851.4,1554,14.5,12.5,88,10.79,63,9.2,301.2,333.2,303.1
850.9,1559,14.5,12.0,85,10.44,64,9.3,301.3,332.3,303.1
850.4,1564,14.7,11.3,80,9.93,65,9.4,301.4,331.0,303.3
850.0,1568,14.9,10.6,76,9.50,65,9.4,301.7,330.0,303.4
849.9,1569,14.9,10.4,74,9.33,66,9.4,301.8,329.7,303.5
849.4,1574,15.3,9.5,68,8.79,67,9.5,302.3,328.6,303.9
848.9,1579,15.7,8.9,64,8.47,68,9.6,302.7,328.1,304.2
848.4,1584,15.8,8.7,63,8.38,69,9.7,302.9,328.1,304.4
847.9,1588,15.8,8.8,63,8.40,70,9.8,302.9,328.2,304.5
847.5,1593,15.8,8.8,63,8.43,70,9.9,302.9,328.3,304.5
847.0,1597,15.8,8.8,63,8.44,71,10.0,303.0,328.4,304.5
846.6,1602,15.8,8.8,63,8.43,72,10.1,303.0,328.4,304.6
846.1,1607,15.8,8.7,63,8.38,72,10.2,303.0,328.3,304.6
845.6,1612,15.7,8.4,62,8.23,73,10.3,303.1,327.9,304.6
845.1,1617,15.7,8.0,60,7.98,73,10.3,303.1,327.2,304.6
844.6,1621,15.8,7.1,56,7.53,73,10.4,303.2,326.0,304.6
844.1,1626,15.9,5.9,51,6.92,74,10.4,303.4,324.4,304.6
843.6,1632,16.0,4.8,47,6.39,74,10.4,303.6,323.1,304.8
843.1,1637,16.1,4.1,45,6.09,74,10.5,303.7,322.3,304.8
842.6,1642,16.1,3.8,44,5.97,74,10.5,303.8,322.1,304.9
842.1,1647,16.1,3.8,44,5.97,74,10.5,303.8,322.1,304.9
841.5,1653,16.1,3.9,44,6.02,75,10.5,303.8,322.3,304.9
840.9,1659,16.0,4.0,45,6.07,75,10.4,303.9,322.5,305.0
840.4,1665,16.1,4.5,46,6.30,75,10.4,304.0,323.2,305.1
839.8,1670,16.1,5.5,49,6.75,75,10.4,304.1,324.7,305.3
839.2,1676,16.2,6.3,52,7.15,75,10.3,304.2,325.9,305.5
838.7,1682,16.2,6.7,53,7.35,75,10.3,304.2,326.6,305.6
838.1,1687,16.1,6.7,54,7.38,75,10.2,304.3,326.7,305.6
837.6,1692,16.1,6.7,54,7.38,75,10.1,304.3,326.7,305.6
837.2,1697,16.1,6.7,54,7.39,76,10.1,304.3,326.8,305.6
836.7,1702,16.0,6.8,54,7.41,76,10.0,304.3,326.8,305.7
836.3,1706,16.0,6.8,54,7.43,76,9.9,304.3,326.9,305.7
835.8,1711,16.0,6.8,55,7.46,76,9.9,304.3,327.0,305.7
835.4,1715,16.0,6.9,55,7.48,76,9.8,304.4,327.1,305.7
834.9,1720,16.0,6.9,55,7.47,76,9.7,304.4,327.1,305.8
834.4,1725,15.9,6.8,55,7.46,76,9.7,304.4,327.1,305.8
833.9,1730,15.9,6.8,55,7.46,76,9.6,304.4,327.1,305.8
833.4,1735,15.9,6.8,55,7.47,76,9.6,304.5,327.2,305.9
832.8,1741,15.9,6.8,55,7.48,76,9.5,304.6,327.3,305.9
832.3,1747,15.9,6.8,55,7.46,77,9.5,304.6,327.4,306.0
831.7,1753,15.9,6.7,54,7.42,77,9.5,304.7,327.3,306.1
831.1,1758,15.9,6.6,54,7.37,77,9.4,304.8,327.2,306.1
830.6,1764,15.9,6.5,54,7.34,77,9.4,304.8,327.2,306.2
830.1,1769,15.9,6.5,54,7.33,77,9.4,304.8,327.2,306.2
829.6,1774,15.9,6.5,54,7.33,77,9.3,304.9,327.2,306.2
829.1,1779,15.8,6.5,54,7.33,77,9.3,304.9,327.2,306.2
828.7,1784,15.8,6.4,54,7.30,77,9.3,304.9,327.1,306.2
828.2,1788,15.8,6.3,53,7.26,77,9.3,304.9,327.1,306.3
827.8,1793,15.8,6.3,53,7.24,78,9.3,305.0,327.1,306.3
827.3,1798,15.8,6.3,53,7.24,78,9.3,305.0,327.2,306.4
826.8,1802,15.8,6.3,53,7.25,78,9.3,305.0,327.2,306.4
826.4,1807,15.7,6.3,53,7.26,78,9.3,305.0,327.2,306.4
825.9,1812,15.7,6.3,54,7.27,78,9.4,305.1,327.2,306.4
825.4,1817,15.7,6.2,53,7.25,78,9.4,305.1,327.2,306.4
824.9,1822,15.7,6.2,53,7.21,79,9.4,305.1,327.2,306.5
824.4,1827,15.7,6.1,53,7.17,79,9.4,305.2,327.1,306.5
823.9,1833,15.6,6.0,53,7.15,79,9.5,305.2,327.1,306.5
823.4,1838,15.6,6.0,53,7.14,79,9.5,305.2,327.1,306.6
822.9,1843,15.6,6.0,53,7.14,79,9.5,305.3,327.1,306.6
