PRES,HGHT,TEMP,DWPT,RELH,MIXR,DRCT,SPED,THTA,THTE,THTV
1015.5,31,25.8,16.7,57,11.83,180,5.7,297.6,332.2,299.8
1015.1,34,24.9,16.1,58,11.43,163,2.8,296.8,330.1,298.9
1014.4,40,24.3,15.9,60,11.30,157,2.6,296.2,329.1,298.2
1014.1,42,24.0,15.9,61,11.30,156,2.7,295.9,328.7,297.9
1013.6,47,23.9,15.9,61,11.31,157,3.0,295.9,328.7,297.9
1013.1,52,23.9,15.9,61,11.25,158,3.2,295.9,328.5,297.9
1012.5,56,23.8,15.8,61,11.18,158,3.4,295.9,328.4,297.9
1012.0,61,23.8,15.6,60,11.11,159,3.6,295.9,328.2,297.9
1011.5,65,23.9,15.6,60,11.11,159,3.8,296.1,328.3,298.0
1010.9,70,24.1,15.7,59,11.18,159,4.0,296.3,328.8,298.3
1010.4,75,24.2,15.7,59,11.19,160,4.2,296.5,329.0,298.5
1009.9,79,24.2,15.8,59,11.22,160,4.4,296.5,329.1,298.5
1009.3,84,23.8,15.6,60,11.11,161,4.5,296.2,328.5,298.2
1008.7,89,23.7,15.7,61,11.18,161,4.7,296.1,328.6,298.1
1008.2,94,23.7,15.8,61,11.25,161,4.8,296.1,328.8,298.1
1007.6,99,23.6,15.7,61,11.19,162,5.0,296.1,328.6,298.1
1007.1,104,23.5,15.6,61,11.12,162,5.1,296.0,328.3,298.0
1006.5,108,23.4,15.6,61,11.13,163,5.2,296.0,328.3,298.0
1006.0,113,23.4,15.7,62,11.20,163,5.3,296.1,328.6,298.1
1005.5,117,23.4,15.7,62,11.22,164,5.4,296.1,328.7,298.1
1005.0,122,23.4,15.7,62,11.21,164,5.5,296.1,328.7,298.1
1004.5,126,23.3,15.6,62,11.18,165,5.6,296.1,328.6,298.1
1004.0,130,23.2,15.5,62,11.11,165,5.7,296.0,328.3,298.0
1003.5,135,23.1,15.4,62,11.06,166,5.7,295.9,328.0,297.9
1003.0,139,23.1,15.5,62,11.08,166,5.8,296.0,328.1,297.9
1002.6,143,23.0,15.5,63,11.12,167,5.8,296.0,328.2,297.9
1002.1,147,23.0,15.5,63,11.12,167,5.9,296.0,328.3,298.0
1001.7,150,23.0,15.5,63,11.12,168,5.9,296.0,328.2,297.9
1001.2,154,22.9,15.5,63,11.13,168,6.0,296.0,328.3,297.9
1000.8,158,22.9,15.5,63,11.15,169,6.0,296.0,328.3,297.9
1000.4,162,22.8,15.5,63,11.14,169,6.0,295.9,328.3,297.9
1000.0,165,22.8,15.5,63,11.13,169,6.0,295.9,328.3,297.9
999.5,169,22.8,15.5,63,11.11,170,6.1,296.0,328.2,297.9
999.1,172,22.7,15.4,63,11.09,170,6.1,296.0,328.1,297.9
998.7,176,22.7,15.4,63,11.07,171,6.1,296.0,328.1,297.9
998.3,179,22.7,15.4,63,11.07,171,6.1,296.0,328.1,297.9
997.9,183,22.6,15.4,64,11.09,172,6.2,296.0,328.2,297.9
997.5,187,22.6,15.4,64,11.12,172,6.2,296.0,328.2,297.9
997.1,191,22.6,15.5,64,11.14,173,6.2,296.0,328.3,297.9
996.6,195,22.5,15.5,64,11.14,173,6.2,296.0,328.3,297.9
996.2,199,22.5,15.5,64,11.15,173,6.2,296.0,328.3,297.9
995.7,203,22.5,15.4,65,11.15,174,6.2,296.0,328.3,297.9
995.2,207,22.4,15.4,65,11.13,174,6.2,296.0,328.3,297.9
994.7,212,22.4,15.4,65,11.11,174,6.2,296.0,328.2,297.9
994.1,216,22.3,15.4,65,11.13,175,6.2,296.0,328.3,297.9
993.6,221,22.3,15.4,65,11.13,175,6.2,296.0,328.3,298.0
993.0,226,22.2,15.4,65,11.15,176,6.1,296.0,328.3,298.0
992.5,231,22.2,15.4,65,11.15,176,6.1,296.0,328.3,298.0
991.9,236,22.1,15.4,66,11.16,176,6.1,296.0,328.3,297.9
991.3,241,22.1,15.4,66,11.14,177,6.1,296.0,328.3,297.9
990.8,245,22.0,15.3,66,11.11,177,6.1,296.0,328.2,297.9
990.3,250,22.0,15.3,66,11.11,177,6.1,296.0,328.2,297.9
989.8,254,22.0,15.3,66,11.11,178,6.0,296.0,328.2,298.0
989.3,258,21.9,15.3,66,11.10,178,6.0,296.0,328.2,298.0
988.9,262,21.9,15.3,66,11.11,179,6.0,296.0,328.2,298.0
988.4,266,21.9,15.3,66,11.13,179,6.0,296.0,328.3,298.0
988.0,270,21.8,15.4,67,11.17,179,6.0,296.0,328.4,298.0
987.6,274,21.8,15.4,67,11.20,180,5.9,296.0,328.5,298.0
987.1,278,21.8,15.4,67,11.23,180,5.9,296.0,328.6,298.0
986.7,282,21.7,15.4,67,11.23,180,5.9,296.0,328.6,298.0
986.3,286,21.7,15.4,67,11.22,181,5.9,296.0,328.6,298.0
985.8,290,21.7,15.4,67,11.19,181,5.9,296.0,328.5,298.0
985.3,294,21.6,15.3,67,11.17,181,5.8,296.0,328.4,298.0
984.9,298,21.6,15.3,67,11.17,182,5.8,296.0,328.4,298.0
984.4,302,21.6,15.3,68,11.20,182,5.8,296.0,328.5,298.0
984.0,306,21.5,15.4,68,11.23,182,5.8,296.0,328.6,298.0
983.5,310,21.5,15.4,68,11.27,182,5.7,296.0,328.7,298.0
983.0,314,21.4,15.5,69,11.30,182,5.7,296.0,328.8,298.0
982.5,319,21.4,15.4,69,11.29,182,5.7,296.0,328.8,298.0
982.0,323,21.4,15.4,69,11.27,182,5.7,296.0,328.8,298.0
981.4,328,21.3,15.4,69,11.27,182,5.6,296.0,328.8,298.0
980.9,333,21.3,15.4,69,11.28,182,5.6,296.0,328.8,298.0
980.4,337,21.2,15.4,69,11.28,182,5.6,296.0,328.8,298.0
979.9,342,21.2,15.4,69,11.28,182,5.5,296.1,328.8,298.1
979.4,346,21.2,15.4,70,11.30,182,5.5,296.1,328.9,298.1
978.9,351,21.1,15.4,70,11.28,182,5.4,296.1,328.8,298.1
978.4,355,21.1,15.3,70,11.27,182,5.3,296.1,328.8,298.1
977.9,359,21.0,15.3,70,11.28,182,5.3,296.1,328.8,298.1
977.4,364,21.0,15.4,70,11.29,181,5.2,296.1,328.8,298.1
976.9,368,20.9,15.3,70,11.27,181,5.1,296.1,328.8,298.1
976.4,373,20.9,15.3,70,11.24,181,5.1,296.1,328.7,298.1
975.8,378,20.8,15.2,70,11.23,180,5.0,296.1,328.6,298.1
975.3,383,20.8,15.3,71,11.24,180,4.9,296.0,328.7,298.0
974.8,387,20.7,15.3,71,11.26,180,4.8,296.0,328.7,298.0
974.2,392,20.7,15.3,71,11.26,180,4.7,296.1,328.7,298.1
973.7,397,20.7,15.3,71,11.26,179,4.7,296.1,328.7,298.1
973.2,401,20.6,15.2,71,11.25,179,4.6,296.1,328.7,298.1
972.7,406,20.6,15.2,71,11.25,179,4.5,296.1,328.7,298.1
972.1,411,20.5,15.2,71,11.25,179,4.4,296.1,328.7,298.1
971.6,415,20.5,15.2,72,11.26,178,4.3,296.1,328.8,298.1
971.1,420,20.5,15.3,72,11.29,178,4.2,296.1,328.9,298.1
970.5,425,20.4,15.3,72,11.33,178,4.1,296.1,329.0,298.1
969.9,430,20.4,15.4,73,11.38,178,4.0,296.1,329.1,298.1
969.3,436,20.3,15.3,73,11.38,177,3.9,296.1,329.1,298.1
968.7,442,20.3,15.3,73,11.36,177,3.8,296.1,329.0,298.1
968.0,447,20.2,15.2,73,11.32,177,3.8,296.1,328.9,298.1
967.4,453,20.1,15.2,73,11.26,177,3.7,296.1,328.8,298.1
966.7,459,20.1,15.1,73,11.26,177,3.6,296.1,328.8,298.1
966.0,465,20.0,15.1,73,11.27,177,3.5,296.1,328.8,298.1
965.4,471,20.0,15.2,74,11.30,177,3.5,296.1,328.9,298.1
964.7,477,19.9,15.2,74,11.32,177,3.4,296.1,329.0,298.1
964.1,482,19.9,15.2,74,11.32,177,3.3,296.1,329.0,298.1
963.5,487,19.8,15.2,74,11.31,177,3.3,296.1,328.9,298.1
963.0,493,19.8,15.1,74,11.31,177,3.2,296.1,328.9,298.1
962.4,498,19.8,15.2,75,11.33,178,3.2,296.1,329.0,298.1
961.8,503,19.7,15.2,75,11.35,178,3.1,296.1,329.1,298.1
961.3,507,19.6,15.2,75,11.36,179,3.1,296.1,329.1,298.1
960.8,512,19.6,15.2,76,11.36,180,3.1,296.1,329.1,298.1
960.2,517,19.6,15.2,76,11.39,181,3.1,296.1,329.2,298.1
959.7,522,19.5,15.3,77,11.47,181,3.0,296.1,329.4,298.2
959.2,527,19.5,15.4,77,11.56,183,3.0,296.2,329.7,298.2
958.6,531,19.5,15.4,77,11.57,184,3.0,296.2,329.8,298.3
958.1,536,19.5,15.4,77,11.57,185,3.0,296.2,329.8,298.3
957.6,541,19.4,15.4,78,11.58,187,3.0,296.2,329.8,298.3
957.0,546,19.4,15.4,78,11.57,188,3.1,296.2,329.8,298.3
956.5,551,19.3,15.3,77,11.48,190,3.1,296.2,329.6,298.3
955.9,556,19.3,15.1,77,11.39,191,3.1,296.2,329.3,298.2
955.3,562,19.2,15.2,77,11.41,193,3.1,296.2,329.3,298.2
954.6,567,19.2,15.3,78,11.54,194,3.2,296.2,329.7,298.3
954.0,573,19.1,15.4,79,11.63,196,3.2,296.2,330.0,298.3
953.3,579,19.1,15.5,80,11.67,197,3.3,296.2,330.1,298.3
952.6,586,19.0,15.4,80,11.64,199,3.3,296.2,330.0,298.3
952.0,592,18.9,15.3,79,11.56,200,3.4,296.2,329.8,298.3
951.3,597,18.9,15.2,79,11.48,201,3.5,296.2,329.5,298.2
950.7,603,18.8,15.2,79,11.47,203,3.5,296.2,329.5,298.2
950.2,608,18.7,15.2,80,11.50,204,3.6,296.2,329.5,298.2
949.6,613,18.7,15.2,80,11.51,205,3.7,296.2,329.6,298.2
949.1,618,18.7,15.2,80,11.50,205,3.7,296.2,329.6,298.2
948.6,622,18.6,15.2,80,11.49,206,3.8,296.2,329.5,298.2
948.0,627,18.6,15.2,81,11.51,207,3.9,296.2,329.6,298.3
947.5,632,18.5,15.2,81,11.56,208,4.0,296.2,329.8,298.3
946.9,637,18.5,15.3,82,11.59,208,4.0,296.2,329.8,298.3
946.3,643,18.4,15.2,82,11.58,209,4.1,296.2,329.8,298.3
945.7,648,18.4,15.2,82,11.57,209,4.2,296.2,329.8,298.3
945.1,653,18.3,15.3,82,11.62,209,4.2,296.2,329.9,298.3
944.6,659,18.3,15.3,83,11.65,210,4.3,296.2,330.0,298.3
944.0,664,18.2,15.2,83,11.60,210,4.4,296.2,329.9,298.3
943.4,669,18.2,15.1,82,11.54,210,4.4,296.2,329.7,298.3
942.9,674,18.1,15.1,83,11.54,211,4.5,296.2,329.7,298.3
942.4,678,18.1,15.1,83,11.54,211,4.5,296.2,329.7,298.3
941.9,683,18.1,15.1,83,11.54,211,4.6,296.2,329.7,298.3
941.5,687,18.0,15.1,83,11.57,212,4.6,296.2,329.8,298.3
941.0,691,18.0,15.1,83,11.56,212,4.7,296.2,329.8,298.3
940.6,695,18.0,15.1,83,11.54,213,4.7,296.2,329.7,298.3
940.2,699,17.9,15.0,83,11.51,213,4.7,296.2,329.6,298.3
939.7,703,17.9,15.0,83,11.49,214,4.7,296.2,329.6,298.3
939.3,707,17.8,15.0,84,11.49,215,4.7,296.2,329.6,298.3
938.8,711,17.8,15.0,84,11.50,216,4.7,296.2,329.6,298.3
938.4,715,17.7,15.0,84,11.50,217,4.7,296.2,329.6,298.3
937.9,720,17.7,14.9,84,11.46,217,4.7,296.2,329.5,298.3
937.4,724,17.7,14.9,84,11.43,219,4.7,296.3,329.4,298.3
936.8,729,17.7,14.9,84,11.42,220,4.6,296.3,329.4,298.3
936.3,734,17.6,14.8,83,11.36,221,4.6,296.3,329.3,298.3
935.7,739,17.6,14.7,83,11.31,222,4.5,296.3,329.2,298.3
935.2,744,17.6,14.7,83,11.30,224,4.5,296.3,329.1,298.3
934.6,749,17.5,14.7,84,11.30,226,4.4,296.3,329.1,298.3
934.1,755,17.4,14.7,84,11.32,227,4.3,296.3,329.2,298.3
933.5,760,17.4,14.6,84,11.27,229,4.2,296.3,329.1,298.3
932.9,765,17.4,14.5,83,11.18,231,4.1,296.4,328.9,298.4
932.4,770,17.4,14.4,82,11.10,234,3.9,296.4,328.7,298.4
931.8,775,17.4,14.2,81,11.00,236,3.8,296.5,328.5,298.5
931.2,781,17.5,14.1,81,10.92,239,3.7,296.6,328.4,298.5
930.6,786,17.5,14.0,80,10.89,242,3.6,296.6,328.3,298.6
930.1,791,17.4,14.1,81,10.91,245,3.5,296.7,328.4,298.6
929.6,796,17.4,14.1,81,10.97,248,3.4,296.7,328.6,298.6
929.0,801,17.3,14.2,82,11.00,252,3.3,296.6,328.7,298.6
928.5,805,17.3,14.1,82,10.97,256,3.2,296.6,328.6,298.6
928.0,810,17.3,14.0,81,10.91,260,3.1,296.7,328.4,298.6
927.5,814,17.3,13.9,81,10.81,264,3.1,296.7,328.2,298.7
927.0,819,17.3,13.7,79,10.68,268,3.0,296.8,328.0,298.7
926.5,824,17.4,13.5,78,10.57,272,3.0,297.0,327.8,298.9
926.0,828,17.5,13.4,77,10.52,276,3.0,297.1,327.8,298.9
925.6,833,17.5,13.3,76,10.42,279,3.0,297.1,327.6,299.0
925.1,837,17.6,13.0,75,10.23,282,3.1,297.2,327.2,299.1
925.0,838,17.6,13.0,74,10.21,285,3.1,297.3,327.1,299.1
924.6,841,17.6,12.8,73,10.10,285,3.1,297.4,326.9,299.2
924.2,845,17.7,12.8,73,10.08,287,3.2,297.4,326.9,299.2
923.8,849,17.6,12.8,74,10.13,289,3.3,297.4,327.0,299.2
923.4,853,17.5,12.9,75,10.19,291,3.3,297.3,327.1,299.1
923.0,857,17.4,12.9,75,10.19,292,3.4,297.3,327.1,299.1
922.6,861,17.4,12.8,74,10.12,293,3.5,297.4,327.0,299.2
922.1,864,17.5,12.6,73,10.01,293,3.6,297.4,326.7,299.2
921.7,868,17.5,12.5,72,9.90,293,3.7,297.5,326.5,299.3
921.3,872,17.6,12.3,71,9.81,293,3.8,297.6,326.3,299.4
920.9,876,17.6,12.1,70,9.66,292,3.8,297.7,326.0,299.4
920.5,880,17.7,11.9,69,9.54,292,3.9,297.8,325.8,299.5
920.1,883,17.7,11.9,69,9.54,291,4.0,297.9,325.9,299.6
919.7,887,17.7,12.0,69,9.64,290,4.1,297.9,326.2,299.6
919.3,891,17.6,12.2,70,9.75,289,4.2,297.8,326.4,299.6
918.8,895,17.5,12.4,72,9.87,287,4.2,297.8,326.7,299.5
918.4,899,17.4,12.5,73,9.95,286,4.3,297.7,326.9,299.5
917.9,904,17.3,12.4,73,9.93,284,4.4,297.7,326.7,299.4
917.5,908,17.3,12.4,73,9.90,283,4.4,297.7,326.7,299.4
917.0,913,17.2,12.4,73,9.93,281,4.5,297.7,326.8,299.4
916.5,917,17.2,12.4,73,9.91,279,4.5,297.7,326.7,299.5
916.0,922,17.2,12.2,72,9.79,278,4.6,297.7,326.4,299.5
915.4,927,17.2,12.0,72,9.66,276,4.6,297.8,326.1,299.5
914.9,932,17.2,11.8,70,9.53,274,4.6,297.8,325.8,299.5
914.4,937,17.3,11.7,70,9.46,272,4.6,297.9,325.7,299.6
913.8,942,17.3,11.7,70,9.48,270,4.6,298.0,325.9,299.7
913.2,948,17.3,11.7,70,9.47,269,4.6,298.1,325.9,299.8
912.6,953,17.3,11.4,68,9.34,267,4.6,298.1,325.6,299.8
912.1,959,17.4,11.0,66,9.05,265,4.6,298.3,324.9,299.9
911.5,964,17.5,10.4,63,8.69,263,4.5,298.4,324.1,300.0
910.9,970,17.7,9.6,59,8.28,261,4.5,298.7,323.2,300.2
910.3,975,17.9,9.0,56,7.91,259,4.5,298.9,322.4,300.4
909.7,980,18.0,8.8,55,7.84,256,4.4,299.1,322.4,300.5
909.2,985,17.9,9.1,57,8.02,254,4.4,299.1,322.9,300.5
908.7,990,17.8,9.3,58,8.12,252,4.3,299.0,323.1,300.5
908.2,995,17.7,9.4,58,8.17,249,4.2,299.0,323.2,300.5
907.7,1000,17.7,9.6,59,8.30,247,4.2,299.0,323.5,300.5
907.2,1005,17.6,9.4,59,8.20,244,4.1,298.9,323.3,300.4
906.7,1009,17.6,8.7,56,7.83,242,4.1,299.0,322.3,300.4
906.1,1014,17.7,8.1,53,7.48,239,4.0,299.2,321.5,300.6
905.6,1020,17.9,7.6,51,7.26,237,4.0,299.4,321.0,300.7
905.0,1025,18.0,7.5,50,7.19,234,3.9,299.5,321.0,300.8
904.4,1030,17.9,7.5,51,7.22,231,3.9,299.6,321.1,300.9
903.8,1036,17.9,7.6,51,7.24,229,3.9,299.6,321.2,300.9
903.3,1041,17.8,7.5,51,7.19,226,3.9,299.6,321.0,300.9
902.7,1047,17.8,7.0,49,6.96,224,3.8,299.6,320.4,300.9
902.1,1052,17.9,5.8,45,6.44,222,3.8,299.8,319.1,301.0
901.6,1057,18.3,4.0,39,5.66,220,3.8,300.2,317.3,301.2
901.0,1063,18.6,2.7,35,5.17,218,3.8,300.5,316.2,301.5
900.5,1068,18.7,2.2,33,4.98,216,3.7,300.7,315.9,301.6
899.9,1073,18.9,0.9,30,4.54,215,3.7,301.0,314.9,301.8
899.3,1079,19.3,-1.8,24,3.72,213,3.7,301.4,313.0,302.1
898.7,1084,19.7,-4.8,19,2.98,212,3.7,302.0,311.3,302.5
898.1,1091,20.0,-6.3,16,2.65,211,3.6,302.3,310.7,302.8
897.4,1097,20.3,-7.7,14,2.40,210,3.6,302.6,310.3,303.1
896.7,1104,20.6,-10.7,11,1.88,209,3.5,303.0,309.1,303.4
896.0,1111,21.0,-12.8,9,1.59,208,3.4,303.5,308.7,303.8
895.3,1118,21.4,-13.1,9,1.56,207,3.4,304.0,309.1,304.3
894.6,1124,21.7,-12.9,9,1.59,207,3.3,304.4,309.6,304.7
893.9,1131,21.8,-12.3,9,1.66,206,3.2,304.6,310.0,304.9
893.3,1137,21.9,-11.8,9,1.73,206,3.2,304.7,310.3,305.0
892.7,1143,21.9,-11.5,10,1.78,205,3.1,304.7,310.6,305.1
892.1,1149,21.9,-11.2,10,1.82,204,3.0,304.8,310.7,305.1
891.5,1154,21.8,-11.1,10,1.84,204,2.9,304.8,310.8,305.2
891.0,1159,21.8,-11.0,10,1.86,203,2.8,304.8,310.9,305.2
890.4,1165,21.8,-10.9,10,1.88,203,2.8,304.9,311.0,305.2
889.9,1170,21.8,-10.8,10,1.88,202,2.7,304.9,311.1,305.3
889.3,1175,21.8,-10.8,10,1.88,201,2.6,305.0,311.1,305.3
888.8,1181,21.8,-10.9,10,1.87,199,2.6,305.0,311.1,305.4
888.2,1186,21.8,-10.9,10,1.87,198,2.5,305.1,311.2,305.4
887.7,1192,21.8,-11.0,10,1.86,197,2.5,305.1,311.2,305.5
887.1,1197,21.7,-11.1,10,1.85,195,2.5,305.1,311.2,305.5
886.6,1202,21.7,-11.1,10,1.85,193,2.4,305.2,311.2,305.5
886.1,1207,21.7,-11.1,10,1.85,191,2.4,305.2,311.3,305.6
885.6,1212,21.7,-11.1,10,1.86,189,2.4,305.3,311.3,305.6
885.0,1217,21.7,-11.0,10,1.87,187,2.4,305.3,311.4,305.6
884.5,1222,21.6,-11.0,10,1.87,185,2.4,305.3,311.4,305.7
884.0,1227,21.6,-11.0,10,1.87,183,2.5,305.3,311.4,305.7
883.5,1232,21.6,-11.0,10,1.88,181,2.5,305.3,311.5,305.7
883.0,1237,21.5,-10.9,10,1.88,179,2.6,305.4,311.5,305.7
882.4,1243,21.5,-10.9,10,1.89,178,2.6,305.4,311.6,305.7
881.9,1248,21.5,-10.8,11,1.90,176,2.7,305.4,311.6,305.8
881.3,1254,21.5,-10.7,11,1.92,175,2.7,305.4,311.7,305.8
880.7,1259,21.4,-10.6,11,1.94,173,2.8,305.5,311.8,305.8
880.2,1264,21.4,-10.6,11,1.94,172,2.8,305.5,311.8,305.8
879.7,1269,21.4,-10.6,11,1.93,171,2.9,305.5,311.8,305.8
879.2,1274,21.3,-10.6,11,1.94,170,2.9,305.5,311.8,305.9
878.8,1278,21.3,-10.5,11,1.95,169,3.0,305.5,311.9,305.9
878.4,1282,21.3,-10.4,11,1.97,168,3.0,305.5,311.9,305.9
878.0,1286,21.2,-10.3,11,1.98,168,3.0,305.5,312.0,305.9
877.6,1290,21.2,-10.3,11,1.99,167,3.0,305.5,312.0,305.9
877.2,1294,21.2,-10.2,11,2.00,167,3.0,305.6,312.1,305.9
876.8,1298,21.2,-10.2,11,2.02,166,3.1,305.6,312.1,306.0
876.3,1302,21.1,-10.2,11,2.02,166,3.1,305.6,312.2,306.0
875.9,1307,21.1,-10.1,11,2.02,166,3.1,305.6,312.2,306.0
875.4,1311,21.1,-10.0,11,2.04,166,3.1,305.6,312.3,306.0
875.0,1316,21.1,-10.0,12,2.05,166,3.0,305.6,312.3,306.0
874.5,1321,21.0,-9.9,12,2.05,166,3.0,305.7,312.3,306.1
874.0,1326,21.0,-10.0,12,2.05,166,3.0,305.7,312.4,306.1
873.5,1331,21.0,-10.0,12,2.05,166,3.0,305.7,312.4,306.1
873.0,1336,20.9,-10.0,12,2.06,166,3.0,305.7,312.4,306.1
872.5,1341,20.9,-10.0,12,2.06,166,2.9,305.7,312.4,306.1
872.0,1346,20.9,-10.0,12,2.05,166,2.9,305.8,312.4,306.1
871.5,1350,20.8,-10.1,12,2.04,166,2.9,305.8,312.4,306.2
871.0,1355,20.8,-10.1,12,2.03,166,2.9,305.8,312.4,306.2
870.5,1360,20.8,-10.1,12,2.03,166,2.9,305.8,312.4,306.2
870.0,1365,20.8,-10.1,12,2.03,166,2.9,305.8,312.4,306.2
869.6,1369,20.7,-10.1,12,2.04,166,2.9,305.8,312.5,306.2
869.1,1374,20.7,-10.1,12,2.03,165,2.9,305.8,312.5,306.2
868.7,1378,20.6,-10.2,12,2.03,165,2.9,305.8,312.4,306.2
868.2,1382,20.6,-10.2,12,2.03,165,2.9,305.9,312.5,306.2
867.8,1386,20.6,-10.2,12,2.02,164,2.9,305.9,312.5,306.2
867.4,1390,20.5,-10.2,12,2.02,164,3.0,305.9,312.5,306.2
867.1,1394,20.5,-10.2,12,2.03,163,3.0,305.9,312.5,306.3
866.7,1398,20.5,-10.2,12,2.03,163,3.0,305.9,312.5,306.3
866.3,1402,20.5,-10.2,12,2.03,162,3.1,305.9,312.5,306.3
865.9,1405,20.5,-10.3,12,2.02,161,3.1,305.9,312.5,306.3
865.5,1409,20.4,-10.3,12,2.01,160,3.2,305.9,312.5,306.3
865.1,1413,20.4,-10.4,12,2.00,159,3.2,306.0,312.5,306.3
864.7,1418,20.4,-10.4,12,2.00,158,3.2,306.0,312.5,306.4
864.3,1422,20.4,-10.4,12,2.00,158,3.3,306.0,312.5,306.4
863.8,1427,20.3,-10.4,12,2.01,157,3.3,306.0,312.6,306.4
863.3,1431,20.3,-10.3,12,2.02,156,3.4,306.0,312.6,306.4
862.8,1437,20.3,-10.3,12,2.03,155,3.4,306.0,312.7,306.4
862.2,1442,20.2,-10.2,12,2.04,154,3.4,306.0,312.7,306.4
861.7,1448,20.1,-10.2,12,2.04,154,3.5,306.0,312.7,306.4
861.1,1453,20.1,-10.3,12,2.03,153,3.5,306.1,312.7,306.4
860.6,1459,20.1,-10.4,12,2.02,152,3.5,306.1,312.6,306.4
860.1,1464,20.0,-10.4,12,2.01,152,3.5,306.1,312.6,306.4
859.6,1469,20.0,-10.4,12,2.01,151,3.5,306.1,312.6,306.5
859.1,1474,20.0,-10.4,12,2.01,151,3.5,306.1,312.7,306.5
858.6,1478,19.9,-10.4,12,2.02,150,3.5,306.1,312.7,306.5
858.2,1483,19.9,-10.4,12,2.02,150,3.4,306.1,312.7,306.5
857.8,1487,19.8,-10.4,12,2.03,150,3.4,306.1,312.7,306.5
857.3,1491,19.8,-10.3,12,2.03,150,3.4,306.1,312.7,306.5
856.9,1495,19.8,-10.3,12,2.03,149,3.3,306.1,312.7,306.5
856.5,1499,19.7,-10.3,12,2.04,149,3.3,306.1,312.8,306.5
856.1,1503,19.7,-10.3,12,2.04,149,3.2,306.1,312.8,306.5
855.7,1508,19.7,-10.3,12,2.05,149,3.2,306.1,312.8,306.5
855.3,1512,19.6,-10.3,12,2.05,149,3.1,306.1,312.8,306.5
854.8,1516,19.6,-10.3,12,2.05,148,3.1,306.2,312.8,306.5
854.3,1521,19.5,-10.3,12,2.05,148,3.1,306.2,312.8,306.5
853.9,1526,19.5,-10.3,12,2.04,148,3.0,306.2,312.8,306.5
853.4,1530,19.5,-10.4,12,2.03,147,3.0,306.2,312.8,306.6
852.9,1535,19.4,-10.4,12,2.03,147,2.9,306.2,312.8,306.6
852.5,1540,19.4,-10.5,12,2.02,146,2.9,306.2,312.8,306.6
852.0,1544,19.4,-10.5,12,2.03,145,2.9,306.2,312.8,306.6
851.6,1549,19.3,-10.4,12,2.03,144,2.9,306.2,312.8,306.6
851.1,1553,19.3,-10.4,12,2.03,143,2.9,306.2,312.8,306.6
850.7,1558,19.2,-10.4,12,2.03,142,2.9,306.2,312.8,306.6
850.3,1562,19.2,-10.5,12,2.03,140,2.9,306.2,312.8,306.6
850.0,1565,19.2,-10.5,12,2.03,140,2.9,306.2,312.8,306.6
849.8,1566,19.2,-10.5,12,2.03,139,2.9,306.2,312.8,306.6
849.4,1571,19.1,-10.5,12,2.03,137,2.9,306.2,312.8,306.6
849.0,1575,19.1,-10.4,13,2.03,135,3.0,306.2,312.9,306.6
848.6,1579,19.1,-10.5,13,2.03,133,3.0,306.3,312.9,306.6
848.2,1583,19.0,-10.5,13,2.03,131,3.1,306.3,312.9,306.6
847.7,1588,19.0,-10.5,13,2.03,129,3.1,306.3,312.9,306.7
847.3,1592,19.0,-10.5,13,2.03,127,3.2,306.3,312.9,306.6
846.8,1597,18.9,-10.5,13,2.03,125,3.3,306.3,312.9,306.6
846.4,1601,18.9,-10.5,13,2.02,123,3.3,306.3,312.9,306.6
846.0,1605,18.8,-10.6,13,2.02,122,3.4,306.3,312.9,306.7
845.6,1609,18.8,-10.6,13,2.02,120,3.5,306.3,312.9,306.7
845.2,1614,18.8,-10.6,13,2.02,118,3.6,306.3,312.9,306.7
844.8,1618,18.7,-10.6,13,2.02,116,3.7,306.3,312.9,306.7
844.3,1622,18.7,-10.6,13,2.01,115,3.7,306.3,312.9,306.7
843.9,1626,18.7,-10.7,13,2.01,113,3.8,306.3,312.9,306.7
843.5,1631,18.6,-10.7,13,2.01,112,3.9,306.3,312.9,306.7
843.0,1635,18.6,-10.8,13,2.00,111,4.0,306.3,312.9,306.7
842.6,1640,18.6,-10.8,13,1.99,109,4.1,306.3,312.8,306.7
842.1,1644,18.5,-10.9,13,1.98,108,4.1,306.4,312.8,306.7
841.7,1649,18.5,-10.9,13,1.98,107,4.2,306.4,312.8,306.7
841.2,1654,18.5,-10.9,13,1.98,106,4.3,306.4,312.8,306.7
840.7,1659,18.4,-10.9,13,1.98,105,4.3,306.4,312.8,306.7
840.2,1664,18.4,-11.0,13,1.97,104,4.4,306.4,312.8,306.8
839.8,1669,18.3,-11.1,12,1.96,103,4.4,306.4,312.8,306.8
839.3,1673,18.3,-11.1,12,1.95,102,4.5,306.4,312.8,306.8
838.8,1678,18.3,-11.1,12,1.95,101,4.5,306.4,312.8,306.8
838.4,1682,18.2,-11.2,12,1.94,100,4.6,306.4,312.8,306.8
838.0,1687,18.2,-11.2,12,1.93,99,4.6,306.4,312.8,306.8
837.6,1691,18.2,-11.3,12,1.93,99,4.7,306.5,312.8,306.8
837.2,1695,18.2,-11.3,12,1.92,98,4.7,306.5,312.8,306.8
836.8,1699,18.1,-11.4,12,1.92,98,4.7,306.5,312.8,306.8
836.4,1703,18.1,-11.4,12,1.92,97,4.8,306.5,312.8,306.9
836.0,1707,18.1,-11.4,12,1.91,97,4.8,306.5,312.8,306.9
835.6,1711,18.0,-11.5,12,1.90,96,4.8,306.5,312.7,306.9
835.1,1716,18.0,-11.6,12,1.89,96,4.8,306.5,312.7,306.9
