PRES,HGHT,TEMP,DWPT,RELH,MIXR,DRCT,SPED,THTA,THTE,THTV
1014.6,31,25.3,21.6,80,16.24,60,4.0,297.2,344.4,300.1
1013.8,37,25.6,21.9,80,16.54,55,3.6,297.6,345.7,300.5
1013.2,43,25.7,22.0,80,16.61,54,3.7,297.7,346.1,300.7
1012.5,49,25.7,21.9,80,16.60,54,3.9,297.8,346.2,300.8
1011.8,55,25.7,21.8,79,16.51,54,4.2,297.9,346.0,300.8
1011.1,61,25.7,21.8,79,16.43,55,4.5,297.9,345.8,300.8
1010.4,67,25.7,21.7,79,16.39,55,4.8,298.0,345.7,300.9
1009.9,72,25.7,21.7,79,16.38,56,5.1,298.0,345.7,300.9
1009.2,77,25.6,21.7,79,16.38,56,5.4,298.0,345.7,300.9
1008.6,83,25.6,21.7,79,16.39,56,5.6,298.0,345.8,300.9
1007.9,89,25.5,21.7,79,16.39,57,5.9,298.0,345.8,300.9
1007.2,95,25.5,21.6,79,16.33,57,6.1,298.0,345.6,300.9
1006.6,101,25.4,21.5,79,16.21,57,6.3,298.0,345.3,300.9
1005.9,106,25.4,21.3,78,16.05,58,6.5,298.0,344.8,300.9
1005.3,112,25.3,21.2,78,15.93,58,6.7,298.0,344.4,300.8
1004.6,118,25.2,21.1,78,15.90,58,6.9,298.0,344.3,300.8
1003.9,124,25.2,21.2,78,15.94,59,7.0,298.0,344.5,300.8
1003.3,129,25.1,21.2,79,16.01,59,7.2,298.0,344.7,300.9
1002.6,135,25.1,21.3,80,16.11,59,7.3,298.0,345.0,300.9
1002.0,141,25.0,21.3,80,16.16,59,7.4,298.0,345.1,300.9
1001.3,147,25.0,21.3,80,16.11,60,7.5,298.0,344.9,300.9
1000.6,153,24.9,21.1,80,15.99,60,7.6,298.0,344.6,300.8
1000.0,158,24.9,21.1,79,15.92,60,7.6,298.0,344.4,300.8
999.9,160,24.9,21.1,79,15.91,60,7.6,298.0,344.4,300.8
999.1,166,24.8,21.0,80,15.89,60,7.7,298.0,344.3,300.8
998.4,172,24.7,21.0,80,15.88,60,7.7,298.0,344.3,300.8
997.7,178,24.7,21.0,80,15.88,61,7.7,298.0,344.3,300.9
997.0,185,24.6,21.0,80,15.89,61,7.7,298.0,344.4,300.9
996.4,190,24.6,21.0,80,15.88,61,7.7,298.0,344.3,300.9
995.7,196,24.5,21.0,81,15.90,61,7.7,298.0,344.4,300.9
995.1,201,24.5,21.0,81,15.97,61,7.7,298.0,344.6,300.9
994.6,206,24.4,21.1,82,16.05,61,7.6,298.0,344.8,300.9
994.0,211,24.4,21.2,82,16.10,61,7.6,298.0,345.0,300.9
993.5,216,24.3,21.2,82,16.12,61,7.6,298.0,345.0,300.9
992.9,221,24.3,21.2,83,16.15,61,7.5,298.0,345.1,300.9
992.4,226,24.2,21.3,84,16.23,61,7.5,298.0,345.3,300.9
991.8,231,24.2,21.3,84,16.30,61,7.4,298.0,345.5,300.9
991.2,236,24.1,21.3,85,16.35,61,7.4,298.0,345.6,300.9
990.6,241,24.1,21.3,85,16.33,61,7.4,298.0,345.6,300.9
990.0,246,24.0,21.2,85,16.26,60,7.3,298.0,345.4,300.9
989.4,252,23.9,21.1,84,16.17,60,7.3,298.0,345.1,300.9
988.9,257,23.9,21.0,84,16.08,60,7.3,298.0,344.8,300.9
988.3,262,23.9,21.0,84,16.00,60,7.2,298.0,344.6,300.9
987.8,267,23.8,20.9,83,15.90,59,7.2,298.0,344.4,300.9
987.2,271,23.8,20.8,83,15.85,59,7.2,298.1,344.3,300.9
986.7,276,23.8,20.8,84,15.91,59,7.2,298.1,344.5,300.9
986.1,281,23.7,21.0,85,16.06,58,7.2,298.1,344.9,300.9
985.6,286,23.7,21.1,86,16.20,58,7.2,298.0,345.3,300.9
985.0,291,23.6,21.2,86,16.29,57,7.2,298.0,345.5,300.9
984.5,296,23.5,21.2,87,16.29,57,7.2,298.0,345.5,300.9
983.9,301,23.5,21.1,87,16.25,56,7.2,298.0,345.4,300.9
983.3,306,23.4,21.1,87,16.22,56,7.2,298.0,345.3,300.9
982.8,311,23.4,21.1,87,16.22,56,7.2,298.0,345.3,300.9
982.2,316,23.3,21.1,87,16.23,55,7.2,298.0,345.3,300.9
981.6,322,23.3,21.1,88,16.24,55,7.2,298.0,345.3,300.9
981.0,327,23.2,21.1,88,16.23,54,7.3,298.0,345.3,300.9
980.4,332,23.2,21.0,88,16.20,54,7.3,298.0,345.2,300.9
979.8,337,23.1,21.0,88,16.18,53,7.3,298.0,345.1,300.9
979.3,342,23.1,21.0,88,16.18,53,7.3,298.0,345.1,300.9
978.7,347,23.0,21.0,88,16.17,53,7.3,298.0,345.1,300.9
978.2,352,23.0,20.9,88,16.15,53,7.3,298.0,345.0,300.8
977.7,356,22.9,21.0,89,16.17,52,7.3,298.0,345.1,300.9
977.2,361,22.9,21.0,89,16.22,52,7.3,298.0,345.2,300.9
976.7,366,22.8,21.0,89,16.21,52,7.3,298.0,345.2,300.9
976.1,370,22.8,20.9,89,16.14,52,7.3,298.0,345.0,300.9
975.6,375,22.8,20.8,89,16.10,52,7.3,298.0,344.9,300.9
975.1,380,22.7,20.9,89,16.15,52,7.3,298.0,345.1,300.9
974.6,384,22.7,21.0,90,16.26,52,7.3,298.0,345.4,300.9
974.1,389,22.6,21.1,91,16.36,52,7.3,298.0,345.7,300.9
973.6,394,22.6,21.1,91,16.40,52,7.3,298.0,345.8,300.9
973.0,398,22.5,21.1,92,16.42,52,7.2,298.0,345.8,300.9
972.5,403,22.5,21.1,92,16.44,53,7.2,298.0,345.9,300.9
972.0,408,22.4,21.1,92,16.45,53,7.2,298.0,345.9,300.9
971.5,412,22.4,21.1,92,16.41,53,7.2,298.0,345.8,300.9
970.9,417,22.3,21.1,93,16.39,53,7.2,298.0,345.7,300.9
970.4,422,22.3,21.0,93,16.37,54,7.2,298.0,345.7,300.9
969.9,426,22.2,21.0,93,16.34,54,7.2,298.0,345.6,300.9
969.4,431,22.2,20.9,93,16.31,54,7.2,298.0,345.5,300.9
968.9,436,22.2,20.9,93,16.27,55,7.2,298.0,345.4,300.9
968.4,440,22.1,20.9,93,16.25,55,7.2,298.0,345.3,300.9
967.8,445,22.1,20.8,93,16.22,55,7.2,298.0,345.3,300.9
967.3,450,22.1,20.8,93,16.20,55,7.2,298.0,345.2,300.9
966.7,455,22.0,20.8,93,16.20,56,7.2,298.0,345.2,300.9
966.1,461,22.0,20.8,93,16.21,56,7.2,298.0,345.3,300.9
965.5,466,21.9,20.8,93,16.19,56,7.2,298.0,345.2,300.9
964.9,472,21.9,20.7,93,16.16,56,7.3,298.0,345.1,300.9
964.2,478,21.8,20.7,93,16.11,56,7.3,298.0,345.0,300.9
963.6,483,21.8,20.6,93,16.06,56,7.3,298.1,344.8,300.9
963.0,489,21.7,20.5,93,15.98,57,7.3,298.1,344.6,300.9
962.4,494,21.7,20.4,93,15.91,57,7.3,298.1,344.4,300.9
961.8,500,21.6,20.4,93,15.90,57,7.3,298.1,344.4,300.9
961.2,505,21.6,20.4,93,15.94,57,7.3,298.1,344.6,300.9
960.7,510,21.5,20.5,94,15.97,57,7.3,298.1,344.6,300.9
960.1,515,21.5,20.4,94,15.95,57,7.4,298.1,344.5,300.9
959.6,519,21.4,20.4,94,15.88,57,7.4,298.1,344.4,300.9
959.1,524,21.4,20.3,94,15.85,56,7.4,298.1,344.3,300.9
958.6,529,21.4,20.3,94,15.83,56,7.4,298.1,344.2,300.9
958.0,534,21.3,20.3,94,15.87,56,7.4,298.1,344.4,300.9
957.5,539,21.3,20.4,95,15.95,56,7.4,298.1,344.6,301.0
957.0,543,21.2,20.4,95,16.00,56,7.5,298.1,344.7,300.9
956.4,548,21.2,20.4,95,15.95,56,7.5,298.1,344.6,300.9
955.9,553,21.1,20.2,94,15.74,56,7.5,298.1,343.9,300.9
955.3,559,21.1,19.9,93,15.45,56,7.5,298.1,343.2,300.9
954.7,564,21.1,19.7,91,15.28,56,7.6,298.2,342.8,300.9
954.2,569,21.1,19.6,91,15.26,56,7.6,298.2,342.7,300.9
953.6,574,21.1,19.7,92,15.28,56,7.7,298.2,342.8,301.0
953.1,579,21.0,19.7,92,15.32,56,7.7,298.2,342.9,301.0
952.5,584,21.0,19.7,92,15.36,56,7.8,298.2,343.0,301.0
952.0,589,20.9,19.7,93,15.33,56,7.8,298.2,342.9,301.0
951.4,594,20.9,19.5,92,15.21,56,7.9,298.2,342.6,301.0
950.8,599,20.8,19.4,92,15.10,56,7.9,298.3,342.3,301.0
950.3,605,20.8,19.3,91,15.03,56,8.0,298.3,342.1,300.9
949.7,610,20.8,19.3,91,14.98,56,8.1,298.3,342.0,301.0
949.1,615,20.7,19.3,91,14.97,56,8.1,298.3,342.0,301.0
948.5,620,20.7,19.3,91,14.98,56,8.2,298.3,342.0,301.0
948.0,625,20.6,19.2,92,14.96,56,8.3,298.3,342.0,301.0
947.4,630,20.6,19.2,91,14.90,56,8.4,298.3,341.8,301.0
946.9,635,20.6,19.1,91,14.86,56,8.4,298.3,341.7,301.0
946.4,640,20.5,19.1,91,14.86,56,8.5,298.3,341.7,301.0
945.8,645,20.5,19.1,92,14.87,57,8.6,298.4,341.8,301.0
945.3,650,20.5,19.1,92,14.84,57,8.7,298.4,341.7,301.0
944.7,655,20.4,19.0,92,14.79,57,8.7,298.4,341.6,301.0
944.1,661,20.4,18.9,91,14.75,57,8.8,298.4,341.4,301.0
943.5,666,20.3,18.9,91,14.72,57,8.9,298.4,341.4,301.0
942.9,672,20.3,18.9,91,14.69,57,9.0,298.4,341.3,301.0
942.3,678,20.3,18.8,91,14.60,58,9.0,298.4,341.1,301.0
941.7,683,20.2,18.6,90,14.47,58,9.1,298.4,340.7,301.0
941.0,689,20.2,18.4,90,14.34,58,9.2,298.5,340.3,301.0
940.4,695,20.1,18.3,89,14.26,58,9.2,298.5,340.1,301.0
939.8,700,20.1,18.3,89,14.23,59,9.3,298.5,340.1,301.1
939.2,706,20.1,18.3,89,14.22,59,9.4,298.5,340.1,301.1
938.7,711,20.0,18.3,89,14.21,59,9.4,298.5,340.1,301.1
938.1,716,20.0,18.3,90,14.24,59,9.5,298.6,340.2,301.1
937.5,721,20.0,18.3,90,14.25,59,9.5,298.6,340.2,301.1
937.0,727,19.9,18.3,90,14.25,60,9.6,298.6,340.2,301.1
936.4,732,19.9,18.3,91,14.26,60,9.6,298.6,340.2,301.1
935.8,738,19.8,18.3,91,14.27,60,9.7,298.6,340.3,301.1
935.2,743,19.8,18.3,91,14.25,60,9.7,298.6,340.3,301.2
934.6,749,19.8,18.2,91,14.24,61,9.8,298.7,340.3,301.2
934.0,754,19.8,18.2,91,14.23,61,9.8,298.7,340.3,301.2
933.4,760,19.7,18.2,91,14.21,61,9.8,298.7,340.2,301.2
932.8,765,19.7,18.1,91,14.17,61,9.9,298.7,340.1,301.2
932.2,770,19.6,18.0,91,14.10,62,9.9,298.7,339.9,301.2
931.7,776,19.6,17.8,89,13.92,62,10.0,298.7,339.4,301.2
931.1,781,19.7,17.5,87,13.65,62,10.0,298.9,338.8,301.3
930.6,786,19.8,17.2,85,13.35,62,10.0,299.0,338.2,301.4
930.0,791,19.9,16.9,83,13.15,63,10.1,299.2,337.8,301.6
929.4,796,20.0,16.9,82,13.11,63,10.1,299.3,337.8,301.6
928.9,802,19.9,16.9,83,13.14,63,10.1,299.3,337.9,301.7
928.3,807,19.9,16.9,83,13.15,63,10.2,299.3,337.9,301.7
927.7,813,19.8,16.9,83,13.13,63,10.2,299.3,337.9,301.7
927.1,818,19.8,16.8,83,13.09,64,10.3,299.3,337.8,301.7
926.6,823,19.7,16.7,83,13.02,64,10.3,299.3,337.6,301.7
926.0,828,19.7,16.6,83,12.98,64,10.3,299.4,337.5,301.7
925.5,833,19.7,16.6,83,12.96,64,10.4,299.4,337.4,301.7
925.0,838,19.6,16.6,83,12.94,64,10.4,299.4,337.4,301.7
924.9,838,19.6,16.6,83,12.94,64,10.4,299.4,337.4,301.7
924.4,843,19.6,16.6,83,12.92,64,10.4,299.4,337.3,301.7
923.9,848,19.5,16.5,83,12.91,64,10.4,299.4,337.3,301.7
923.3,854,19.5,16.5,83,12.91,64,10.5,299.4,337.3,301.7
922.7,859,19.5,16.5,83,12.91,64,10.5,299.4,337.3,301.7
922.2,864,19.4,16.5,83,12.88,64,10.5,299.4,337.2,301.7
921.6,869,19.4,16.4,83,12.86,64,10.5,299.4,337.2,301.7
921.0,875,19.3,16.4,83,12.85,64,10.5,299.4,337.1,301.7
920.5,880,19.3,16.4,84,12.86,64,10.5,299.4,337.2,301.7
919.9,885,19.2,16.4,84,12.86,64,10.5,299.4,337.2,301.7
919.3,891,19.2,16.4,84,12.85,64,10.5,299.4,337.2,301.7
918.8,896,19.1,16.4,84,12.84,64,10.5,299.4,337.1,301.7
918.2,901,19.1,16.4,84,12.85,64,10.5,299.4,337.1,301.7
917.6,907,19.0,16.3,84,12.84,64,10.5,299.4,337.2,301.8
917.0,912,19.0,16.3,84,12.81,64,10.5,299.5,337.1,301.8
916.4,918,19.0,16.2,84,12.78,64,10.5,299.5,337.1,301.8
915.8,924,19.0,16.2,84,12.77,64,10.5,299.6,337.1,301.9
915.2,929,19.0,16.2,84,12.75,64,10.4,299.6,337.1,301.9
914.6,935,18.9,16.2,84,12.74,64,10.4,299.6,337.0,301.9
914.0,941,18.9,16.2,84,12.76,64,10.4,299.6,337.1,301.9
913.4,947,18.8,16.3,85,12.83,64,10.3,299.6,337.3,301.9
912.8,953,18.7,16.3,86,12.91,64,10.3,299.6,337.6,301.9
912.2,958,18.7,16.4,87,12.99,64,10.3,299.6,337.8,301.9
911.5,964,18.7,16.5,87,13.07,64,10.2,299.6,338.0,302.0
910.9,970,18.6,16.6,88,13.14,64,10.2,299.6,338.2,302.0
910.3,976,18.6,16.6,89,13.20,64,10.1,299.6,338.4,302.0
909.7,981,18.5,16.7,89,13.22,65,10.1,299.7,338.5,302.0
909.1,987,18.5,16.6,89,13.21,65,10.0,299.7,338.5,302.0
908.5,993,18.4,16.6,89,13.21,65,10.0,299.7,338.5,302.1
907.9,999,18.4,16.6,89,13.20,65,9.9,299.7,338.5,302.1
907.3,1004,18.3,16.5,89,13.16,65,9.9,299.7,338.4,302.1
906.7,1010,18.3,16.5,89,13.14,65,9.9,299.7,338.3,302.1
906.1,1016,18.3,16.5,89,13.13,66,9.8,299.7,338.3,302.1
905.5,1021,18.2,16.4,89,13.11,66,9.8,299.7,338.3,302.1
904.9,1027,18.2,16.4,89,13.07,66,9.8,299.8,338.2,302.1
904.3,1032,18.1,16.4,89,13.05,66,9.8,299.8,338.1,302.1
903.8,1038,18.1,16.3,89,13.03,66,9.7,299.8,338.1,302.1
903.2,1043,18.0,16.3,90,13.01,66,9.7,299.8,338.0,302.1
902.7,1048,18.0,16.2,89,12.94,67,9.7,299.8,337.9,302.1
902.2,1053,18.0,16.1,89,12.85,67,9.7,299.8,337.6,302.1
901.7,1057,18.0,16.0,88,12.78,67,9.7,299.9,337.5,302.2
901.2,1062,18.0,16.0,88,12.76,67,9.7,299.9,337.5,302.2
900.7,1067,18.0,16.0,88,12.78,67,9.7,300.0,337.6,302.3
900.3,1071,18.0,16.0,88,12.80,67,9.7,300.0,337.7,302.3
899.8,1076,17.9,16.0,88,12.78,66,9.7,300.0,337.6,302.3
899.3,1080,18.0,15.9,88,12.76,66,9.7,300.1,337.6,302.4
898.8,1085,18.0,15.9,88,12.77,66,9.7,300.2,337.8,302.5
898.3,1090,18.0,15.9,87,12.76,66,9.7,300.2,337.9,302.5
897.9,1094,18.0,15.9,87,12.75,65,9.8,300.3,337.8,302.6
897.4,1099,18.0,15.9,87,12.73,65,9.8,300.3,337.8,302.6
896.9,1104,17.9,15.8,87,12.72,65,9.8,300.3,337.8,302.6
896.3,1109,17.9,15.8,88,12.73,64,9.8,300.3,337.8,302.6
895.8,1114,17.9,15.8,88,12.71,64,9.8,300.3,337.8,302.6
895.3,1119,17.8,15.8,88,12.67,64,9.8,300.3,337.7,302.6
894.7,1124,17.8,15.7,88,12.63,63,9.8,300.3,337.6,302.6
894.2,1129,17.7,15.7,88,12.61,63,9.8,300.3,337.5,302.6
893.6,1135,17.7,15.6,88,12.61,62,9.8,300.3,337.5,302.6
893.1,1140,17.6,15.6,88,12.58,62,9.9,300.3,337.4,302.6
892.5,1145,17.6,15.6,88,12.55,61,9.9,300.3,337.3,302.6
892.0,1151,17.5,15.5,88,12.52,61,9.9,300.3,337.2,302.6
891.4,1156,17.5,15.5,88,12.49,60,9.9,300.4,337.2,302.6
890.9,1161,17.5,15.5,88,12.49,60,9.9,300.4,337.2,302.6
890.4,1165,17.5,15.5,88,12.51,60,9.9,300.4,337.3,302.7
890.0,1170,17.4,15.5,88,12.51,59,9.9,300.4,337.3,302.7
889.5,1174,17.4,15.4,88,12.50,59,9.9,300.4,337.3,302.7
889.0,1179,17.3,15.4,88,12.49,59,9.9,300.4,337.2,302.7
888.5,1184,17.3,15.4,89,12.49,58,9.9,300.4,337.3,302.7
888.0,1188,17.3,15.4,89,12.52,58,9.9,300.4,337.4,302.7
887.5,1193,17.2,15.5,89,12.54,58,9.9,300.5,337.5,302.7
887.0,1198,17.2,15.4,89,12.51,58,9.9,300.4,337.4,302.7
886.5,1203,17.1,15.3,89,12.46,58,9.9,300.4,337.2,302.7
886.0,1208,17.1,15.3,89,12.42,58,9.9,300.4,337.1,302.7
885.5,1213,17.1,15.3,89,12.42,58,9.9,300.5,337.1,302.7
885.0,1218,17.0,15.3,90,12.45,58,9.9,300.5,337.2,302.7
884.5,1222,17.0,15.3,90,12.46,58,9.9,300.5,337.2,302.7
884.0,1228,16.9,15.3,90,12.43,58,9.9,300.5,337.2,302.7
883.4,1233,16.9,15.2,90,12.38,58,9.9,300.5,337.0,302.7
882.9,1238,16.9,15.2,90,12.38,58,9.9,300.5,337.1,302.8
882.3,1244,16.8,15.2,90,12.41,58,9.9,300.5,337.1,302.8
881.8,1249,16.7,15.2,91,12.40,59,9.9,300.5,337.1,302.7
881.2,1254,16.7,15.1,90,12.35,59,9.9,300.5,336.9,302.7
880.7,1260,16.6,15.0,90,12.26,59,9.9,300.5,336.7,302.7
880.2,1265,16.6,14.8,89,12.13,59,9.9,300.5,336.4,302.7
879.7,1269,16.6,14.7,88,12.03,60,9.9,300.6,336.1,302.8
879.2,1274,16.7,14.6,88,12.00,60,10.0,300.7,336.1,302.8
878.7,1279,16.6,14.6,88,12.00,60,10.0,300.7,336.2,302.9
878.2,1283,16.6,14.6,88,12.00,61,10.0,300.7,336.2,302.9
877.8,1288,16.6,14.6,88,11.99,61,10.0,300.7,336.1,302.9
877.3,1292,16.5,14.6,88,12.00,61,10.0,300.7,336.2,302.9
876.8,1297,16.5,14.6,89,12.02,61,10.0,300.7,336.2,302.9
876.4,1301,16.5,14.6,89,12.02,62,10.0,300.7,336.3,302.9
875.9,1306,16.4,14.6,89,12.02,62,10.0,300.8,336.3,302.9
875.5,1310,16.4,14.6,89,12.01,62,10.0,300.8,336.3,302.9
875.1,1314,16.4,14.6,89,12.00,62,10.1,300.8,336.3,302.9
874.6,1318,16.4,14.5,89,11.99,63,10.1,300.8,336.3,303.0
874.2,1323,16.3,14.5,89,11.97,63,10.1,300.8,336.2,303.0
873.8,1327,16.3,14.5,89,11.95,63,10.1,300.8,336.2,303.0
873.4,1331,16.3,14.5,89,11.97,63,10.1,300.8,336.2,303.0
872.9,1335,16.3,14.5,89,11.99,63,10.1,300.9,336.3,303.0
872.5,1339,16.2,14.5,90,12.00,63,10.1,300.9,336.3,303.0
872.1,1343,16.2,14.5,90,11.96,63,10.1,300.8,336.2,303.0
871.6,1348,16.1,14.4,89,11.91,63,10.1,300.8,336.1,303.0
871.2,1352,16.1,14.3,89,11.86,64,10.1,300.9,335.9,303.0
870.8,1356,16.0,14.3,89,11.85,64,10.1,300.8,335.9,303.0
870.4,1360,16.0,14.3,89,11.83,64,10.1,300.9,335.9,303.0
870.0,1364,16.0,14.3,89,11.83,64,10.1,300.9,335.9,303.0
869.6,1367,16.0,14.3,90,11.83,64,10.1,300.9,335.9,303.0
869.3,1371,15.9,14.3,90,11.84,64,10.1,300.9,335.9,303.0
868.9,1375,15.9,14.3,90,11.86,64,10.2,300.9,336.0,303.0
868.5,1378,15.9,14.3,90,11.86,63,10.2,300.9,336.0,303.0
868.1,1382,15.8,14.3,90,11.86,63,10.2,300.9,336.0,303.0
867.8,1386,15.8,14.3,91,11.87,63,10.3,300.9,336.0,303.0
867.3,1390,15.8,14.3,91,11.86,63,10.3,300.9,336.0,303.0
866.9,1394,15.7,14.2,91,11.86,63,10.4,300.9,336.0,303.0
866.5,1398,15.7,14.2,91,11.85,63,10.4,300.9,336.0,303.1
866.1,1402,15.7,14.2,91,11.86,63,10.5,300.9,336.0,303.1
865.6,1407,15.6,14.2,91,11.86,62,10.6,300.9,336.0,303.1
865.2,1411,15.6,14.2,92,11.87,62,10.7,300.9,336.0,303.1
864.7,1416,15.5,14.2,92,11.85,62,10.7,300.9,336.0,303.1
864.3,1420,15.5,14.1,91,11.81,62,10.8,300.9,335.9,303.1
863.8,1424,15.5,14.1,91,11.79,62,10.9,301.0,335.9,303.1
863.4,1429,15.5,14.1,91,11.76,61,11.0,301.0,335.8,303.1
863.0,1433,15.4,14.0,91,11.71,61,11.1,301.0,335.6,303.1
862.5,1437,15.4,13.9,91,11.64,61,11.2,301.0,335.4,303.1
862.1,1442,15.3,13.8,91,11.60,61,11.3,301.0,335.3,303.1
861.7,1446,15.3,13.8,91,11.59,60,11.4,301.0,335.3,303.1
861.2,1450,15.3,13.8,91,11.60,60,11.5,301.0,335.3,303.1
860.8,1454,15.3,13.8,91,11.62,60,11.6,301.0,335.4,303.1
860.4,1458,15.2,13.9,92,11.66,60,11.6,301.0,335.5,303.1
860.0,1462,15.2,13.9,92,11.69,59,11.7,301.0,335.7,303.2
859.6,1466,15.2,13.9,92,11.71,59,11.8,301.1,335.7,303.2
859.2,1470,15.1,13.9,93,11.73,59,11.8,301.1,335.8,303.2
858.7,1475,15.1,13.9,93,11.70,59,11.9,301.1,335.7,303.2
858.2,1480,15.1,13.8,92,11.66,58,11.9,301.1,335.6,303.2
857.7,1485,15.0,13.8,92,11.62,58,11.9,301.1,335.5,303.2
857.2,1490,15.0,13.7,92,11.59,58,11.9,301.1,335.5,303.2
856.7,1495,15.0,13.7,92,11.56,58,12.0,301.2,335.4,303.3
856.2,1500,15.0,13.6,91,11.49,58,12.0,301.2,335.3,303.3
855.7,1505,15.0,13.4,91,11.40,58,12.0,301.2,335.1,303.3
855.2,1510,15.0,13.3,90,11.31,58,12.0,301.3,334.8,303.3
854.7,1515,15.0,13.3,89,11.27,58,12.0,301.4,334.8,303.4
854.2,1520,15.0,13.2,89,11.26,58,12.0,301.4,334.8,303.4
853.7,1525,15.0,13.2,89,11.25,58,12.0,301.5,334.9,303.5
853.2,1530,15.0,13.2,89,11.25,58,12.0,301.5,334.9,303.5
852.7,1535,14.9,13.1,89,11.20,57,11.9,301.5,334.8,303.5
852.2,1539,15.0,13.0,88,11.13,57,11.9,301.6,334.6,303.6
851.8,1543,15.0,12.9,88,11.06,57,11.9,301.6,334.5,303.6
851.4,1548,15.0,12.8,87,11.00,57,11.9,301.7,334.4,303.7
851.0,1552,15.0,12.8,86,10.95,57,11.9,301.8,334.3,303.8
850.5,1556,15.1,12.7,86,10.91,57,11.9,301.9,334.4,303.9
850.1,1561,15.1,12.6,85,10.88,57,11.9,302.0,334.4,304.0
850.0,1562,15.1,12.6,85,10.88,57,11.9,302.0,334.4,304.0
849.6,1566,15.2,12.6,84,10.83,57,11.9,302.1,334.3,304.0
849.1,1571,15.1,12.5,84,10.76,57,11.9,302.1,334.2,304.0
848.6,1576,15.1,12.4,84,10.71,57,11.9,302.1,334.0,304.0
848.0,1581,15.1,12.3,84,10.69,57,11.9,302.1,334.0,304.1
847.5,1587,15.1,12.3,84,10.68,57,11.9,302.2,334.0,304.1
846.9,1592,15.0,12.3,84,10.67,57,12.0,302.2,334.0,304.1
846.4,1598,15.0,12.2,84,10.62,56,12.0,302.2,333.9,304.1
845.8,1604,14.9,12.1,83,10.56,56,12.0,302.2,333.7,304.1
845.2,1609,14.9,12.0,83,10.50,56,11.9,302.2,333.5,304.1
844.7,1615,14.9,12.0,83,10.46,56,11.9,302.2,333.4,304.1
844.1,1621,14.8,11.9,83,10.45,55,11.9,302.3,333.4,304.2
843.5,1627,14.8,11.9,83,10.45,55,11.9,302.3,333.5,304.2
842.9,1633,14.8,11.8,83,10.39,55,11.9,302.3,333.3,304.2
842.3,1639,14.8,11.6,81,10.23,54,11.9,302.4,333.0,304.3
841.7,1645,14.8,11.3,79,10.03,54,11.9,302.5,332.5,304.3
841.1,1650,14.8,11.1,78,9.90,54,11.8,302.6,332.2,304.4
840.6,1656,14.8,11.1,78,9.91,53,11.8,302.6,332.3,304.4
840.0,1661,14.8,11.1,79,9.95,53,11.8,302.7,332.4,304.5
839.5,1667,14.8,11.1,79,9.95,53,11.7,302.7,332.5,304.5
839.0,1672,14.7,11.1,79,9.96,52,11.7,302.7,332.5,304.5
838.5,1677,14.7,11.2,80,10.03,52,11.6,302.7,332.7,304.5
838.0,1682,14.7,11.4,81,10.14,52,11.6,302.7,333.1,304.6
837.5,1687,14.6,11.4,81,10.18,51,11.6,302.7,333.2,304.6
837.0,1692,14.6,11.3,81,10.10,51,11.5,302.7,333.0,304.6
836.6,1697,14.6,11.0,79,9.89,51,11.5,302.8,332.4,304.6
836.1,1702,14.7,10.6,77,9.65,51,11.4,302.9,331.8,304.7
835.6,1707,14.7,10.4,75,9.50,51,11.4,303.0,331.5,304.7
835.1,1712,14.7,10.2,75,9.42,50,11.4,303.0,331.3,304.8
834.5,1717,14.7,10.1,74,9.31,50,11.4,303.1,331.0,304.8
834.0,1722,14.6,9.8,73,9.17,50,11.4,303.1,330.7,304.8
833.5,1728,14.6,9.6,72,9.04,50,11.3,303.2,330.3,304.8
833.0,1733,14.6,9.4,71,8.95,51,11.3,303.2,330.1,304.8
832.5,1737,14.6,9.2,70,8.82,51,11.3,303.2,329.8,304.8
832.1,1742,14.7,8.9,68,8.64,51,11.3,303.3,329.4,304.9
831.7,1747,14.7,8.5,66,8.42,51,11.3,303.4,328.8,305.0
831.2,1751,14.7,8.0,64,8.13,51,11.3,303.5,328.1,305.0
830.8,1755,14.8,7.3,61,7.76,52,11.3,303.7,327.2,305.1
830.4,1760,15.0,6.7,57,7.44,52,11.3,303.9,326.5,305.3
829.9,1764,15.2,6.3,56,7.26,53,11.3,304.1,326.2,305.4
829.5,1769,15.2,6.2,55,7.18,53,11.3,304.2,326.1,305.5
829.0,1773,15.3,6.1,54,7.12,53,11.2,304.3,326.0,305.6
828.5,1778,15.3,5.9,54,7.07,54,11.2,304.3,325.9,305.6
828.0,1784,15.2,5.8,53,6.99,54,11.2,304.4,325.7,305.6
827.5,1789,15.2,5.5,52,6.85,55,11.2,304.4,325.3,305.6
827.0,1794,15.3,5.0,50,6.63,56,11.1,304.5,324.8,305.7
826.5,1800,15.3,4.6,49,6.43,56,11.1,304.6,324.3,305.8
825.9,1805,15.4,4.2,47,6.26,57,11.0,304.7,323.9,305.9
825.4,1811,15.4,3.7,46,6.06,58,11.0,304.8,323.4,305.9
824.9,1816,15.4,3.2,44,5.85,58,10.9,304.9,322.9,306.0
824.4,1821,15.5,2.9,43,5.73,59,10.9,305.0,322.7,306.1
823.9,1826,15.6,3.0,43,5.77,60,10.8,305.1,322.9,306.2
823.4,1831,15.6,3.3,44,5.90,60,10.8,305.2,323.3,306.3
822.9,1836,15.5,3.5,45,6.01,61,10.7,305.2,323.7,306.3
822.4,1841,15.5,3.6,45,6.03,62,10.7,305.2,323.8,306.3
822.0,1846,15.5,3.4,44,5.94,63,10.6,305.2,323.5,306.3
