PRES,HGHT,TEMP,DWPT,RELH,MIXR,DRCT,SPED,THTA,THTE,THTV
1016.3,31,23.8,20.6,82,15.16,73,8.1,295.6,339.3,298.3
1015.8,35,24.1,20.1,78,14.75,73,5.8,296.0,338.6,298.6
1015.4,38,24.1,19.9,78,14.56,73,5.7,295.9,338.0,298.5
1014.8,43,24.0,19.7,76,14.34,73,5.9,295.9,337.4,298.5
1014.2,49,24.0,19.3,75,14.05,73,6.4,296.0,336.6,298.5
1013.6,54,24.0,18.9,73,13.66,73,6.9,296.0,335.5,298.4
1013.0,59,23.9,18.5,72,13.37,73,7.3,296.0,334.7,298.3
1012.5,63,23.9,18.4,71,13.26,73,7.7,296.0,334.3,298.3
1012.0,68,23.9,18.3,71,13.18,73,8.1,296.0,334.2,298.3
1011.5,72,23.9,18.3,71,13.16,73,8.5,296.0,334.1,298.4
1010.9,77,23.8,18.3,71,13.24,72,8.8,296.1,334.4,298.4
1010.4,81,23.8,18.4,72,13.30,72,9.1,296.0,334.5,298.4
1009.9,86,23.7,18.5,73,13.41,72,9.4,296.0,334.8,298.4
1009.4,91,23.7,18.8,74,13.64,72,9.7,296.0,335.5,298.4
1008.8,95,23.6,18.8,75,13.70,72,9.9,296.0,335.7,298.5
1008.2,100,23.6,18.6,73,13.48,72,10.1,296.0,335.1,298.4
1007.7,105,23.6,18.3,72,13.22,71,10.3,296.1,334.4,298.4
1007.1,110,23.6,18.1,71,13.10,71,10.5,296.1,334.0,298.4
1006.5,115,23.5,18.1,72,13.10,71,10.6,296.1,334.1,298.5
1006.0,120,23.5,18.2,72,13.16,70,10.7,296.1,334.3,298.5
1005.5,124,23.5,18.3,73,13.24,70,10.8,296.1,334.5,298.5
1005.0,129,23.4,18.3,73,13.28,70,10.9,296.1,334.6,298.5
1004.5,133,23.4,18.3,73,13.25,69,10.9,296.1,334.5,298.5
1004.1,136,23.3,18.3,73,13.28,69,11.0,296.1,334.6,298.5
1003.7,140,23.3,18.4,74,13.41,68,11.0,296.1,335.0,298.5
1003.2,144,23.3,18.6,75,13.57,68,11.0,296.2,335.4,298.6
1002.8,148,23.3,18.7,76,13.68,68,11.1,296.2,335.8,298.6
1002.3,152,23.2,18.8,76,13.78,67,11.1,296.2,336.1,298.6
1001.9,156,23.2,19.0,77,13.91,67,11.1,296.2,336.5,298.7
1001.4,160,23.2,19.1,78,14.01,66,11.1,296.2,336.7,298.7
1000.9,164,23.1,19.1,78,14.05,66,11.1,296.2,336.9,298.7
1000.5,168,23.1,19.1,78,14.07,66,11.1,296.2,336.9,298.7
1000.0,172,23.0,19.1,79,14.09,66,11.1,296.2,337.0,298.7
999.9,173,23.0,19.1,79,14.09,65,11.1,296.2,337.0,298.7
999.4,177,23.0,19.2,79,14.13,65,11.1,296.2,337.1,298.7
998.8,182,23.0,19.2,79,14.13,65,11.2,296.2,337.1,298.7
998.2,188,22.9,19.2,79,14.14,65,11.2,296.2,337.2,298.7
997.6,193,22.9,19.2,80,14.16,65,11.2,296.2,337.2,298.7
997.0,199,22.8,19.2,80,14.21,64,11.2,296.2,337.3,298.7
996.3,204,22.8,19.2,81,14.23,64,11.3,296.2,337.4,298.7
995.7,210,22.7,19.2,81,14.19,64,11.3,296.2,337.3,298.7
995.0,216,22.6,19.1,81,14.14,64,11.3,296.2,337.1,298.7
994.4,221,22.6,19.1,81,14.12,64,11.4,296.2,337.1,298.7
993.8,226,22.5,19.0,81,14.09,64,11.4,296.2,337.0,298.7
993.2,232,22.5,19.0,80,14.03,64,11.4,296.2,336.8,298.7
992.5,238,22.5,18.9,80,13.99,64,11.5,296.2,336.7,298.7
991.9,243,22.4,19.0,81,14.05,64,11.5,296.2,336.9,298.7
991.2,249,22.3,19.1,82,14.15,64,11.5,296.2,337.2,298.7
990.6,255,22.3,19.1,82,14.17,64,11.5,296.2,337.2,298.7
989.9,261,22.2,19.0,82,14.10,64,11.6,296.2,337.0,298.7
989.3,266,22.1,18.9,82,13.99,64,11.6,296.2,336.7,298.7
988.7,272,22.1,18.7,81,13.89,64,11.6,296.2,336.4,298.7
988.1,277,22.1,18.7,81,13.85,64,11.6,296.2,336.3,298.7
987.6,281,22.0,18.8,82,13.92,64,11.6,296.2,336.5,298.7
987.0,286,22.0,18.7,82,13.92,64,11.6,296.2,336.5,298.7
986.5,291,22.0,18.7,82,13.85,64,11.5,296.2,336.3,298.7
985.9,296,21.9,18.6,82,13.83,64,11.5,296.3,336.3,298.7
985.4,301,21.9,18.7,82,13.88,64,11.5,296.3,336.4,298.7
984.8,306,21.8,18.8,83,13.97,64,11.5,296.3,336.7,298.7
984.3,311,21.7,18.8,83,14.01,64,11.4,296.2,336.8,298.7
983.7,316,21.7,18.6,83,13.87,64,11.4,296.2,336.4,298.7
983.1,321,21.7,18.5,82,13.75,64,11.4,296.3,336.1,298.7
982.6,326,21.6,18.5,82,13.78,64,11.3,296.3,336.2,298.7
982.0,331,21.6,18.5,83,13.79,64,11.3,296.3,336.2,298.7
981.4,335,21.5,18.5,83,13.81,64,11.3,296.3,336.2,298.7
980.9,340,21.5,18.7,84,13.93,64,11.2,296.3,336.6,298.8
980.3,345,21.4,18.8,85,14.07,64,11.2,296.3,337.0,298.8
979.8,350,21.4,18.9,86,14.13,64,11.1,296.3,337.1,298.8
979.3,355,21.3,18.9,86,14.15,64,11.1,296.2,337.2,298.7
978.8,359,21.3,18.8,86,14.12,64,11.1,296.2,337.1,298.7
978.3,364,21.3,18.7,86,14.04,64,11.0,296.3,336.9,298.7
977.7,368,21.2,18.7,86,14.04,64,11.0,296.3,336.9,298.8
977.2,373,21.2,18.9,87,14.16,64,11.0,296.3,337.3,298.8
976.7,377,21.1,19.0,88,14.30,65,11.0,296.3,337.6,298.8
976.3,382,21.1,19.0,88,14.35,65,11.0,296.3,337.8,298.8
975.8,386,21.0,19.0,88,14.34,65,10.9,296.2,337.7,298.8
975.3,390,21.0,18.9,88,14.24,65,10.9,296.2,337.5,298.8
974.8,395,21.0,18.8,88,14.16,65,10.9,296.3,337.2,298.8
974.3,399,20.9,18.9,88,14.20,65,10.9,296.3,337.4,298.8
973.8,403,20.9,18.9,89,14.29,66,10.8,296.3,337.6,298.8
973.3,408,20.8,18.9,89,14.26,66,10.8,296.3,337.5,298.8
972.8,412,20.8,18.7,88,14.05,66,10.8,296.3,336.9,298.8
972.3,417,20.8,18.3,85,13.72,66,10.7,296.3,336.1,298.8
971.7,422,20.9,18.0,83,13.46,67,10.7,296.4,335.5,298.8
971.2,427,20.9,17.9,83,13.38,67,10.7,296.5,335.3,298.9
970.6,432,20.9,17.9,83,13.43,67,10.6,296.5,335.5,298.9
970.1,437,20.8,18.0,84,13.51,67,10.6,296.5,335.7,298.9
969.5,442,20.8,18.0,84,13.55,67,10.6,296.5,335.8,298.9
969.0,447,20.7,18.0,85,13.53,67,10.5,296.5,335.7,298.9
968.4,451,20.6,17.8,84,13.40,67,10.5,296.5,335.3,298.9
967.9,456,20.6,17.6,83,13.17,67,10.5,296.5,334.7,298.9
967.4,461,20.7,17.3,81,12.93,67,10.4,296.6,334.1,298.9
966.9,465,20.7,17.1,80,12.78,67,10.4,296.7,333.8,299.0
966.4,469,20.7,17.0,79,12.72,67,10.4,296.7,333.7,299.0
966.0,473,20.7,16.9,79,12.65,67,10.4,296.8,333.5,299.0
965.5,477,20.7,16.8,78,12.57,67,10.4,296.8,333.3,299.0
965.1,481,20.7,16.8,78,12.56,67,10.4,296.8,333.3,299.1
964.6,486,20.6,16.9,79,12.68,67,10.4,296.8,333.6,299.1
964.1,490,20.6,17.1,80,12.81,67,10.4,296.8,334.0,299.1
963.6,494,20.5,17.2,82,12.95,66,10.5,296.8,334.3,299.1
963.1,499,20.4,17.4,83,13.05,66,10.5,296.7,334.6,299.0
962.6,503,20.3,17.3,83,13.03,66,10.6,296.7,334.5,299.0
962.1,508,20.3,17.1,82,12.84,66,10.7,296.7,333.9,299.0
961.6,512,20.3,16.9,81,12.67,66,10.8,296.7,333.5,299.0
961.2,517,20.3,16.8,80,12.58,66,10.9,296.7,333.3,299.0
960.7,521,20.3,16.7,80,12.56,66,11.0,296.8,333.3,299.0
960.2,525,20.2,16.7,80,12.58,66,11.1,296.8,333.4,299.1
959.7,530,20.2,16.8,81,12.61,67,11.2,296.8,333.4,299.1
959.2,534,20.2,16.8,81,12.62,67,11.3,296.8,333.5,299.1
958.7,539,20.1,16.8,81,12.66,67,11.4,296.8,333.6,299.1
958.2,543,20.0,16.8,82,12.70,68,11.5,296.8,333.7,299.0
957.7,548,20.0,16.8,82,12.67,68,11.6,296.8,333.5,299.0
957.2,552,20.0,16.7,82,12.59,69,11.7,296.8,333.4,299.0
956.7,557,19.9,16.6,81,12.55,70,11.7,296.8,333.3,299.1
956.2,561,19.9,16.7,82,12.58,70,11.8,296.8,333.4,299.1
955.7,566,19.9,16.7,82,12.63,71,11.9,296.8,333.5,299.1
955.2,571,19.8,16.8,83,12.69,72,11.9,296.8,333.7,299.1
954.7,575,19.7,16.8,83,12.69,73,11.9,296.8,333.7,299.0
954.2,580,19.7,16.7,83,12.63,74,12.0,296.8,333.5,299.0
953.7,584,19.7,16.6,82,12.54,74,12.0,296.8,333.2,299.0
953.1,589,19.7,16.5,82,12.45,75,11.9,296.8,333.0,299.1
952.6,594,19.6,16.4,81,12.38,76,11.9,296.9,332.9,299.1
952.1,598,19.6,16.3,81,12.31,77,11.9,296.9,332.7,299.1
951.6,603,19.6,16.2,81,12.27,77,11.8,296.9,332.6,299.1
951.1,607,19.6,16.3,81,12.32,78,11.8,297.0,332.8,299.2
950.6,612,19.5,16.4,82,12.47,79,11.7,297.0,333.2,299.2
950.1,617,19.4,16.7,84,12.66,79,11.6,296.9,333.7,299.1
949.6,621,19.3,16.6,84,12.61,79,11.6,296.8,333.4,299.1
949.1,626,19.3,16.3,82,12.34,80,11.5,296.9,332.7,299.1
948.6,630,19.4,16.0,80,12.11,80,11.4,297.0,332.2,299.1
948.1,635,19.4,15.9,80,12.04,80,11.3,297.0,332.1,299.2
947.5,640,19.4,15.9,80,12.07,80,11.2,297.1,332.2,299.2
946.9,645,19.3,16.0,81,12.14,80,11.2,297.1,332.4,299.2
946.4,651,19.3,16.0,82,12.20,79,11.1,297.0,332.5,299.2
945.7,656,19.2,16.1,82,12.28,79,11.0,297.0,332.7,299.2
945.1,663,19.1,16.3,84,12.42,79,11.0,297.0,333.1,299.2
944.4,669,19.0,16.5,85,12.60,78,11.0,297.0,333.6,299.2
943.7,675,18.9,16.7,87,12.75,77,10.9,296.9,334.0,299.2
942.9,682,18.8,16.8,88,12.86,77,10.9,296.9,334.2,299.2
942.2,688,18.6,16.9,89,12.93,76,10.9,296.8,334.3,299.1
941.5,695,18.5,16.8,90,12.88,75,11.0,296.7,334.1,299.0
940.9,701,18.5,16.4,88,12.57,75,11.0,296.8,333.3,299.0
940.2,707,18.7,15.8,84,12.12,74,11.1,297.0,332.3,299.2
939.6,712,18.8,15.4,81,11.82,73,11.1,297.2,331.6,299.3
939.0,718,18.8,15.4,80,11.78,73,11.2,297.3,331.6,299.4
938.4,724,18.8,15.5,81,11.87,72,11.3,297.3,331.8,299.4
937.8,729,18.7,15.6,82,11.93,71,11.3,297.3,332.0,299.4
937.2,735,18.7,15.6,82,11.95,71,11.4,297.3,332.1,299.4
936.5,740,18.6,15.6,82,11.96,70,11.5,297.3,332.1,299.4
935.9,746,18.6,15.6,83,11.99,70,11.6,297.3,332.2,299.4
935.3,752,18.5,15.6,83,12.00,70,11.7,297.3,332.2,299.4
934.6,758,18.4,15.6,83,11.99,69,11.7,297.3,332.2,299.4
934.0,764,18.4,15.5,83,11.95,69,11.8,297.3,332.1,299.4
933.4,770,18.4,15.5,83,11.94,69,11.9,297.3,332.1,299.5
932.7,775,18.3,15.5,84,11.95,69,11.9,297.3,332.1,299.5
932.1,781,18.2,15.5,84,11.95,69,12.0,297.3,332.1,299.4
931.5,787,18.2,15.5,84,11.97,68,12.0,297.3,332.2,299.4
930.9,792,18.2,15.5,84,11.98,68,12.1,297.3,332.2,299.5
930.3,798,18.1,15.5,85,11.97,68,12.1,297.3,332.2,299.5
929.7,803,18.1,15.4,85,11.94,68,12.1,297.3,332.2,299.5
929.2,808,18.0,15.4,84,11.90,68,12.1,297.4,332.1,299.5
928.6,814,18.0,15.3,84,11.87,68,12.1,297.4,332.0,299.5
928.0,819,18.0,15.3,84,11.84,68,12.1,297.4,331.9,299.5
927.4,825,17.9,15.3,84,11.83,68,12.1,297.4,331.9,299.5
926.8,830,17.9,15.3,85,11.84,68,12.1,297.4,331.9,299.5
926.3,835,17.8,15.3,85,11.86,68,12.1,297.4,331.9,299.5
925.7,841,17.8,15.3,85,11.86,68,12.1,297.4,331.9,299.5
925.1,846,17.7,15.2,86,11.86,68,12.1,297.4,331.9,299.5
925.0,847,17.7,15.2,86,11.86,68,12.1,297.4,331.9,299.5
924.5,852,17.6,15.2,86,11.86,68,12.1,297.4,331.9,299.5
923.9,857,17.6,15.2,86,11.86,68,12.1,297.4,332.0,299.5
923.4,862,17.5,15.3,87,11.90,68,12.1,297.4,332.1,299.5
922.8,867,17.4,15.3,87,11.93,68,12.1,297.3,332.1,299.5
922.2,873,17.4,15.3,87,11.92,68,12.1,297.4,332.1,299.5
921.7,878,17.4,15.2,87,11.90,68,12.1,297.4,332.1,299.5
921.1,883,17.3,15.2,87,11.87,68,12.1,297.4,332.0,299.5
920.5,889,17.3,15.1,87,11.82,68,12.1,297.4,331.8,299.5
920.0,894,17.2,15.1,87,11.78,68,12.1,297.4,331.7,299.5
919.4,899,17.2,15.1,87,11.78,68,12.1,297.4,331.7,299.5
918.8,904,17.1,15.1,88,11.85,68,12.1,297.4,331.9,299.5
918.3,909,17.1,15.2,89,11.95,68,12.1,297.4,332.2,299.5
917.7,915,17.0,15.4,90,12.04,68,12.1,297.3,332.4,299.5
917.1,920,16.9,15.4,91,12.07,68,12.1,297.3,332.4,299.4
916.6,925,16.8,15.3,91,12.03,68,12.1,297.3,332.3,299.4
916.0,930,16.8,15.3,91,12.00,68,12.1,297.3,332.2,299.4
915.5,935,16.8,15.3,91,12.03,68,12.1,297.3,332.3,299.5
915.0,940,16.7,15.4,92,12.08,68,12.2,297.3,332.5,299.5
914.5,945,16.7,15.3,92,12.07,68,12.2,297.3,332.5,299.5
914.0,949,16.6,15.3,92,12.01,68,12.2,297.3,332.3,299.5
913.5,954,16.6,15.2,91,11.94,69,12.2,297.3,332.1,299.5
913.1,958,16.6,15.0,90,11.85,69,12.2,297.4,331.9,299.5
912.6,963,16.6,14.9,90,11.76,69,12.2,297.4,331.7,299.5
912.1,967,16.6,14.8,89,11.69,69,12.2,297.5,331.6,299.6
911.6,972,16.6,14.7,88,11.62,69,12.2,297.5,331.4,299.6
911.1,976,16.6,14.7,88,11.58,69,12.2,297.6,331.4,299.6
910.6,981,16.6,14.7,88,11.60,69,12.2,297.6,331.4,299.7
910.1,986,16.5,14.7,89,11.62,69,12.2,297.6,331.5,299.7
909.6,990,16.5,14.7,89,11.63,69,12.2,297.6,331.5,299.7
909.2,995,16.5,14.6,89,11.59,69,12.2,297.6,331.4,299.7
908.7,999,16.4,14.5,88,11.52,69,12.2,297.6,331.2,299.7
908.2,1004,16.4,14.5,88,11.47,69,12.2,297.6,331.1,299.7
907.8,1008,16.4,14.4,88,11.45,69,12.2,297.6,331.1,299.7
907.3,1012,16.3,14.4,89,11.47,69,12.2,297.6,331.1,299.7
906.8,1016,16.3,14.4,89,11.47,69,12.2,297.6,331.1,299.7
906.4,1021,16.3,14.4,89,11.46,69,12.2,297.6,331.1,299.7
905.9,1025,16.2,14.4,89,11.46,69,12.1,297.7,331.1,299.7
905.4,1030,16.2,14.4,89,11.45,69,12.1,297.7,331.1,299.7
905.0,1034,16.1,14.4,89,11.44,69,12.1,297.6,331.1,299.7
904.5,1039,16.1,14.4,90,11.47,69,12.0,297.7,331.2,299.7
904.0,1043,16.1,14.4,90,11.51,69,12.0,297.7,331.3,299.7
903.5,1048,16.0,14.4,90,11.51,69,11.9,297.7,331.3,299.7
903.0,1052,16.0,14.3,90,11.45,68,11.9,297.7,331.1,299.7
902.5,1057,16.0,14.2,89,11.38,68,11.8,297.7,330.9,299.7
902.0,1062,15.9,14.1,89,11.31,68,11.8,297.7,330.8,299.8
901.5,1067,15.9,14.0,89,11.25,68,11.7,297.8,330.6,299.8
901.0,1071,15.9,13.9,88,11.18,68,11.6,297.8,330.5,299.8
900.5,1076,15.9,13.9,88,11.15,67,11.5,297.8,330.4,299.8
900.0,1081,15.9,13.8,88,11.11,67,11.5,297.9,330.3,299.8
899.5,1086,15.9,13.7,87,11.02,67,11.4,297.9,330.1,299.9
898.9,1091,15.9,13.6,86,10.94,67,11.3,298.0,330.0,299.9
898.4,1096,15.9,13.5,86,10.91,66,11.2,298.0,330.0,300.0
897.9,1101,15.9,13.6,86,10.97,66,11.1,298.1,330.2,300.1
897.3,1106,15.9,13.7,87,11.03,66,11.0,298.1,330.4,300.1
896.8,1111,15.9,13.7,87,11.04,66,10.9,298.1,330.5,300.1
896.3,1116,15.8,13.7,87,11.03,66,10.8,298.2,330.5,300.1
895.8,1121,15.8,13.6,87,11.03,65,10.7,298.1,330.4,300.1
895.2,1126,15.7,13.6,88,11.03,65,10.6,298.1,330.4,300.1
894.7,1131,15.7,13.6,88,11.04,65,10.5,298.1,330.5,300.1
894.2,1136,15.6,13.6,88,11.05,65,10.4,298.1,330.5,300.1
893.7,1141,15.6,13.6,88,11.04,65,10.3,298.1,330.4,300.1
893.2,1145,15.5,13.6,89,11.01,65,10.2,298.1,330.3,300.0
892.7,1150,15.4,13.5,89,10.97,65,10.1,298.0,330.1,300.0
892.2,1155,15.3,13.5,89,10.97,65,10.0,298.0,330.1,300.0
891.7,1160,15.3,13.6,89,11.01,65,9.9,298.1,330.3,300.0
891.1,1165,15.3,13.6,90,11.06,65,9.9,298.1,330.5,300.1
890.6,1171,15.3,13.6,90,11.06,65,9.8,298.1,330.5,300.1
890.0,1176,15.3,13.5,89,11.02,65,9.7,298.2,330.5,300.2
889.4,1182,15.2,13.5,89,10.98,66,9.7,298.2,330.3,300.2
888.8,1187,15.2,13.4,89,10.95,66,9.6,298.2,330.3,300.2
888.2,1193,15.2,13.4,89,10.98,66,9.6,298.2,330.4,300.2
887.6,1199,15.1,13.5,90,11.02,67,9.5,298.3,330.6,300.3
887.0,1204,15.1,13.6,91,11.07,67,9.5,298.3,330.7,300.3
886.5,1210,15.0,13.6,91,11.11,68,9.4,298.3,330.8,300.2
885.9,1216,14.9,13.6,92,11.10,68,9.4,298.2,330.7,300.2
885.3,1221,14.9,13.5,92,11.08,69,9.4,298.2,330.7,300.2
884.8,1226,14.9,13.5,91,11.04,69,9.3,298.3,330.6,300.3
884.2,1231,14.9,13.5,91,11.05,69,9.3,298.3,330.7,300.3
883.7,1236,14.8,13.5,92,11.10,70,9.3,298.3,330.8,300.3
883.2,1241,14.7,13.6,93,11.16,70,9.2,298.3,331.0,300.3
882.7,1246,14.7,13.6,93,11.18,71,9.2,298.3,331.0,300.3
882.2,1251,14.6,13.6,93,11.15,71,9.2,298.3,330.9,300.3
881.7,1256,14.6,13.5,93,11.12,71,9.1,298.3,330.9,300.3
881.2,1261,14.5,13.5,93,11.09,72,9.1,298.3,330.7,300.3
880.7,1265,14.5,13.4,93,11.01,72,9.1,298.3,330.5,300.3
880.2,1270,14.5,13.1,92,10.85,72,9.0,298.3,330.1,300.3
879.6,1276,14.5,12.9,90,10.68,72,9.0,298.4,329.7,300.3
879.1,1281,14.5,12.7,89,10.57,72,8.9,298.5,329.5,300.4
878.6,1286,14.5,12.7,89,10.57,72,8.9,298.5,329.6,300.4
878.0,1291,14.5,12.8,89,10.61,72,8.9,298.5,329.7,300.4
877.5,1296,14.4,12.7,90,10.59,72,8.8,298.5,329.5,300.4
877.0,1301,14.4,12.6,89,10.50,72,8.8,298.5,329.3,300.4
876.5,1306,14.4,12.5,88,10.44,72,8.7,298.5,329.2,300.4
876.0,1311,14.3,12.5,89,10.46,71,8.7,298.6,329.3,300.4
875.5,1315,14.3,12.6,90,10.52,71,8.6,298.5,329.4,300.4
875.1,1320,14.2,12.6,90,10.57,70,8.6,298.5,329.5,300.4
874.6,1324,14.2,12.6,90,10.56,70,8.6,298.5,329.5,300.4
874.1,1329,14.2,12.5,90,10.48,69,8.5,298.6,329.3,300.5
873.6,1333,14.2,12.4,89,10.40,69,8.5,298.6,329.2,300.5
873.2,1338,14.2,12.3,88,10.36,68,8.5,298.7,329.1,300.6
872.7,1343,14.2,12.3,88,10.33,68,8.5,298.7,329.1,300.6
872.2,1347,14.1,12.2,88,10.32,67,8.5,298.7,329.1,300.6
871.7,1352,14.1,12.2,88,10.30,66,8.5,298.7,329.0,300.6
871.2,1357,14.0,12.1,88,10.25,66,8.5,298.7,328.9,300.6
870.7,1362,14.0,12.0,88,10.19,65,8.5,298.7,328.7,300.6
870.2,1366,14.0,11.9,87,10.12,65,8.5,298.8,328.5,300.6
869.7,1372,14.0,11.8,87,10.07,64,8.5,298.8,328.5,300.6
869.2,1377,14.0,11.7,86,10.01,64,8.5,298.8,328.3,300.6
868.6,1382,13.9,11.5,85,9.85,63,8.5,298.9,327.9,300.6
868.1,1388,14.0,11.0,82,9.54,63,8.6,298.9,327.1,300.7
867.5,1393,14.0,10.5,80,9.24,62,8.6,299.1,326.4,300.7
866.9,1399,14.0,10.3,78,9.11,62,8.7,299.1,326.0,300.8
866.3,1405,14.0,10.3,78,9.10,62,8.7,299.1,326.0,300.8
865.7,1411,13.9,10.3,79,9.14,61,8.8,299.2,326.2,300.8
865.1,1416,13.9,10.4,79,9.18,61,8.8,299.2,326.3,300.8
864.5,1422,13.8,10.4,80,9.19,61,8.9,299.2,326.3,300.8
864.0,1428,13.8,10.4,80,9.21,61,8.9,299.2,326.4,300.8
863.4,1433,13.8,10.5,80,9.25,60,9.0,299.2,326.5,300.9
862.9,1438,13.7,10.5,81,9.28,60,9.1,299.2,326.6,300.9
862.3,1444,13.7,10.5,81,9.28,60,9.1,299.2,326.6,300.9
861.8,1449,13.6,10.4,81,9.26,60,9.2,299.2,326.5,300.9
861.3,1454,13.6,10.4,81,9.23,60,9.3,299.2,326.5,300.9
860.7,1459,13.5,10.4,81,9.22,60,9.3,299.2,326.5,300.9
860.2,1464,13.5,10.4,81,9.22,60,9.4,299.3,326.5,300.9
859.7,1469,13.5,10.4,82,9.25,60,9.4,299.3,326.6,300.9
859.2,1474,13.4,10.4,82,9.27,60,9.5,299.3,326.7,300.9
858.7,1479,13.4,10.4,82,9.25,60,9.5,299.3,326.6,300.9
858.2,1484,13.3,10.3,82,9.21,60,9.6,299.3,326.5,300.9
857.7,1489,13.3,10.2,82,9.18,60,9.6,299.3,326.4,300.9
857.2,1494,13.3,10.2,82,9.17,60,9.6,299.3,326.4,301.0
856.7,1499,13.2,10.3,82,9.21,61,9.6,299.3,326.6,301.0
856.1,1504,13.2,10.4,83,9.31,61,9.7,299.3,326.8,301.0
855.6,1510,13.1,10.6,85,9.43,61,9.7,299.3,327.2,301.0
855.1,1515,13.1,10.8,86,9.57,61,9.7,299.3,327.6,301.1
854.5,1520,13.1,10.9,87,9.64,61,9.7,299.4,327.9,301.1
854.0,1525,13.1,10.9,87,9.64,61,9.6,299.4,327.9,301.1
853.6,1530,13.0,10.9,87,9.66,61,9.6,299.4,327.9,301.1
853.1,1534,13.0,11.0,88,9.72,62,9.6,299.4,328.1,301.2
852.6,1539,12.9,11.1,89,9.78,62,9.6,299.4,328.3,301.2
852.2,1544,12.9,11.2,89,9.82,62,9.5,299.4,328.4,301.2
851.7,1548,12.8,11.2,90,9.86,62,9.5,299.4,328.5,301.2
851.3,1553,12.8,11.3,90,9.91,62,9.5,299.4,328.7,301.2
850.8,1557,12.8,11.3,91,9.94,62,9.4,299.4,328.7,301.2
850.4,1561,12.7,11.3,91,9.93,62,9.4,299.4,328.7,301.2
850.0,1565,12.7,11.2,91,9.91,62,9.4,299.4,328.6,301.2
849.6,1569,12.6,11.2,91,9.89,62,9.3,299.4,328.6,301.2
849.2,1573,12.6,11.2,91,9.88,62,9.3,299.4,328.6,301.2
848.8,1577,12.6,11.2,91,9.88,62,9.3,299.4,328.6,301.2
848.4,1581,12.5,11.1,91,9.86,62,9.2,299.4,328.5,301.2
848.0,1584,12.5,11.1,91,9.85,62,9.2,299.4,328.5,301.2
847.6,1588,12.5,11.1,91,9.85,62,9.2,299.4,328.5,301.2
847.2,1592,12.4,11.1,92,9.87,62,9.2,299.4,328.6,301.2
846.9,1596,12.4,11.1,92,9.88,62,9.2,299.4,328.6,301.2
846.5,1600,12.3,11.1,92,9.84,62,9.2,299.4,328.5,301.2
846.1,1604,12.3,11.0,92,9.80,62,9.2,299.4,328.3,301.2
845.7,1608,12.3,11.0,92,9.77,62,9.3,299.4,328.3,301.2
845.3,1611,12.3,11.0,92,9.78,62,9.3,299.4,328.3,301.2
845.0,1615,12.2,11.0,92,9.79,62,9.3,299.4,328.3,301.2
844.6,1618,12.2,11.0,92,9.79,61,9.4,299.4,328.4,301.2
844.3,1622,12.2,11.0,92,9.79,61,9.4,299.4,328.3,301.2
844.0,1625,12.1,11.0,93,9.81,61,9.5,299.4,328.4,301.2
843.6,1628,12.1,11.1,94,9.90,61,9.5,299.5,328.7,301.2
843.3,1632,12.0,11.3,95,10.02,61,9.6,299.4,329.0,301.2
842.9,1635,12.0,11.4,96,10.07,61,9.6,299.4,329.1,301.2
842.6,1639,11.9,11.3,96,10.04,61,9.7,299.3,328.9,301.1
842.2,1642,11.8,11.3,96,10.01,61,9.8,299.3,328.9,301.1
841.9,1646,11.8,11.4,97,10.10,61,9.8,299.3,329.1,301.2
841.5,1649,11.8,11.6,98,10.23,61,9.9,299.4,329.6,301.2
841.1,1653,11.8,11.6,98,10.25,61,9.9,299.4,329.7,301.3
840.7,1657,11.8,11.4,97,10.11,61,10.0,299.4,329.3,301.3
840.4,1661,11.8,11.1,95,9.91,61,10.0,299.4,328.7,301.2
840.0,1665,11.8,10.9,94,9.80,61,10.1,299.5,328.4,301.2
839.6,1669,11.7,10.9,95,9.80,61,10.1,299.5,328.4,301.2
839.2,1673,11.7,11.0,95,9.87,61,10.1,299.5,328.7,301.3
838.8,1677,11.7,11.1,96,9.94,61,10.2,299.5,328.9,301.3
838.4,1681,11.7,11.2,97,10.03,61,10.2,299.6,329.2,301.4
837.9,1685,11.8,11.5,98,10.22,61,10.2,299.7,329.9,301.6
837.5,1689,11.8,11.6,99,10.32,61,10.3,299.8,330.2,301.6
837.1,1693,11.8,11.8,100,10.44,62,10.3,299.8,330.6,301.7
836.7,1698,11.8,11.8,100,10.46,62,10.3,299.9,330.7,301.7
836.2,1702,11.8,11.8,100,10.43,62,10.3,299.8,330.6,301.7
835.8,1707,11.7,11.7,100,10.38,62,10.4,299.8,330.5,301.7
835.3,1711,11.6,11.6,100,10.33,62,10.4,299.8,330.2,301.6
834.9,1716,11.5,11.5,100,10.28,62,10.4,299.7,330.1,301.6
834.4,1720,11.5,11.4,100,10.22,62,10.4,299.7,329.9,301.6
833.9,1725,11.4,11.2,99,10.08,62,10.5,299.7,329.5,301.5
833.4,1730,11.3,11.1,98,9.98,62,10.5,299.6,329.1,301.4
832.9,1736,11.2,11.0,99,9.95,62,10.5,299.6,329.0,301.4
832.3,1741,11.2,11.0,98,9.93,63,10.5,299.7,329.0,301.5
831.8,1747,11.3,10.9,98,9.89,63,10.6,299.8,329.0,301.6
831.2,1753,11.3,10.9,97,9.88,63,10.6,299.9,329.1,301.7
830.6,1759,11.3,10.9,98,9.91,63,10.6,299.9,329.2,301.7
829.9,1765,11.2,11.0,98,9.96,63,10.7,299.9,329.3,301.7
