PRES,HGHT,TEMP,DWPT,RELH,MIXR,DRCT,SPED,THTA,THTE,THTV
1015.6,31,25.8,22.3,81,16.94,99,3.3,297.6,346.9,300.6
1015.2,34,26.1,22.5,81,17.15,80,1.9,298.0,347.9,301.0
1014.7,38,25.3,22.4,84,17.06,74,1.8,297.2,346.8,300.3
1013.9,45,24.9,22.4,86,17.01,73,1.9,296.9,346.2,299.9
1013.2,51,24.7,22.3,86,16.92,74,2.0,296.7,345.7,299.7
1012.7,56,24.5,22.1,87,16.78,76,2.2,296.6,345.2,299.6
1012.3,59,24.4,22.0,86,16.64,77,2.3,296.5,344.7,299.5
1011.7,64,24.4,21.8,86,16.51,78,2.5,296.5,344.3,299.5
1011.2,69,24.3,21.7,85,16.36,79,2.6,296.5,343.9,299.4
1010.7,73,24.3,21.5,85,16.22,80,2.7,296.5,343.5,299.4
1010.1,78,24.3,21.5,85,16.19,81,2.9,296.5,343.4,299.4
1009.5,83,24.2,21.5,85,16.18,82,3.0,296.6,343.4,299.4
1009.0,88,24.2,21.5,85,16.20,83,3.1,296.5,343.5,299.4
1008.4,93,24.1,21.5,85,16.21,84,3.2,296.5,343.5,299.4
1007.8,98,24.0,21.5,86,16.21,84,3.3,296.5,343.5,299.4
1007.2,103,24.0,21.5,86,16.20,85,3.4,296.5,343.4,299.4
1006.6,109,23.9,21.4,86,16.16,86,3.5,296.5,343.3,299.4
1006.1,114,23.9,21.3,85,16.07,87,3.6,296.5,343.0,299.4
1005.5,118,23.9,21.2,85,15.98,87,3.7,296.5,342.8,299.4
1004.9,123,23.8,21.2,85,15.94,88,3.7,296.6,342.7,299.4
1004.4,128,23.8,21.2,85,15.96,88,3.8,296.6,342.8,299.4
1003.8,133,23.7,21.2,86,16.00,88,3.8,296.6,342.9,299.4
1003.2,138,23.7,21.3,86,16.06,89,3.8,296.6,343.1,299.4
1002.7,143,23.6,21.3,87,16.14,89,3.8,296.6,343.3,299.4
1002.1,148,23.6,21.4,87,16.17,89,3.8,296.6,343.4,299.4
1001.6,153,23.5,21.4,88,16.19,89,3.8,296.6,343.4,299.4
1001.0,158,23.5,21.3,88,16.18,89,3.8,296.6,343.4,299.4
1000.5,162,23.5,21.2,87,16.06,89,3.8,296.6,343.1,299.4
1000.0,167,23.4,21.1,87,15.94,89,3.8,296.6,342.7,299.4
999.9,167,23.4,21.1,87,15.93,89,3.7,296.6,342.7,299.4
999.4,172,23.4,21.0,87,15.88,89,3.7,296.6,342.6,299.4
998.9,176,23.3,21.0,87,15.90,89,3.6,296.6,342.6,299.4
998.4,180,23.3,21.1,87,15.93,89,3.5,296.6,342.7,299.4
997.9,185,23.3,21.1,87,15.94,89,3.4,296.6,342.7,299.4
997.4,189,23.2,21.1,88,15.95,88,3.4,296.6,342.8,299.4
997.0,193,23.2,21.1,88,15.95,88,3.3,296.6,342.8,299.4
996.5,198,23.1,21.1,88,15.97,88,3.2,296.6,342.8,299.4
996.0,202,23.1,21.1,88,16.01,88,3.1,296.6,343.0,299.4
995.5,206,23.1,21.1,89,16.04,88,3.0,296.6,343.0,299.4
994.9,211,23.0,21.1,89,16.05,88,2.9,296.6,343.1,299.4
994.4,216,23.0,21.0,89,15.99,88,2.8,296.6,342.9,299.4
993.8,221,22.9,20.9,88,15.88,89,2.8,296.6,342.6,299.4
993.3,226,22.9,20.8,88,15.75,89,2.7,296.6,342.3,299.4
992.7,231,22.9,20.6,87,15.56,90,2.6,296.7,341.7,299.4
992.1,236,22.9,20.4,86,15.40,91,2.6,296.7,341.3,299.4
991.5,241,22.9,20.3,86,15.33,92,2.5,296.7,341.2,299.5
990.9,246,22.8,20.3,86,15.28,94,2.5,296.7,341.0,299.5
990.3,251,22.8,20.2,85,15.25,95,2.5,296.8,341.0,299.5
989.8,257,22.8,20.1,85,15.17,97,2.5,296.8,340.8,299.5
989.2,262,22.7,19.9,84,14.95,99,2.5,296.8,340.2,299.5
988.6,266,22.8,19.5,82,14.58,101,2.6,296.9,339.2,299.5
988.1,271,22.8,19.1,79,14.21,103,2.6,297.0,338.2,299.5
987.5,276,22.9,18.8,78,13.94,104,2.7,297.1,337.6,299.5
987.0,281,22.9,18.4,76,13.65,106,2.8,297.2,336.8,299.6
986.4,286,23.0,18.1,74,13.38,108,2.9,297.3,336.2,299.7
985.8,291,23.0,18.0,73,13.26,109,3.0,297.4,335.9,299.7
985.3,296,23.0,17.9,73,13.24,110,3.1,297.4,335.9,299.8
984.7,301,23.0,17.9,73,13.20,111,3.2,297.4,335.9,299.8
984.2,306,23.0,17.8,73,13.15,112,3.4,297.5,335.8,299.8
983.7,310,22.9,17.8,73,13.11,113,3.5,297.5,335.7,299.8
983.2,315,22.9,17.7,72,13.04,114,3.6,297.5,335.5,299.8
982.7,320,22.9,17.5,72,12.94,114,3.8,297.5,335.2,299.8
982.1,324,22.9,17.4,71,12.81,115,3.9,297.6,334.9,299.9
981.6,329,22.9,17.2,70,12.65,115,4.0,297.6,334.5,299.9
981.0,334,22.9,16.9,69,12.48,115,4.1,297.7,334.1,299.9
980.5,339,23.0,16.7,68,12.32,115,4.3,297.8,333.8,300.0
979.9,344,23.0,16.6,67,12.23,115,4.4,297.9,333.6,300.0
979.4,349,23.0,16.5,67,12.18,115,4.5,297.9,333.5,300.1
978.8,354,23.0,16.4,67,12.11,115,4.5,297.9,333.3,300.1
978.3,358,23.0,16.4,66,12.05,115,4.6,298.0,333.2,300.1
977.8,363,23.0,16.3,66,12.02,115,4.7,298.0,333.1,300.2
977.3,367,23.0,16.3,66,11.99,114,4.7,298.1,333.1,300.2
976.8,372,23.0,16.2,66,11.97,114,4.7,298.1,333.1,300.2
976.3,376,23.0,16.2,66,11.96,114,4.7,298.1,333.1,300.3
975.9,380,22.9,16.2,66,11.95,113,4.7,298.2,333.1,300.3
975.4,384,22.9,16.2,66,11.95,113,4.7,298.2,333.2,300.3
974.9,389,22.9,16.2,66,11.96,112,4.7,298.2,333.2,300.4
974.4,393,22.9,16.2,66,11.99,112,4.7,298.2,333.3,300.4
973.9,397,22.9,16.3,66,12.03,111,4.6,298.3,333.5,300.4
973.4,402,22.9,16.3,66,12.05,110,4.6,298.3,333.6,300.4
972.9,406,22.8,16.3,67,12.08,109,4.5,298.3,333.7,300.5
972.4,411,22.8,16.3,67,12.08,109,4.5,298.3,333.7,300.5
971.9,415,22.8,16.3,67,12.07,108,4.4,298.3,333.7,300.5
971.4,420,22.7,16.3,67,12.06,107,4.3,298.3,333.6,300.5
971.0,424,22.7,16.2,67,12.05,106,4.3,298.3,333.6,300.5
970.5,429,22.6,16.2,67,12.05,105,4.2,298.3,333.6,300.5
970.0,433,22.6,16.3,67,12.07,104,4.1,298.3,333.7,300.5
969.5,437,22.6,16.3,68,12.12,103,4.1,298.3,333.8,300.5
969.0,442,22.5,16.4,68,12.16,102,4.0,298.3,333.9,300.5
968.5,446,22.5,16.4,68,12.20,101,3.9,298.3,334.0,300.5
968.0,451,22.4,16.4,69,12.24,100,3.9,298.3,334.2,300.5
967.5,455,22.4,16.5,69,12.27,99,3.8,298.3,334.3,300.5
967.0,460,22.4,16.5,69,12.30,98,3.8,298.3,334.3,300.5
966.5,464,22.3,16.5,70,12.32,97,3.7,298.4,334.4,300.6
966.0,469,22.3,16.6,70,12.36,96,3.6,298.4,334.5,300.6
965.5,474,22.2,16.6,70,12.39,95,3.6,298.4,334.6,300.6
964.9,478,22.2,16.6,71,12.39,94,3.5,298.4,334.6,300.6
964.4,483,22.2,16.6,71,12.39,93,3.5,298.4,334.6,300.6
963.9,488,22.1,16.5,71,12.35,92,3.4,298.4,334.5,300.6
963.4,492,22.1,16.5,70,12.33,92,3.4,298.4,334.5,300.6
962.9,497,22.1,16.5,71,12.35,91,3.3,298.4,334.6,300.6
962.3,502,22.0,16.5,71,12.36,90,3.3,298.4,334.6,300.7
961.8,507,22.0,16.5,71,12.40,90,3.2,298.4,334.7,300.7
961.2,512,22.0,16.5,71,12.41,89,3.2,298.5,334.8,300.7
960.7,517,21.9,16.5,72,12.40,88,3.1,298.4,334.8,300.7
960.1,522,21.9,16.5,72,12.39,88,3.1,298.5,334.7,300.7
959.5,528,21.8,16.5,72,12.39,87,3.0,298.4,334.7,300.7
958.9,533,21.7,16.5,72,12.38,87,2.9,298.4,334.7,300.7
958.3,538,21.7,16.4,72,12.37,86,2.9,298.4,334.6,300.7
957.8,543,21.6,16.4,72,12.35,86,2.8,298.4,334.6,300.6
957.2,548,21.6,16.4,72,12.34,86,2.8,298.4,334.6,300.7
956.7,553,21.6,16.4,73,12.37,85,2.7,298.5,334.7,300.7
956.2,558,21.5,16.4,73,12.40,85,2.6,298.5,334.7,300.7
955.6,563,21.5,16.5,73,12.45,84,2.6,298.5,334.9,300.7
955.1,568,21.4,16.5,74,12.48,84,2.5,298.5,335.0,300.7
954.5,573,21.4,16.5,74,12.46,84,2.5,298.5,334.9,300.7
954.0,578,21.3,16.4,74,12.41,83,2.4,298.5,334.8,300.7
953.4,583,21.3,16.3,73,12.34,83,2.4,298.5,334.6,300.7
952.9,587,21.3,16.2,73,12.23,83,2.3,298.5,334.3,300.7
952.4,592,21.3,16.0,72,12.13,83,2.3,298.5,334.1,300.7
951.9,597,21.2,15.9,72,12.06,84,2.2,298.5,333.9,300.7
951.3,602,21.2,15.9,72,12.03,84,2.1,298.6,333.8,300.7
950.8,606,21.2,15.9,72,12.01,85,2.1,298.6,333.8,300.7
950.3,611,21.1,15.8,71,11.94,86,2.0,298.6,333.6,300.7
949.8,616,21.1,15.6,71,11.83,87,2.0,298.6,333.3,300.7
949.3,620,21.1,15.5,70,11.71,89,2.0,298.6,333.0,300.7
948.8,625,21.1,15.3,69,11.58,91,1.9,298.7,332.6,300.7
948.3,629,21.1,15.2,69,11.52,93,1.9,298.7,332.5,300.8
947.8,634,21.0,15.2,69,11.50,96,1.8,298.7,332.5,300.8
947.3,639,21.0,15.1,69,11.44,99,1.8,298.7,332.3,300.8
946.8,643,21.0,14.9,68,11.34,103,1.8,298.8,332.0,300.8
946.3,648,21.0,14.7,68,11.20,106,1.8,298.8,331.7,300.8
945.7,653,21.0,14.5,67,11.04,111,1.8,298.8,331.3,300.8
945.2,658,21.0,14.3,66,10.89,115,1.8,298.9,330.9,300.8
944.7,663,20.9,14.2,65,10.85,119,1.8,298.9,330.8,300.8
944.2,667,20.9,14.2,66,10.87,123,1.9,298.9,330.9,300.9
943.6,672,20.9,14.3,66,10.89,127,1.9,298.9,331.0,300.9
943.1,677,20.8,14.2,66,10.88,131,2.0,298.9,330.9,300.9
942.5,682,20.8,14.2,66,10.88,135,2.0,299.0,331.0,300.9
942.0,687,20.8,14.3,66,10.91,138,2.1,299.0,331.1,300.9
941.4,692,20.7,14.3,67,10.94,141,2.2,299.0,331.1,301.0
940.9,697,20.7,14.3,67,10.97,143,2.3,299.0,331.3,301.0
940.4,702,20.6,14.4,67,11.01,146,2.4,299.0,331.4,301.0
939.9,707,20.6,14.4,68,11.03,148,2.5,299.0,331.4,301.0
939.3,712,20.6,14.4,68,11.05,150,2.6,299.0,331.5,301.0
938.8,716,20.5,14.4,68,11.07,151,2.7,299.0,331.6,301.0
938.4,721,20.5,14.4,68,11.09,153,2.7,299.0,331.6,301.0
937.9,725,20.5,14.5,69,11.12,154,2.8,299.0,331.7,301.0
937.4,729,20.4,14.5,69,11.17,155,2.9,299.0,331.9,301.0
937.0,733,20.4,14.6,69,11.19,156,2.9,299.0,332.0,301.1
936.6,737,20.4,14.6,69,11.20,157,3.0,299.1,332.0,301.1
936.1,741,20.3,14.6,69,11.21,158,3.0,299.1,332.0,301.1
935.7,745,20.3,14.6,70,11.22,159,3.0,299.1,332.1,301.1
935.3,749,20.3,14.6,70,11.24,160,3.1,299.1,332.2,301.1
934.8,754,20.3,14.6,70,11.26,161,3.1,299.1,332.3,301.2
934.4,758,20.3,14.6,70,11.27,161,3.1,299.2,332.3,301.2
933.9,762,20.3,14.6,70,11.27,162,3.1,299.2,332.4,301.2
933.4,766,20.2,14.6,70,11.27,163,3.0,299.2,332.4,301.2
932.9,771,20.2,14.6,70,11.28,164,3.0,299.2,332.4,301.2
932.5,775,20.2,14.6,70,11.30,165,3.0,299.2,332.5,301.3
932.0,780,20.2,14.7,71,11.33,166,3.0,299.3,332.6,301.3
931.5,784,20.1,14.7,71,11.38,167,3.0,299.3,332.8,301.3
931.0,789,20.1,14.8,71,11.41,167,2.9,299.3,332.9,301.4
930.5,793,20.1,14.8,72,11.44,168,2.9,299.3,333.0,301.4
930.1,797,20.0,14.8,72,11.44,169,2.9,299.3,333.0,301.4
929.6,802,20.0,14.7,72,11.42,170,2.8,299.3,332.9,301.4
929.2,806,20.0,14.7,72,11.38,170,2.8,299.3,332.8,301.4
928.7,810,20.0,14.6,71,11.35,171,2.8,299.4,332.8,301.4
928.3,814,19.9,14.6,71,11.33,171,2.7,299.4,332.7,301.4
927.9,818,19.9,14.6,72,11.35,171,2.7,299.4,332.8,301.4
927.4,822,19.9,14.7,72,11.41,172,2.7,299.4,333.0,301.5
927.0,826,19.8,14.7,72,11.43,172,2.7,299.4,333.0,301.5
926.5,830,19.8,14.7,72,11.43,172,2.7,299.4,333.0,301.5
926.1,835,19.8,14.7,72,11.42,171,2.7,299.4,333.1,301.5
925.6,839,19.7,14.7,73,11.43,171,2.6,299.4,333.1,301.5
925.2,843,19.7,14.7,73,11.44,171,2.6,299.4,333.1,301.5
925.0,845,19.7,14.7,73,11.44,170,2.6,299.4,333.1,301.5
924.7,848,19.7,14.7,73,11.43,170,2.6,299.4,333.1,301.5
924.2,852,19.6,14.6,73,11.41,169,2.6,299.4,333.0,301.5
923.7,857,19.6,14.6,73,11.40,169,2.6,299.5,333.0,301.5
923.3,861,19.6,14.7,73,11.44,168,2.6,299.5,333.1,301.5
922.8,865,19.5,14.8,74,11.53,167,2.7,299.5,333.4,301.5
922.3,870,19.5,14.9,75,11.63,166,2.7,299.5,333.7,301.6
921.9,874,19.4,15.0,75,11.67,165,2.7,299.5,333.8,301.6
921.4,878,19.4,14.9,75,11.67,164,2.7,299.5,333.8,301.6
920.9,883,19.4,14.9,75,11.63,164,2.7,299.5,333.7,301.6
920.5,887,19.4,14.8,75,11.60,163,2.8,299.5,333.7,301.6
920.0,892,19.3,14.8,75,11.55,162,2.8,299.5,333.5,301.6
919.5,896,19.3,14.6,74,11.46,161,2.8,299.6,333.3,301.6
919.0,901,19.3,14.5,74,11.35,161,2.8,299.6,333.0,301.6
918.6,905,19.3,14.3,73,11.20,160,2.9,299.6,332.6,301.6
918.1,909,19.3,14.0,72,11.03,160,2.9,299.7,332.2,301.7
917.6,914,19.3,14.0,71,11.00,160,2.9,299.7,332.2,301.7
917.2,918,19.3,14.1,72,11.08,159,3.0,299.7,332.4,301.7
916.7,922,19.2,14.2,73,11.18,159,3.0,299.7,332.7,301.8
916.3,927,19.2,14.3,73,11.23,159,3.0,299.7,332.8,301.8
915.8,931,19.2,14.2,73,11.20,158,3.0,299.8,332.8,301.8
915.3,935,19.2,14.1,72,11.11,158,3.1,299.8,332.5,301.8
914.9,940,19.1,13.9,72,10.96,158,3.1,299.8,332.1,301.8
914.4,944,19.1,13.7,71,10.87,158,3.1,299.8,331.9,301.8
913.9,949,19.1,13.7,71,10.86,158,3.1,299.9,331.9,301.8
913.4,954,19.1,13.7,71,10.88,158,3.1,299.9,332.0,301.8
912.9,959,19.0,13.8,72,10.90,158,3.2,299.9,332.1,301.8
912.3,963,19.0,13.7,72,10.88,158,3.2,299.9,332.0,301.9
911.8,969,19.0,13.6,71,10.79,158,3.2,299.9,331.8,301.9
911.3,974,18.9,13.4,70,10.66,159,3.2,299.9,331.4,301.9
910.7,979,18.9,13.3,70,10.59,159,3.2,300.0,331.3,301.9
910.2,984,18.9,13.3,70,10.61,159,3.2,300.0,331.3,301.9
909.6,989,18.8,13.4,71,10.67,159,3.2,300.0,331.5,301.9
909.1,994,18.8,13.5,71,10.73,160,3.2,300.0,331.7,301.9
908.6,999,18.8,13.5,71,10.76,160,3.2,300.0,331.8,302.0
908.0,1004,18.7,13.5,72,10.77,160,3.2,300.0,331.8,302.0
907.5,1009,18.7,13.4,71,10.72,161,3.2,300.0,331.7,302.0
907.0,1014,18.7,13.3,71,10.61,161,3.2,300.1,331.4,302.0
906.5,1019,18.7,13.1,70,10.53,162,3.2,300.1,331.3,302.0
906.0,1024,18.7,13.1,70,10.50,162,3.2,300.1,331.2,302.0
905.4,1029,18.6,13.1,70,10.50,163,3.2,300.2,331.2,302.1
904.9,1034,18.6,13.0,70,10.49,163,3.2,300.2,331.2,302.1
904.4,1039,18.5,12.9,70,10.42,164,3.2,300.2,331.0,302.1
903.9,1043,18.5,12.8,69,10.33,165,3.2,300.2,330.8,302.1
903.4,1048,18.5,12.7,69,10.26,165,3.1,300.2,330.6,302.1
902.9,1053,18.5,12.6,69,10.24,166,3.1,300.3,330.6,302.1
902.4,1058,18.5,12.7,69,10.26,166,3.1,300.3,330.7,302.1
901.9,1062,18.4,12.8,70,10.37,167,3.1,300.3,331.0,302.2
901.4,1067,18.4,13.1,71,10.57,168,3.1,300.3,331.6,302.2
900.9,1072,18.3,13.5,74,10.84,168,3.0,300.3,332.3,302.2
900.4,1077,18.2,13.9,76,11.17,169,3.0,300.2,333.2,302.2
899.9,1081,18.1,14.4,79,11.50,169,3.0,300.2,334.1,302.3
899.4,1086,18.1,14.5,80,11.60,170,3.0,300.2,334.4,302.2
899.0,1090,18.0,14.3,79,11.48,170,3.0,300.2,334.1,302.2
898.5,1095,18.0,14.2,79,11.41,170,2.9,300.2,333.9,302.2
898.0,1099,17.9,14.3,79,11.48,170,2.9,300.2,334.1,302.2
897.6,1104,17.9,14.4,80,11.55,170,2.9,300.2,334.2,302.2
897.1,1108,17.9,14.4,80,11.58,170,2.8,300.2,334.3,302.3
896.7,1112,17.8,14.4,80,11.57,170,2.8,300.2,334.3,302.3
896.2,1117,17.8,14.4,80,11.56,170,2.8,300.2,334.3,302.3
895.8,1121,17.7,14.3,80,11.54,170,2.8,300.2,334.2,302.3
895.3,1125,17.7,14.3,81,11.53,170,2.8,300.2,334.2,302.3
894.8,1130,17.7,14.3,80,11.50,170,2.7,300.2,334.1,302.3
894.4,1134,17.6,14.2,80,11.45,169,2.7,300.2,334.0,302.3
893.9,1139,17.6,14.2,80,11.43,169,2.7,300.2,334.0,302.3
893.4,1143,17.6,14.1,80,11.39,169,2.7,300.2,333.9,302.3
893.0,1148,17.5,14.0,80,11.34,169,2.7,300.2,333.7,302.3
892.5,1152,17.5,13.9,80,11.29,168,2.7,300.2,333.6,302.3
892.0,1157,17.5,13.9,79,11.23,168,2.6,300.2,333.4,302.3
891.5,1162,17.4,13.8,79,11.19,168,2.6,300.3,333.3,302.3
891.1,1166,17.4,13.7,79,11.15,168,2.6,300.3,333.2,302.3
890.6,1171,17.4,13.7,79,11.12,168,2.6,300.3,333.1,302.3
890.1,1175,17.3,13.6,79,11.08,168,2.6,300.3,333.0,302.3
889.6,1180,17.3,13.5,79,11.02,168,2.6,300.3,332.9,302.3
889.2,1184,17.3,13.4,78,10.91,168,2.6,300.3,332.6,302.3
888.7,1189,17.2,13.2,77,10.79,168,2.6,300.3,332.3,302.3
888.2,1194,17.2,13.0,76,10.62,168,2.6,300.4,331.8,302.3
887.7,1198,17.2,12.7,75,10.46,169,2.6,300.4,331.4,302.3
887.2,1203,17.2,12.7,75,10.43,169,2.6,300.4,331.3,302.3
886.8,1207,17.1,12.7,75,10.49,169,2.6,300.4,331.5,302.3
886.3,1212,17.1,12.8,76,10.56,170,2.6,300.4,331.7,302.3
885.8,1216,17.1,13.0,77,10.67,171,2.7,300.4,332.0,302.4
885.4,1221,17.0,13.1,78,10.79,171,2.7,300.4,332.4,302.4
884.9,1225,17.0,13.2,78,10.84,172,2.7,300.4,332.5,302.4
884.5,1230,17.0,13.1,78,10.81,172,2.7,300.5,332.4,302.4
884.0,1234,16.9,13.0,78,10.74,173,2.8,300.5,332.2,302.4
883.5,1239,16.9,13.0,78,10.72,173,2.8,300.5,332.2,302.4
883.0,1244,16.8,13.1,78,10.77,174,2.8,300.5,332.3,302.4
882.5,1249,16.8,13.1,79,10.83,174,2.9,300.5,332.5,302.4
882.0,1254,16.7,13.1,79,10.84,175,2.9,300.5,332.5,302.4
881.4,1259,16.7,13.1,79,10.78,175,3.0,300.5,332.4,302.4
880.9,1264,16.6,13.0,79,10.72,175,3.0,300.5,332.2,302.4
880.4,1269,16.6,12.9,79,10.68,175,3.1,300.5,332.1,302.4
879.9,1274,16.6,12.8,79,10.64,175,3.1,300.5,332.0,302.4
879.4,1279,16.5,12.8,79,10.62,175,3.2,300.5,332.0,302.4
878.8,1284,16.5,12.8,79,10.60,175,3.3,300.5,331.9,302.5
878.3,1289,16.5,12.7,79,10.58,174,3.3,300.5,331.9,302.5
877.7,1295,16.4,12.6,78,10.49,174,3.4,300.6,331.6,302.5
877.2,1300,16.4,12.3,77,10.30,173,3.5,300.6,331.1,302.4
876.6,1306,16.4,11.9,75,10.02,173,3.5,300.6,330.4,302.4
876.0,1312,16.4,11.5,73,9.79,172,3.6,300.7,329.8,302.5
875.4,1318,16.4,11.3,72,9.67,171,3.7,300.7,329.5,302.5
874.8,1324,16.4,11.2,71,9.57,171,3.7,300.8,329.2,302.5
874.2,1330,16.3,11.0,71,9.47,170,3.8,300.8,329.0,302.5
873.6,1335,16.3,10.9,70,9.44,169,3.9,300.9,329.0,302.6
873.0,1341,16.3,11.0,71,9.48,169,3.9,300.9,329.1,302.6
872.4,1346,16.2,11.1,71,9.53,168,4.0,300.9,329.2,302.6
871.9,1352,16.2,11.1,72,9.58,168,4.1,300.9,329.4,302.6
871.4,1356,16.2,11.2,73,9.65,167,4.2,300.9,329.6,302.7
870.9,1361,16.1,11.3,73,9.72,167,4.2,300.9,329.8,302.7
870.5,1366,16.1,11.4,74,9.80,167,4.3,300.9,330.0,302.7
870.0,1370,16.0,11.6,75,9.89,167,4.4,300.9,330.3,302.7
869.5,1375,16.0,11.7,76,10.01,167,4.5,300.9,330.6,302.7
869.1,1379,15.9,11.9,77,10.09,167,4.6,300.9,330.9,302.7
868.6,1384,15.9,11.9,77,10.13,167,4.7,300.9,331.0,302.7
868.2,1388,15.8,11.9,77,10.14,168,4.7,300.9,331.0,302.7
867.7,1393,15.8,11.9,78,10.16,168,4.8,300.9,331.1,302.7
867.3,1397,15.8,11.9,78,10.17,169,4.9,300.9,331.1,302.7
866.8,1402,15.7,11.9,78,10.13,169,5.0,300.9,331.0,302.8
866.4,1406,15.7,11.8,77,10.06,170,5.1,301.0,330.8,302.8
865.9,1410,15.7,11.7,77,10.01,171,5.2,301.0,330.7,302.8
865.5,1415,15.7,11.5,76,9.93,172,5.3,301.0,330.5,302.8
865.0,1419,15.7,11.4,75,9.81,172,5.4,301.1,330.2,302.8
864.6,1424,15.7,11.3,75,9.75,173,5.4,301.1,330.1,302.9
864.1,1428,15.7,11.3,75,9.78,174,5.5,301.1,330.2,302.9
863.7,1433,15.7,11.4,76,9.83,175,5.6,301.1,330.4,302.9
863.2,1437,15.6,11.4,76,9.83,176,5.7,301.2,330.4,303.0
862.7,1442,15.6,11.3,75,9.79,176,5.8,301.2,330.3,303.0
862.2,1447,15.6,11.3,76,9.79,177,5.9,301.2,330.4,303.0
861.6,1453,15.5,11.4,76,9.85,178,5.9,301.2,330.5,303.0
861.1,1458,15.5,11.5,77,9.97,178,6.0,301.2,330.9,303.0
860.6,1463,15.4,11.7,79,10.12,178,6.0,301.2,331.3,303.1
860.0,1468,15.4,11.9,80,10.26,179,6.1,301.3,331.7,303.1
859.5,1473,15.4,12.1,81,10.39,179,6.1,301.3,332.2,303.1
859.0,1478,15.3,12.3,82,10.53,179,6.1,301.3,332.6,303.2
858.6,1483,15.3,12.4,83,10.62,179,6.2,301.3,332.8,303.2
858.1,1487,15.3,12.4,83,10.63,179,6.2,301.3,332.9,303.3
857.7,1491,15.3,12.4,83,10.59,179,6.2,301.4,332.8,303.3
857.3,1495,15.3,12.3,83,10.56,179,6.2,301.4,332.8,303.3
856.9,1500,15.2,12.3,83,10.56,179,6.2,301.4,332.8,303.3
856.4,1504,15.2,12.3,83,10.55,178,6.1,301.4,332.8,303.3
856.0,1508,15.2,12.3,83,10.53,178,6.1,301.4,332.7,303.3
855.5,1513,15.1,12.2,83,10.52,178,6.1,301.4,332.7,303.3
855.1,1518,15.1,12.2,83,10.50,177,6.0,301.4,332.7,303.3
854.6,1522,15.1,12.2,83,10.51,177,6.0,301.4,332.7,303.3
854.1,1527,15.0,12.2,83,10.51,176,6.0,301.5,332.7,303.4
853.6,1533,15.0,12.1,83,10.47,176,5.9,301.5,332.6,303.4
853.0,1538,14.9,12.0,82,10.38,175,5.9,301.5,332.3,303.4
852.5,1543,14.9,11.8,81,10.22,175,5.8,301.5,331.9,303.4
852.0,1548,14.9,11.5,80,10.05,174,5.8,301.6,331.5,303.4
851.5,1553,14.9,11.4,80,10.01,174,5.8,301.6,331.4,303.4
851.1,1557,14.9,11.7,81,10.19,173,5.7,301.6,332.0,303.5
850.6,1562,14.8,12.0,83,10.42,173,5.7,301.6,332.6,303.5
850.2,1566,14.8,12.3,85,10.61,172,5.7,301.6,333.1,303.5
850.0,1568,14.7,12.3,85,10.65,172,5.6,301.6,333.2,303.5
849.7,1571,14.7,12.4,86,10.73,172,5.6,301.5,333.4,303.5
849.3,1575,14.6,12.4,87,10.73,172,5.6,301.5,333.4,303.5
848.8,1580,14.6,12.3,86,10.63,172,5.6,301.5,333.1,303.5
848.3,1585,14.6,12.0,84,10.41,171,5.5,301.6,332.6,303.5
847.9,1589,14.6,11.5,82,10.10,171,5.5,301.6,331.7,303.5
847.4,1594,14.6,10.9,78,9.70,171,5.5,301.7,330.6,303.5
846.9,1599,14.6,10.5,76,9.44,171,5.5,301.8,330.0,303.5
846.4,1604,14.7,10.5,76,9.43,172,5.5,301.8,330.0,303.6
845.9,1608,14.6,10.6,77,9.54,172,5.5,301.9,330.4,303.6
845.5,1613,14.6,10.7,77,9.59,172,5.5,301.9,330.5,303.6
845.0,1618,14.6,10.6,77,9.56,172,5.5,301.9,330.5,303.7
844.5,1623,14.6,10.4,76,9.42,172,5.5,302.0,330.1,303.7
844.0,1627,14.6,10.0,74,9.16,173,5.5,302.0,329.5,303.7
843.6,1632,14.6,9.4,71,8.83,173,5.5,302.1,328.6,303.7
843.2,1636,14.7,9.0,69,8.60,174,5.5,302.2,328.0,303.7
842.7,1641,14.7,8.9,68,8.53,174,5.5,302.2,327.8,303.8
842.3,1645,14.6,8.9,68,8.50,174,5.6,302.3,327.8,303.8
841.9,1649,14.6,8.8,68,8.45,175,5.6,302.3,327.6,303.8
841.6,1653,14.6,8.6,67,8.39,175,5.6,302.3,327.5,303.8
841.2,1656,14.6,8.6,67,8.37,176,5.6,302.3,327.5,303.9
840.8,1660,14.6,8.6,67,8.39,176,5.6,302.4,327.6,303.9
840.4,1664,14.6,8.6,67,8.35,177,5.7,302.4,327.6,304.0
840.1,1668,14.7,8.3,66,8.23,177,5.7,302.5,327.2,304.0
839.7,1672,14.7,8.1,65,8.08,177,5.7,302.6,326.9,304.0
839.3,1676,14.7,7.9,64,7.98,178,5.7,302.6,326.6,304.1
838.8,1680,14.7,7.8,63,7.95,178,5.7,302.7,326.6,304.1
838.4,1684,14.7,7.9,63,7.97,178,5.7,302.7,326.7,304.2
837.9,1689,14.7,7.9,64,8.03,179,5.7,302.8,327.0,304.2
837.5,1694,14.7,8.1,65,8.10,179,5.7,302.8,327.2,304.2
837.0,1699,14.6,8.2,66,8.21,179,5.7,302.8,327.5,304.3
836.5,1704,14.6,8.5,67,8.34,179,5.7,302.8,327.9,304.3
