PRES,HGHT,TEMP,DWPT,RELH,MIXR,DRCT,SPED,THTA,THTE,THTV
1010.3,31,20.4,18.0,86,12.95,278,2.8,292.7,329.6,295.0
1010.0,33,21.4,18.1,81,13.01,308,2.1,293.7,330.9,296.0
1009.4,38,21.8,18.1,79,13.04,320,2.1,294.2,331.6,296.5
1008.7,44,22.5,18.2,77,13.16,325,2.2,294.9,332.8,297.2
1007.9,51,23.0,18.3,75,13.22,326,2.4,295.5,333.6,297.8
1007.2,58,23.2,18.2,74,13.20,326,2.5,295.7,333.9,298.1
1006.6,63,23.2,18.2,74,13.19,326,2.6,295.8,333.9,298.1
1006.0,68,23.3,18.4,74,13.33,328,2.7,295.9,334.5,298.3
1005.4,73,23.5,18.7,75,13.65,329,2.8,296.2,335.7,298.6
1004.7,79,23.7,19.1,75,13.95,330,2.9,296.5,336.9,299.0
1004.1,84,23.9,19.3,75,14.15,331,3.0,296.7,337.7,299.2
1003.5,89,24.0,19.4,76,14.27,332,3.1,296.8,338.2,299.4
1002.9,95,24.0,19.5,76,14.37,334,3.1,296.9,338.6,299.4
1002.3,100,24.0,19.7,77,14.52,335,3.2,297.0,339.1,299.5
1001.7,105,24.0,19.8,77,14.66,336,3.2,297.0,339.6,299.6
1001.2,110,24.0,19.8,77,14.71,338,3.3,297.1,339.8,299.7
1000.6,115,24.0,19.9,78,14.76,339,3.3,297.1,339.9,299.7
1000.0,120,24.0,20.0,78,14.85,342,3.3,297.1,340.2,299.7
999.4,125,24.0,20.1,79,14.97,342,3.3,297.2,340.6,299.8
998.9,130,24.0,20.2,79,15.07,343,3.3,297.2,341.0,299.9
998.3,135,24.0,20.2,79,15.09,345,3.3,297.3,341.2,300.0
997.8,140,24.0,20.2,79,15.06,346,3.3,297.3,341.1,300.0
997.3,144,24.0,20.1,79,15.06,348,3.3,297.3,341.1,300.0
996.8,149,24.0,20.2,79,15.07,349,3.2,297.4,341.2,300.1
996.2,153,23.9,20.2,79,15.09,351,3.2,297.4,341.3,300.1
995.7,158,23.9,20.2,80,15.12,353,3.2,297.4,341.4,300.1
995.2,162,23.9,20.2,80,15.15,355,3.1,297.4,341.5,300.1
994.7,167,23.9,20.2,80,15.15,356,3.1,297.5,341.5,300.2
994.2,171,23.8,20.2,80,15.14,358,3.1,297.5,341.5,300.2
993.7,176,23.8,20.2,80,15.12,360,3.0,297.5,341.4,300.2
993.2,180,23.7,20.1,80,15.12,2,3.0,297.5,341.4,300.2
992.6,185,23.7,20.1,80,15.11,4,2.9,297.5,341.4,300.2
992.1,189,23.7,20.1,81,15.11,6,2.9,297.5,341.4,300.2
991.6,194,23.6,20.1,81,15.12,8,2.9,297.5,341.4,300.2
991.2,198,23.6,20.1,81,15.12,10,2.9,297.5,341.5,300.2
990.7,202,23.5,20.1,81,15.15,12,2.8,297.5,341.5,300.2
990.2,206,23.5,20.1,81,15.17,14,2.8,297.5,341.6,300.2
989.7,211,23.5,20.2,82,15.19,17,2.8,297.5,341.6,300.2
989.3,215,23.4,20.2,82,15.20,19,2.8,297.5,341.7,300.2
988.8,219,23.4,20.2,82,15.20,21,2.8,297.5,341.7,300.2
988.3,223,23.3,20.1,82,15.19,23,2.7,297.5,341.7,300.2
987.8,228,23.3,20.1,82,15.20,25,2.7,297.5,341.7,300.2
987.3,233,23.3,20.2,83,15.22,27,2.7,297.5,341.8,300.2
986.7,238,23.2,20.2,83,15.27,28,2.7,297.5,341.9,300.2
986.1,243,23.2,20.2,83,15.30,30,2.7,297.5,342.0,300.2
985.5,248,23.1,20.2,84,15.30,32,2.7,297.5,342.0,300.2
984.9,253,23.1,20.2,84,15.30,34,2.7,297.5,342.0,300.2
984.4,258,23.0,20.2,84,15.32,35,2.7,297.5,342.1,300.2
983.8,264,23.0,20.2,84,15.31,37,2.7,297.5,342.0,300.2
983.2,269,22.9,20.1,84,15.27,38,2.7,297.5,341.9,300.2
982.7,273,22.9,20.1,84,15.23,39,2.7,297.5,341.8,300.2
982.2,278,22.9,20.1,84,15.23,40,2.7,297.5,341.8,300.2
981.7,282,22.8,20.1,84,15.25,41,2.7,297.6,341.9,300.3
981.3,286,22.8,20.1,85,15.27,42,2.7,297.6,342.0,300.3
980.8,290,22.8,20.1,85,15.27,43,2.7,297.6,342.0,300.3
980.3,294,22.7,20.1,85,15.27,44,2.8,297.6,342.0,300.3
979.8,299,22.7,20.1,85,15.29,44,2.8,297.6,342.1,300.3
979.3,303,22.7,20.1,86,15.33,45,2.8,297.6,342.2,300.3
978.8,308,22.6,20.1,86,15.33,45,2.8,297.6,342.2,300.3
978.3,312,22.6,20.1,86,15.34,46,2.8,297.6,342.2,300.3
977.8,317,22.5,20.1,86,15.35,46,2.8,297.6,342.2,300.3
977.3,321,22.5,20.1,87,15.35,46,2.8,297.6,342.2,300.3
976.8,326,22.4,20.1,87,15.33,46,2.8,297.6,342.2,300.3
976.3,330,22.4,20.1,87,15.31,46,2.8,297.6,342.1,300.3
975.8,335,22.3,20.1,87,15.31,46,2.8,297.6,342.1,300.3
975.3,339,22.3,20.0,87,15.30,46,2.8,297.6,342.1,300.3
974.8,344,22.3,20.0,87,15.31,46,2.8,297.6,342.1,300.3
974.3,348,22.2,20.0,87,15.31,46,2.8,297.6,342.1,300.3
973.8,352,22.2,20.0,88,15.31,46,2.8,297.6,342.1,300.3
973.4,357,22.1,20.0,88,15.31,46,2.9,297.6,342.1,300.3
972.9,361,22.1,20.0,88,15.31,46,2.9,297.6,342.1,300.3
972.4,365,22.1,20.0,88,15.31,46,2.9,297.6,342.1,300.3
971.9,370,22.0,20.0,88,15.31,46,2.9,297.6,342.1,300.3
971.4,375,22.0,20.0,88,15.30,46,2.9,297.6,342.1,300.3
970.8,379,21.9,20.0,89,15.30,46,2.9,297.6,342.1,300.3
970.3,384,21.9,19.9,89,15.29,46,2.9,297.6,342.1,300.3
969.7,389,21.8,19.9,89,15.28,46,2.9,297.6,342.0,300.3
969.2,394,21.8,19.9,89,15.26,46,2.9,297.6,342.0,300.3
968.6,399,21.8,19.9,89,15.25,47,2.9,297.6,342.0,300.3
968.0,404,21.7,19.8,89,15.23,47,2.9,297.6,341.9,300.3
967.5,410,21.7,19.8,89,15.20,47,2.9,297.6,341.8,300.3
966.9,415,21.6,19.8,89,15.19,47,2.9,297.6,341.8,300.3
966.3,420,21.6,19.8,89,15.19,47,2.9,297.6,341.8,300.3
965.7,425,21.5,19.8,90,15.20,48,2.9,297.6,341.9,300.3
965.1,431,21.5,19.8,90,15.21,48,2.9,297.6,341.9,300.3
964.6,436,21.4,19.8,90,15.20,48,2.9,297.6,341.8,300.3
964.0,440,21.4,19.7,90,15.17,49,2.9,297.6,341.8,300.3
963.5,445,21.3,19.7,90,15.15,49,2.9,297.6,341.7,300.3
963.0,450,21.3,19.7,91,15.17,50,2.9,297.6,341.8,300.3
962.5,454,21.3,19.7,91,15.20,50,2.9,297.7,341.9,300.4
962.1,458,21.2,19.7,91,15.22,51,2.9,297.6,341.9,300.3
961.6,463,21.2,19.7,91,15.21,52,2.9,297.6,341.9,300.4
961.1,467,21.2,19.7,91,15.19,52,2.9,297.7,341.8,300.4
960.7,471,21.1,19.7,91,15.18,53,2.9,297.7,341.8,300.4
960.2,475,21.1,19.7,92,15.19,54,2.9,297.6,341.8,300.4
959.7,479,21.0,19.6,92,15.15,54,2.9,297.7,341.7,300.4
959.3,484,21.0,19.5,91,15.07,55,2.8,297.7,341.5,300.3
958.8,488,21.0,19.5,91,15.01,56,2.8,297.7,341.4,300.4
958.3,492,21.0,19.4,91,14.99,57,2.8,297.7,341.4,300.4
957.8,496,20.9,19.4,91,14.99,58,2.7,297.7,341.4,300.4
957.3,501,20.9,19.4,91,14.99,59,2.7,297.7,341.4,300.4
956.8,505,20.9,19.4,91,15.00,60,2.7,297.7,341.4,300.4
956.3,510,20.8,19.4,92,15.00,61,2.7,297.7,341.4,300.4
955.8,515,20.8,19.4,92,14.98,62,2.6,297.7,341.4,300.4
955.2,520,20.7,19.4,92,14.98,63,2.6,297.7,341.3,300.4
954.7,525,20.7,19.3,92,14.96,65,2.5,297.7,341.3,300.4
954.1,530,20.6,19.3,92,14.95,66,2.5,297.7,341.3,300.4
953.6,535,20.6,19.3,92,14.93,67,2.5,297.7,341.2,300.4
953.0,540,20.5,19.2,92,14.88,68,2.4,297.7,341.0,300.4
952.5,545,20.5,19.1,92,14.79,69,2.4,297.8,340.8,300.4
951.9,550,20.5,19.1,92,14.73,70,2.3,297.8,340.7,300.4
951.4,555,20.4,19.0,92,14.72,71,2.3,297.8,340.6,300.4
950.8,560,20.4,19.0,92,14.73,72,2.3,297.8,340.7,300.4
950.3,565,20.3,19.0,92,14.72,73,2.2,297.8,340.7,300.4
949.8,570,20.3,19.0,92,14.68,74,2.2,297.8,340.6,300.4
949.3,574,20.3,18.9,92,14.63,75,2.2,297.8,340.4,300.4
948.7,579,20.2,18.8,92,14.57,76,2.2,297.8,340.3,300.4
948.2,584,20.2,18.8,91,14.52,77,2.2,297.8,340.1,300.4
947.7,589,20.2,18.7,91,14.47,77,2.2,297.8,340.0,300.4
947.2,594,20.1,18.7,91,14.44,78,2.2,297.9,339.9,300.4
946.7,598,20.1,18.6,91,14.42,79,2.2,297.9,339.9,300.4
946.2,603,20.1,18.6,91,14.43,79,2.2,297.9,339.9,300.5
945.7,607,20.0,18.6,92,14.45,80,2.2,297.9,340.0,300.5
945.2,612,20.0,18.7,92,14.48,81,2.2,297.9,340.1,300.5
944.7,616,20.0,18.7,92,14.47,82,2.3,297.9,340.1,300.5
944.2,621,19.9,18.6,92,14.45,82,2.3,297.9,340.1,300.5
943.7,626,19.9,18.6,92,14.42,83,2.4,298.0,340.0,300.5
943.2,630,19.9,18.5,92,14.39,84,2.4,298.0,339.9,300.5
942.6,635,19.8,18.5,92,14.36,84,2.4,298.0,339.8,300.5
942.1,640,19.8,18.5,92,14.34,85,2.5,298.0,339.8,300.6
941.6,645,19.8,18.4,92,14.32,85,2.5,298.0,339.7,300.6
941.1,649,19.7,18.4,92,14.29,86,2.6,298.0,339.7,300.6
940.6,654,19.7,18.4,92,14.27,86,2.6,298.0,339.6,300.6
940.0,659,19.7,18.3,92,14.25,87,2.7,298.0,339.6,300.6
939.5,664,19.6,18.3,92,14.23,87,2.7,298.0,339.5,300.6
939.0,668,19.6,18.3,92,14.20,88,2.8,298.0,339.4,300.6
938.5,673,19.5,18.2,92,14.16,88,2.8,298.0,339.3,300.6
938.0,678,19.5,18.1,92,14.09,88,2.9,298.1,339.2,300.6
937.5,682,19.5,18.0,91,14.03,88,2.9,298.1,339.0,300.6
937.1,686,19.5,18.0,91,13.98,89,2.9,298.1,338.9,300.6
936.6,691,19.5,18.0,91,13.98,88,2.9,298.1,338.9,300.6
936.1,695,19.4,18.0,91,14.00,88,2.9,298.1,339.0,300.6
935.7,699,19.4,18.0,92,14.04,88,2.9,298.1,339.1,300.7
935.2,703,19.3,18.0,92,14.06,88,2.9,298.1,339.2,300.7
934.8,708,19.3,18.1,93,14.09,88,2.9,298.1,339.2,300.6
934.3,712,19.2,18.1,93,14.09,87,2.9,298.1,339.2,300.6
933.8,716,19.2,18.1,93,14.09,87,2.9,298.1,339.2,300.6
933.4,721,19.2,18.1,93,14.11,86,2.8,298.1,339.3,300.6
932.9,725,19.1,18.1,94,14.11,86,2.8,298.1,339.3,300.6
932.4,729,19.1,18.0,94,14.08,85,2.7,298.1,339.2,300.6
931.9,734,19.1,17.9,93,14.02,85,2.7,298.1,339.1,300.7
931.4,739,19.0,17.9,93,13.97,84,2.6,298.2,338.9,300.7
930.9,743,19.0,17.8,93,13.93,84,2.5,298.2,338.8,300.7
930.4,748,19.0,17.8,93,13.91,83,2.5,298.2,338.8,300.7
929.9,752,18.9,17.7,93,13.87,83,2.4,298.2,338.6,300.7
929.4,757,18.9,17.7,93,13.81,82,2.3,298.2,338.5,300.7
928.9,762,18.9,17.6,92,13.76,82,2.2,298.2,338.4,300.7
928.4,767,18.8,17.5,92,13.72,82,2.1,298.2,338.3,300.7
927.9,772,18.8,17.5,92,13.72,82,2.0,298.3,338.3,300.7
927.3,777,18.8,17.6,93,13.75,82,1.9,298.3,338.4,300.7
926.8,782,18.7,17.6,93,13.78,82,1.8,298.3,338.5,300.7
926.2,787,18.7,17.5,93,13.75,83,1.7,298.3,338.4,300.8
925.6,792,18.6,17.4,93,13.67,84,1.6,298.3,338.2,300.8
925.1,797,18.6,17.3,92,13.56,85,1.5,298.3,337.9,300.8
925.0,798,18.6,17.3,92,13.53,87,1.4,298.4,337.9,300.8
924.6,802,18.6,17.2,91,13.44,87,1.4,298.4,337.7,300.8
924.0,807,18.6,17.1,91,13.36,89,1.3,298.4,337.5,300.8
923.5,812,18.6,17.0,91,13.34,91,1.2,298.5,337.4,300.8
923.0,817,18.6,17.0,91,13.32,93,1.1,298.5,337.4,300.9
922.5,821,18.6,16.9,90,13.27,97,1.0,298.5,337.3,300.9
922.0,826,18.5,16.9,90,13.21,100,1.0,298.5,337.2,300.9
921.5,830,18.5,16.8,89,13.14,104,0.9,298.6,337.0,300.9
921.1,835,18.5,16.7,89,13.08,108,0.9,298.6,336.9,301.0
920.6,839,18.5,16.7,89,13.06,112,0.8,298.6,336.9,301.0
920.1,844,18.5,16.6,89,13.05,117,0.8,298.7,336.8,301.0
919.6,848,18.5,16.6,89,13.04,121,0.8,298.7,336.8,301.0
919.1,853,18.4,16.5,89,12.99,125,0.7,298.7,336.7,301.0
918.6,858,18.4,16.4,88,12.88,128,0.7,298.7,336.4,301.0
918.1,862,18.4,16.2,87,12.70,131,0.7,298.7,335.9,301.0
917.6,868,18.4,15.9,85,12.45,132,0.7,298.8,335.3,301.0
917.0,873,18.5,15.5,83,12.16,133,0.7,298.9,334.6,301.1
916.5,878,18.5,15.2,81,11.90,134,0.7,299.0,334.0,301.2
915.9,883,18.6,14.9,79,11.70,134,0.7,299.1,333.5,301.2
915.4,888,18.6,14.7,78,11.59,133,0.7,299.2,333.2,301.3
914.8,893,18.6,14.7,78,11.59,132,0.8,299.2,333.3,301.3
914.3,899,18.5,14.8,79,11.67,130,0.8,299.3,333.6,301.4
913.7,904,18.5,15.0,80,11.81,129,0.8,299.3,334.0,301.4
913.2,909,18.5,15.1,81,11.93,127,0.8,299.3,334.3,301.4
912.6,914,18.4,15.2,81,11.95,126,0.9,299.3,334.4,301.4
912.1,919,18.4,15.1,81,11.93,124,0.9,299.3,334.3,301.4
911.5,924,18.3,15.1,81,11.91,123,0.9,299.3,334.3,301.4
910.9,930,18.3,15.1,82,11.90,122,1.0,299.3,334.3,301.4
910.4,935,18.2,15.1,82,11.91,122,1.0,299.3,334.3,301.4
909.7,941,18.2,15.1,82,11.94,121,1.1,299.3,334.4,301.5
909.1,947,18.1,15.1,83,11.97,121,1.1,299.3,334.5,301.5
908.5,953,18.1,15.1,83,11.97,121,1.2,299.3,334.5,301.5
907.8,959,18.0,15.0,83,11.93,122,1.2,299.3,334.4,301.4
907.2,965,17.9,14.9,83,11.86,123,1.3,299.3,334.1,301.4
906.6,971,17.9,14.9,82,11.81,123,1.3,299.3,334.0,301.4
906.0,976,17.8,14.8,82,11.77,124,1.4,299.3,333.9,301.4
905.5,981,17.8,14.8,83,11.78,125,1.5,299.3,333.9,301.4
905.0,986,17.8,14.8,83,11.80,126,1.5,299.3,334.0,301.4
904.5,991,17.7,14.9,83,11.83,127,1.6,299.3,334.1,301.5
904.0,995,17.7,14.9,83,11.85,128,1.6,299.4,334.2,301.5
903.5,1000,17.7,14.9,84,11.88,129,1.7,299.4,334.3,301.5
903.0,1005,17.6,14.9,84,11.88,130,1.7,299.4,334.3,301.5
902.5,1009,17.6,14.8,84,11.84,130,1.8,299.4,334.2,301.5
902.1,1014,17.6,14.8,83,11.80,131,1.8,299.4,334.2,301.6
901.6,1019,17.6,14.7,83,11.78,131,1.8,299.5,334.1,301.6
901.1,1023,17.6,14.7,83,11.77,131,1.9,299.5,334.1,301.6
900.6,1028,17.6,14.7,83,11.77,131,1.9,299.5,334.2,301.7
900.1,1032,17.5,14.7,84,11.79,131,1.9,299.6,334.3,301.7
899.7,1037,17.5,14.8,84,11.81,131,1.8,299.6,334.3,301.7
899.2,1041,17.5,14.8,84,11.82,130,1.8,299.6,334.4,301.7
898.7,1046,17.5,14.8,84,11.83,129,1.8,299.6,334.4,301.7
898.2,1051,17.4,14.8,84,11.84,128,1.7,299.6,334.5,301.7
897.7,1056,17.4,14.8,85,11.84,126,1.7,299.6,334.5,301.7
897.1,1061,17.3,14.7,85,11.83,125,1.6,299.6,334.4,301.8
896.6,1066,17.3,14.7,85,11.81,123,1.5,299.6,334.4,301.7
896.1,1071,17.2,14.7,85,11.80,121,1.4,299.6,334.3,301.7
895.5,1076,17.2,14.7,85,11.81,118,1.3,299.6,334.4,301.8
895.0,1081,17.1,14.7,86,11.84,114,1.2,299.6,334.5,301.8
894.5,1086,17.1,14.7,86,11.85,111,1.1,299.6,334.5,301.7
894.0,1091,17.0,14.7,86,11.87,106,1.0,299.6,334.5,301.7
893.5,1096,17.0,14.7,87,11.89,100,0.9,299.6,334.6,301.8
893.0,1100,16.9,14.8,87,11.90,92,0.8,299.6,334.6,301.8
892.5,1105,16.9,14.7,87,11.89,82,0.7,299.6,334.6,301.8
892.0,1110,16.9,14.7,87,11.84,69,0.6,299.6,334.5,301.8
891.5,1115,16.9,14.6,86,11.78,53,0.5,299.7,334.4,301.8
891.0,1120,16.8,14.5,86,11.73,36,0.5,299.7,334.2,301.8
890.5,1125,16.8,14.4,86,11.70,18,0.5,299.7,334.1,301.8
889.9,1130,16.8,14.4,86,11.66,4,0.6,299.7,334.1,301.8
889.4,1135,16.7,14.4,86,11.66,353,0.7,299.7,334.1,301.8
888.9,1140,16.7,14.4,86,11.65,344,0.7,299.7,334.1,301.8
888.3,1145,16.6,14.3,86,11.65,337,0.8,299.7,334.1,301.8
887.8,1150,16.6,14.3,87,11.64,332,0.9,299.8,334.0,301.8
887.3,1155,16.5,14.3,87,11.64,328,1.0,299.8,334.0,301.9
886.8,1160,16.5,14.3,87,11.61,324,1.0,299.8,334.0,301.8
886.3,1164,16.5,14.2,87,11.58,321,1.1,299.8,333.9,301.9
885.9,1169,16.4,14.2,87,11.57,319,1.1,299.8,333.9,301.9
885.4,1173,16.4,14.2,87,11.58,317,1.1,299.8,333.9,301.9
885.0,1178,16.4,14.2,87,11.58,315,1.1,299.8,333.9,301.9
884.5,1182,16.3,14.2,87,11.60,313,1.1,299.8,334.0,301.9
884.1,1186,16.3,14.2,88,11.62,312,1.1,299.8,334.0,301.9
883.6,1191,16.2,14.3,88,11.64,312,1.0,299.8,334.1,301.9
883.1,1195,16.2,14.3,88,11.66,311,1.0,299.8,334.1,301.9
882.7,1200,16.2,14.3,89,11.66,312,0.9,299.8,334.2,301.9
882.2,1204,16.1,14.3,89,11.67,313,0.8,299.8,334.2,301.9
881.7,1209,16.1,14.3,89,11.68,314,0.7,299.8,334.2,301.9
881.2,1214,16.0,14.3,89,11.68,318,0.7,299.8,334.2,301.9
880.7,1219,16.0,14.2,89,11.67,323,0.6,299.8,334.2,301.9
880.2,1224,16.0,14.2,89,11.65,330,0.5,299.8,334.2,301.9
879.7,1228,15.9,14.2,90,11.65,340,0.4,299.8,334.2,301.9
879.2,1233,15.9,14.2,90,11.65,354,0.4,299.8,334.2,301.9
878.7,1238,15.8,14.2,90,11.66,8,0.4,299.9,334.2,302.0
878.3,1242,15.8,14.2,90,11.69,20,0.4,299.9,334.3,302.0
877.8,1247,15.8,14.3,91,11.75,30,0.5,299.9,334.5,302.0
877.3,1252,15.7,14.4,92,11.81,36,0.5,299.9,334.7,302.0
876.8,1257,15.7,14.4,92,11.83,39,0.6,299.9,334.8,302.1
876.2,1262,15.7,14.4,92,11.82,41,0.7,300.0,334.8,302.1
875.7,1267,15.7,14.3,91,11.80,41,0.8,300.0,334.8,302.1
875.2,1272,15.7,14.3,91,11.79,41,0.8,300.0,334.8,302.2
874.7,1277,15.7,14.3,91,11.78,39,0.9,300.1,334.8,302.2
874.2,1282,15.6,14.2,91,11.75,37,1.0,300.1,334.7,302.2
873.7,1287,15.6,14.2,91,11.73,35,1.0,300.1,334.7,302.2
873.2,1292,15.6,14.2,91,11.71,32,1.1,300.1,334.6,302.2
872.7,1297,15.5,14.1,91,11.67,29,1.2,300.1,334.6,302.2
872.2,1302,15.5,14.0,91,11.62,26,1.2,300.2,334.4,302.2
871.6,1307,15.5,13.9,91,11.57,23,1.3,300.2,334.3,302.3
871.1,1312,15.4,13.9,90,11.53,21,1.4,300.2,334.2,302.3
870.6,1317,15.4,13.8,90,11.47,18,1.4,300.2,334.1,302.3
870.1,1322,15.4,13.7,89,11.40,16,1.5,300.3,333.9,302.3
869.6,1327,15.4,13.6,89,11.31,15,1.6,300.3,333.7,302.4
869.0,1332,15.4,13.4,88,11.19,13,1.6,300.4,333.5,302.4
868.5,1337,15.4,13.1,86,10.95,12,1.7,300.4,332.8,302.4
868.0,1342,15.4,12.5,82,10.53,12,1.7,300.5,331.7,302.4
867.5,1348,15.5,11.7,78,10.02,11,1.8,300.6,330.4,302.4
866.9,1353,15.6,11.2,75,9.67,11,1.8,300.8,329.5,302.5
866.4,1358,15.6,10.9,73,9.47,12,1.8,300.8,329.0,302.5
865.9,1363,15.6,10.5,71,9.22,13,1.8,300.9,328.3,302.6
865.4,1368,15.7,10.0,69,8.92,14,1.8,301.0,327.6,302.6
864.9,1373,15.7,9.4,66,8.61,16,1.8,301.1,326.8,302.6
864.3,1378,15.8,8.8,63,8.24,19,1.8,301.2,325.9,302.7
863.8,1383,15.9,7.9,59,7.74,22,1.8,301.4,324.6,302.8
863.3,1388,16.0,6.9,55,7.27,25,1.8,301.6,323.4,302.9
862.8,1393,16.1,6.7,54,7.16,29,1.8,301.7,323.3,303.0
862.4,1398,16.1,7.1,55,7.35,33,1.8,301.8,323.9,303.1
861.9,1403,16.1,7.7,58,7.70,38,1.8,301.8,324.9,303.2
861.4,1408,16.1,8.7,62,8.24,42,1.8,301.8,326.5,303.3
860.9,1412,15.9,9.8,67,8.87,47,1.8,301.7,328.3,303.3
860.4,1417,15.8,10.4,70,9.23,52,1.9,301.7,329.2,303.3
859.9,1422,15.8,10.4,70,9.25,57,1.9,301.6,329.2,303.3
859.4,1427,15.7,10.2,70,9.11,61,2.0,301.6,328.9,303.3
858.9,1432,15.7,10.0,69,8.98,65,2.0,301.7,328.5,303.3
858.4,1437,15.7,9.8,68,8.87,69,2.1,301.8,328.3,303.4
857.9,1442,15.7,9.5,66,8.69,73,2.2,301.8,327.8,303.4
857.4,1447,15.8,8.8,63,8.33,76,2.2,301.9,326.9,303.4
856.9,1452,15.9,7.7,58,7.73,79,2.3,302.1,325.3,303.5
856.4,1457,16.1,6.4,53,7.07,82,2.4,302.3,323.7,303.6
855.9,1462,16.2,5.4,49,6.57,84,2.4,302.5,322.4,303.7
855.4,1467,16.3,4.3,45,6.10,86,2.5,302.6,321.2,303.7
854.9,1471,16.4,3.0,41,5.55,88,2.5,302.8,319.8,303.8
854.5,1476,16.5,2.0,38,5.18,90,2.6,303.0,318.8,303.9
854.0,1481,16.6,1.5,36,5.00,91,2.6,303.1,318.4,304.0
853.5,1486,16.6,1.1,35,4.86,92,2.6,303.2,318.1,304.0
853.0,1491,16.6,0.8,34,4.74,93,2.6,303.2,317.9,304.1
852.5,1496,16.6,0.6,34,4.68,94,2.6,303.3,317.8,304.2
851.9,1501,16.6,0.4,33,4.64,95,2.6,303.3,317.7,304.2
851.4,1507,16.6,0.3,33,4.61,96,2.6,303.3,317.6,304.2
850.8,1513,16.5,0.3,33,4.59,97,2.6,303.3,317.5,304.2
850.3,1518,16.5,0.2,33,4.58,97,2.6,303.4,317.5,304.2
850.0,1521,16.5,0.3,33,4.59,97,2.6,303.4,317.5,304.2
849.8,1523,16.4,0.3,33,4.60,98,2.6,303.4,317.6,304.2
849.3,1528,16.4,0.4,34,4.64,98,2.6,303.4,317.7,304.2
848.8,1532,16.4,0.5,34,4.66,98,2.5,303.4,317.8,304.2
848.4,1537,16.3,0.4,34,4.66,98,2.5,303.4,317.8,304.3
847.9,1541,16.3,0.3,34,4.63,97,2.5,303.4,317.7,304.3
847.5,1545,16.3,0.2,33,4.58,97,2.5,303.5,317.6,304.3
847.1,1550,16.3,0.0,33,4.53,96,2.5,303.5,317.5,304.3
846.6,1554,16.3,-0.1,33,4.50,96,2.5,303.6,317.5,304.4
846.1,1559,16.3,-0.3,32,4.44,95,2.5,303.6,317.4,304.4
845.7,1564,16.3,-0.7,31,4.31,94,2.5,303.6,317.0,304.4
845.2,1569,16.3,-1.3,30,4.13,93,2.5,303.6,316.5,304.4
844.7,1574,16.3,-1.8,29,3.97,91,2.5,303.7,316.1,304.4
844.2,1579,16.3,-2.1,28,3.89,90,2.6,303.7,315.9,304.5
843.7,1583,16.2,-2.3,28,3.84,89,2.6,303.8,315.7,304.5
843.3,1588,16.2,-2.6,27,3.73,87,2.6,303.8,315.5,304.5
842.8,1593,16.2,-3.1,26,3.60,86,2.7,303.8,315.1,304.5
842.4,1597,16.2,-3.5,26,3.50,84,2.7,303.9,314.9,304.5
841.9,1602,16.2,-3.6,26,3.49,83,2.7,303.9,314.9,304.6
841.4,1607,16.2,-3.3,26,3.55,81,2.8,304.0,315.1,304.6
840.9,1612,16.1,-3.3,26,3.57,79,2.8,304.0,315.2,304.6
840.4,1617,16.1,-3.8,25,3.43,78,2.9,304.0,314.7,304.6
839.9,1622,16.1,-4.9,23,3.17,76,2.9,304.0,314.0,304.6
839.4,1627,16.1,-5.9,22,2.94,75,3.0,304.1,313.4,304.6
838.9,1632,16.1,-6.4,21,2.82,73,3.0,304.1,313.1,304.6
838.5,1637,16.1,-7.1,20,2.67,72,3.1,304.1,312.6,304.6
838.0,1641,16.1,-8.4,18,2.41,71,3.1,304.2,311.9,304.6
837.5,1646,16.1,-10.1,16,2.13,69,3.2,304.3,311.1,304.7
837.1,1651,16.1,-11.6,14,1.88,68,3.2,304.3,310.4,304.7
836.6,1656,16.1,-12.8,12,1.71,67,3.3,304.4,310.0,304.7
836.1,1661,16.1,-13.4,12,1.62,66,3.3,304.4,309.8,304.7
835.6,1666,16.1,-13.6,12,1.60,65,3.4,304.5,309.7,304.8
835.1,1671,16.0,-13.7,12,1.59,64,3.4,304.5,309.7,304.8
834.7,1675,16.0,-14.1,11,1.54,63,3.4,304.5,309.5,304.8
834.2,1680,16.0,-14.7,11,1.47,62,3.5,304.5,309.3,304.8
833.8,1684,16.0,-15.7,10,1.35,61,3.5,304.5,309.0,304.8
833.4,1688,16.0,-17.2,9,1.20,60,3.5,304.6,308.5,304.8
833.0,1692,16.0,-18.7,8,1.05,60,3.6,304.6,308.2,304.8
832.6,1696,16.0,-19.7,7,0.97,59,3.6,304.7,308.0,304.9
832.2,1700,16.0,-19.9,7,0.95,59,3.6,304.7,307.9,304.9
831.7,1705,16.0,-20.2,7,0.93,59,3.6,304.7,307.9,304.9
831.3,1709,15.9,-21.0,6,0.86,59,3.7,304.8,307.7,304.9
830.8,1714,15.9,-22.1,6,0.78,59,3.7,304.8,307.5,304.9
830.3,1720,15.9,-22.7,6,0.75,59,3.7,304.8,307.4,304.9
829.8,1725,15.8,-22.9,5,0.73,59,3.7,304.8,307.3,304.9
829.2,1730,15.8,-23.2,5,0.71,59,3.7,304.8,307.3,304.9
828.7,1736,15.7,-23.4,5,0.70,60,3.7,304.8,307.2,305.0
828.2,1741,15.7,-23.5,5,0.70,60,3.7,304.8,307.2,305.0
827.7,1746,15.7,-23.6,5,0.69,61,3.8,304.9,307.2,305.0
827.2,1751,15.6,-23.7,5,0.68,61,3.8,304.9,307.2,305.0
826.8,1755,15.6,-23.9,5,0.67,62,3.8,304.9,307.2,305.0
826.3,1760,15.6,-24.3,5,0.65,62,3.8,304.9,307.1,305.0
825.9,1765,15.5,-24.8,5,0.62,63,3.8,304.9,307.0,305.0
825.4,1769,15.5,-25.2,5,0.60,63,3.8,304.9,307.0,305.0
825.0,1774,15.5,-25.0,5,0.61,64,3.8,305.0,307.1,305.1
