PRES,HGHT,TEMP,DWPT,RELH,MIXR,DRCT,SPED,THTA,THTE,THTV
1018.1,31,27.2,18.8,60,13.54,59,5.0,298.8,338.5,301.2
1017.4,36,26.4,18.4,61,13.21,61,4.4,298.1,336.7,300.4
1016.9,41,26.0,18.4,63,13.23,62,4.5,297.7,336.3,300.1
1016.3,46,25.8,18.4,64,13.21,62,4.7,297.6,336.1,299.9
1015.7,51,25.6,18.2,63,13.04,63,5.0,297.5,335.5,299.8
1015.2,56,25.5,18.0,63,12.89,63,5.4,297.4,334.9,299.7
1014.6,61,25.5,18.0,63,12.87,63,5.7,297.4,334.9,299.7
1013.9,67,25.6,17.9,63,12.85,63,6.0,297.6,335.0,299.9
1013.3,72,25.6,17.8,62,12.75,64,6.2,297.6,334.8,299.9
1012.6,78,25.4,17.7,62,12.64,64,6.5,297.5,334.4,299.8
1012.0,84,25.3,17.6,62,12.60,64,6.8,297.4,334.2,299.7
1011.4,89,25.2,17.6,63,12.59,64,7.0,297.4,334.0,299.6
1010.8,94,25.1,17.6,63,12.61,65,7.3,297.3,334.1,299.6
1010.2,99,25.1,17.6,63,12.67,65,7.5,297.4,334.3,299.7
1009.6,104,25.0,17.6,63,12.64,65,7.7,297.3,334.2,299.6
1009.0,109,24.8,17.5,64,12.57,65,7.9,297.1,333.7,299.4
1008.5,114,24.6,17.5,65,12.53,65,8.1,297.0,333.5,299.2
1007.9,119,24.5,17.4,65,12.53,65,8.2,296.9,333.4,299.2
1007.3,125,24.4,17.4,65,12.51,65,8.4,296.9,333.3,299.2
1006.7,130,24.4,17.4,65,12.50,65,8.5,297.0,333.3,299.2
1006.0,135,24.5,17.5,65,12.58,65,8.6,297.1,333.7,299.3
1005.4,141,24.5,17.6,65,12.66,64,8.7,297.2,334.0,299.4
1004.7,147,24.4,17.5,66,12.61,64,8.8,297.1,333.8,299.4
1004.0,153,24.1,17.4,66,12.56,64,8.9,296.9,333.5,299.2
1003.3,159,24.0,17.5,67,12.60,63,8.9,296.8,333.5,299.1
1002.7,165,23.9,17.5,68,12.66,63,9.0,296.8,333.6,299.0
1002.0,171,23.8,17.5,68,12.67,62,9.0,296.8,333.6,299.0
1001.3,177,23.7,17.5,68,12.68,61,9.0,296.8,333.6,299.0
1000.7,182,23.7,17.5,68,12.68,61,9.0,296.8,333.6,299.0
1000.1,188,23.6,17.5,68,12.66,60,9.0,296.7,333.5,299.0
1000.0,188,23.6,17.5,68,12.65,59,9.0,296.8,333.5,299.0
999.5,193,23.6,17.4,69,12.64,59,9.0,296.8,333.5,299.0
998.9,198,23.5,17.4,69,12.62,59,9.0,296.8,333.4,299.0
998.3,203,23.5,17.3,68,12.51,58,9.0,296.8,333.1,299.0
997.8,208,23.4,16.9,67,12.25,57,9.0,296.7,332.4,298.9
997.2,213,23.3,16.6,66,11.99,56,8.9,296.7,331.6,298.9
996.7,217,23.3,16.5,65,11.90,55,8.9,296.7,331.3,298.8
996.1,222,23.2,16.5,66,11.91,55,8.9,296.7,331.3,298.8
995.6,227,23.2,16.5,66,11.94,54,8.9,296.7,331.4,298.8
995.0,232,23.1,16.5,66,11.94,53,8.9,296.7,331.4,298.8
994.5,237,23.1,16.5,66,11.94,53,8.9,296.7,331.4,298.8
993.9,242,23.0,16.5,67,11.94,52,8.8,296.7,331.4,298.8
993.3,247,23.0,16.5,67,11.93,52,8.8,296.7,331.4,298.8
992.8,252,23.0,16.4,67,11.92,51,8.8,296.7,331.4,298.8
992.2,257,22.9,16.4,67,11.93,51,8.8,296.7,331.4,298.8
991.6,262,22.9,16.5,67,11.96,51,8.9,296.7,331.5,298.8
991.0,267,22.8,16.5,67,11.96,50,8.9,296.7,331.5,298.8
990.4,273,22.7,16.4,67,11.93,50,8.9,296.7,331.4,298.8
989.8,278,22.7,16.3,67,11.89,50,8.9,296.7,331.3,298.8
989.2,283,22.7,16.3,67,11.88,50,8.9,296.7,331.3,298.8
988.7,288,22.6,16.4,68,11.91,50,8.9,296.7,331.4,298.8
988.1,292,22.6,16.4,68,11.95,50,8.9,296.7,331.5,298.9
987.6,297,22.5,16.4,68,11.97,50,8.9,296.7,331.5,298.8
987.1,302,22.5,16.4,69,11.97,51,9.0,296.7,331.5,298.8
986.5,307,22.4,16.4,69,11.94,51,9.0,296.7,331.4,298.8
986.0,311,22.4,16.3,69,11.91,51,9.0,296.7,331.3,298.8
985.5,316,22.3,16.3,69,11.90,51,9.0,296.7,331.3,298.8
984.9,321,22.3,16.3,69,11.92,52,9.0,296.7,331.4,298.8
984.4,325,22.2,16.3,69,11.93,52,9.1,296.7,331.4,298.8
983.9,330,22.2,16.3,69,11.94,52,9.1,296.7,331.4,298.8
983.3,335,22.2,16.3,70,11.96,52,9.1,296.7,331.5,298.9
982.7,340,22.1,16.3,70,11.95,52,9.1,296.7,331.5,298.9
982.2,345,22.1,16.3,70,11.94,53,9.1,296.7,331.4,298.8
981.6,350,22.0,16.3,70,11.92,53,9.2,296.7,331.4,298.8
981.1,355,22.0,16.2,70,11.91,53,9.2,296.7,331.3,298.8
980.5,360,21.9,16.2,70,11.91,53,9.2,296.7,331.4,298.8
980.0,365,21.9,16.3,70,11.94,53,9.2,296.7,331.4,298.8
979.4,370,21.8,16.3,71,11.98,54,9.2,296.7,331.5,298.8
978.9,374,21.8,16.3,71,11.99,54,9.3,296.7,331.5,298.8
978.3,379,21.7,16.3,71,11.97,54,9.3,296.7,331.5,298.8
977.8,384,21.7,16.2,71,11.93,54,9.3,296.7,331.4,298.8
977.3,389,21.6,16.1,71,11.89,54,9.4,296.7,331.3,298.8
976.7,393,21.6,16.1,71,11.87,54,9.4,296.7,331.2,298.8
976.2,398,21.5,16.1,71,11.89,54,9.5,296.7,331.3,298.8
975.7,402,21.5,16.2,72,11.92,55,9.5,296.7,331.4,298.8
975.3,407,21.4,16.2,72,11.94,55,9.6,296.7,331.4,298.8
974.8,411,21.4,16.2,72,11.94,55,9.6,296.7,331.4,298.8
974.3,415,21.4,16.2,72,11.95,55,9.7,296.7,331.5,298.8
973.8,420,21.3,16.2,73,11.96,55,9.8,296.7,331.5,298.8
973.3,424,21.3,16.2,73,11.98,55,9.8,296.7,331.5,298.8
972.8,428,21.2,16.2,73,11.98,55,9.9,296.7,331.5,298.8
972.3,433,21.2,16.2,73,11.98,56,10.0,296.7,331.5,298.8
971.8,437,21.1,16.2,73,11.97,56,10.0,296.7,331.5,298.8
971.3,442,21.1,16.1,73,11.96,56,10.1,296.7,331.5,298.8
970.8,446,21.1,16.1,73,11.96,56,10.2,296.7,331.5,298.8
970.3,450,21.0,16.1,74,11.97,56,10.2,296.7,331.5,298.8
969.9,455,21.0,16.2,74,11.99,56,10.3,296.7,331.6,298.8
969.4,459,20.9,16.2,74,12.04,57,10.3,296.7,331.7,298.8
968.9,464,20.9,16.3,75,12.11,57,10.3,296.7,331.9,298.8
968.4,468,20.8,16.3,75,12.15,57,10.4,296.7,332.0,298.8
967.9,472,20.8,16.3,76,12.13,57,10.4,296.7,331.9,298.8
967.4,476,20.7,16.3,75,12.10,57,10.4,296.7,331.8,298.8
967.0,481,20.7,16.2,75,12.06,57,10.4,296.7,331.7,298.8
966.5,485,20.7,16.1,75,12.02,58,10.4,296.7,331.6,298.8
966.0,489,20.6,16.1,75,12.03,58,10.3,296.7,331.7,298.8
965.5,493,20.6,16.2,76,12.09,58,10.3,296.7,331.8,298.9
965.0,498,20.6,16.3,77,12.15,58,10.2,296.7,332.0,298.9
964.5,502,20.5,16.3,77,12.20,58,10.2,296.7,332.1,298.9
964.0,507,20.4,16.4,77,12.22,58,10.1,296.7,332.2,298.9
963.5,512,20.4,16.3,77,12.17,58,10.1,296.7,332.0,298.8
963.0,517,20.3,16.2,77,12.10,58,10.0,296.7,331.8,298.8
962.4,521,20.3,16.1,77,12.06,59,9.9,296.7,331.7,298.8
961.9,526,20.3,16.1,77,12.07,59,9.8,296.7,331.7,298.8
961.4,531,20.2,16.1,77,12.07,59,9.7,296.7,331.7,298.8
960.9,535,20.2,16.1,77,12.04,59,9.6,296.7,331.7,298.8
960.4,540,20.1,16.0,77,12.01,59,9.6,296.7,331.6,298.8
959.9,544,20.1,16.0,77,12.00,59,9.5,296.7,331.6,298.8
959.4,549,20.1,16.0,78,12.01,59,9.4,296.7,331.6,298.8
958.8,554,20.0,16.0,78,12.04,59,9.3,296.7,331.7,298.8
958.3,559,20.0,16.1,78,12.06,60,9.3,296.7,331.7,298.8
957.8,563,19.9,16.0,78,12.05,60,9.2,296.7,331.7,298.8
957.2,568,19.9,16.0,78,12.01,60,9.1,296.7,331.6,298.8
956.7,573,19.8,16.0,79,12.02,60,9.1,296.7,331.6,298.8
956.2,578,19.8,16.0,79,12.05,60,9.1,296.7,331.7,298.8
955.6,583,19.7,16.0,79,12.09,60,9.0,296.7,331.8,298.8
955.1,588,19.7,16.1,80,12.10,60,9.0,296.7,331.8,298.8
954.6,592,19.6,16.0,80,12.09,61,9.0,296.7,331.8,298.8
954.0,597,19.6,16.0,80,12.09,61,9.0,296.7,331.8,298.8
953.5,602,19.5,16.0,80,12.10,61,9.0,296.7,331.8,298.8
952.9,607,19.5,16.0,80,12.11,61,9.0,296.7,331.9,298.8
952.4,612,19.4,16.0,81,12.10,61,9.0,296.7,331.8,298.8
951.8,617,19.4,16.0,81,12.06,62,9.0,296.7,331.7,298.8
951.3,622,19.3,15.9,81,12.04,62,9.0,296.7,331.7,298.8
950.8,626,19.3,15.9,81,12.03,62,9.1,296.7,331.6,298.8
950.3,631,19.2,15.9,81,12.04,62,9.1,296.7,331.7,298.8
949.8,635,19.2,15.9,81,12.04,62,9.1,296.7,331.7,298.8
949.3,640,19.2,15.9,81,12.03,63,9.1,296.7,331.7,298.8
948.9,644,19.1,15.9,81,12.02,63,9.2,296.7,331.6,298.8
948.4,648,19.1,15.8,81,12.01,63,9.2,296.7,331.6,298.8
947.9,652,19.0,15.9,82,12.04,63,9.2,296.7,331.7,298.8
947.5,657,19.0,15.9,82,12.09,63,9.3,296.7,331.8,298.8
947.0,661,19.0,16.0,83,12.13,64,9.3,296.7,331.9,298.8
946.5,665,18.9,16.0,83,12.16,64,9.3,296.7,332.0,298.9
946.0,670,18.9,16.0,83,12.16,64,9.4,296.7,332.0,298.9
945.5,674,18.8,16.0,83,12.15,64,9.4,296.7,332.0,298.8
945.0,679,18.8,15.9,84,12.15,64,9.4,296.7,332.0,298.9
944.5,683,18.7,15.9,84,12.13,64,9.4,296.7,331.9,298.8
944.0,688,18.7,15.9,84,12.11,64,9.5,296.7,331.9,298.8
943.5,693,18.6,15.9,84,12.13,65,9.5,296.7,331.9,298.8
942.9,698,18.6,15.9,85,12.17,65,9.5,296.7,332.0,298.9
942.4,703,18.5,16.0,85,12.24,65,9.6,296.7,332.2,298.9
941.9,707,18.5,16.1,86,12.31,65,9.6,296.7,332.4,298.9
941.4,712,18.4,16.1,87,12.34,65,9.6,296.6,332.5,298.8
941.0,716,18.4,16.1,87,12.34,65,9.6,296.6,332.5,298.8
940.5,720,18.3,16.1,87,12.32,65,9.7,296.6,332.4,298.8
940.1,724,18.3,16.1,87,12.31,65,9.7,296.6,332.4,298.8
939.6,728,18.3,16.1,87,12.31,65,9.7,296.6,332.4,298.8
939.2,732,18.2,16.1,87,12.31,65,9.7,296.6,332.4,298.8
938.7,736,18.2,16.0,87,12.31,65,9.8,296.7,332.4,298.8
938.3,740,18.2,16.0,87,12.30,65,9.8,296.6,332.4,298.8
937.9,744,18.1,16.0,87,12.29,65,9.8,296.7,332.4,298.8
937.4,748,18.1,16.0,88,12.32,65,9.8,296.7,332.4,298.9
937.0,752,18.0,16.1,88,12.36,65,9.9,296.7,332.5,298.9
936.5,757,18.0,16.1,89,12.39,65,9.9,296.6,332.6,298.9
936.0,761,18.0,16.1,89,12.41,65,9.9,296.7,332.7,298.9
935.5,766,17.9,16.1,89,12.38,65,9.9,296.6,332.6,298.9
934.9,771,17.9,16.0,89,12.34,65,9.9,296.7,332.5,298.8
934.4,776,17.8,15.9,89,12.28,65,9.9,296.7,332.3,298.8
933.8,782,17.8,15.9,89,12.22,65,10.0,296.7,332.2,298.8
933.2,787,17.7,15.7,88,12.14,65,10.0,296.7,331.9,298.8
932.6,793,17.7,15.6,88,12.03,65,10.0,296.7,331.6,298.8
932.0,798,17.6,15.5,87,11.95,65,10.0,296.7,331.4,298.8
931.4,804,17.6,15.5,87,11.95,65,10.0,296.7,331.4,298.8
930.8,809,17.6,15.5,88,12.01,65,10.0,296.7,331.6,298.9
930.2,814,17.5,15.5,88,12.02,65,10.0,296.7,331.7,298.9
929.6,820,17.5,15.6,89,12.05,65,10.0,296.7,331.7,298.9
929.1,825,17.4,15.6,89,12.11,65,10.0,296.7,331.9,298.9
928.5,831,17.3,15.7,90,12.14,65,10.0,296.7,332.0,298.9
927.9,836,17.3,15.6,90,12.13,65,10.0,296.7,332.0,298.9
927.3,841,17.2,15.6,90,12.10,65,10.1,296.7,331.9,298.9
926.7,847,17.2,15.5,90,12.06,65,10.1,296.7,331.8,298.9
926.1,852,17.1,15.5,90,12.08,65,10.1,296.7,331.8,298.9
925.5,858,17.1,15.6,91,12.17,65,10.1,296.7,332.1,298.9
925.0,863,17.0,15.7,92,12.23,65,10.1,296.7,332.2,298.9
924.9,863,17.0,15.7,92,12.23,65,10.1,296.7,332.2,298.9
924.4,869,16.9,15.7,92,12.20,65,10.1,296.7,332.1,298.9
923.8,874,16.9,15.4,91,12.01,66,10.1,296.7,331.6,298.8
923.2,879,16.9,14.9,88,11.64,66,10.1,296.7,330.6,298.8
922.6,885,16.9,14.4,85,11.23,66,10.1,296.8,329.5,298.8
922.1,890,16.9,14.0,83,10.99,66,10.1,296.9,328.9,298.9
921.5,895,16.9,14.0,83,10.96,66,10.1,296.9,328.9,298.9
921.0,899,16.9,14.0,83,10.98,66,10.1,297.0,329.0,298.9
920.6,904,16.9,14.0,83,10.97,66,10.1,297.0,328.9,298.9
920.1,908,16.8,13.9,83,10.92,66,10.1,297.0,328.8,298.9
919.6,913,16.8,13.7,82,10.79,66,10.1,297.0,328.5,298.9
919.1,917,16.8,13.5,81,10.61,66,10.1,297.0,328.0,298.9
918.6,922,16.8,13.3,80,10.51,67,10.1,297.1,327.8,299.0
918.1,927,16.8,13.3,80,10.49,67,10.1,297.1,327.7,299.0
917.6,932,16.8,13.2,79,10.43,67,10.0,297.1,327.6,299.0
917.0,937,16.8,12.9,78,10.26,67,10.0,297.2,327.2,299.0
916.5,942,16.8,12.5,76,9.99,67,10.0,297.2,326.5,299.0
915.9,947,16.8,12.1,74,9.72,68,10.0,297.3,325.8,299.1
915.3,952,16.8,11.9,73,9.60,68,10.0,297.4,325.5,299.1
914.8,957,16.8,11.8,72,9.52,68,9.9,297.4,325.3,299.1
914.3,962,16.8,11.5,71,9.34,68,9.9,297.5,324.8,299.1
913.8,967,16.8,11.1,69,9.14,68,9.9,297.5,324.4,299.2
913.3,971,16.8,10.9,68,8.99,69,9.9,297.6,324.0,299.2
912.8,976,16.9,10.7,67,8.91,69,9.8,297.7,323.9,299.3
912.3,980,16.8,10.7,67,8.91,69,9.8,297.7,323.9,299.3
911.8,985,16.8,10.8,67,8.93,69,9.8,297.7,324.0,299.3
911.3,990,16.8,10.8,68,8.93,69,9.7,297.7,324.0,299.3
910.8,994,16.7,10.7,67,8.90,69,9.7,297.7,323.9,299.3
910.3,999,16.7,10.6,67,8.85,69,9.7,297.8,323.8,299.3
909.8,1004,16.7,10.5,67,8.82,69,9.7,297.8,323.7,299.4
909.3,1008,16.7,10.5,67,8.82,68,9.6,297.8,323.7,299.4
908.8,1013,16.6,10.5,67,8.83,68,9.6,297.8,323.8,299.4
908.3,1018,16.6,10.6,68,8.84,68,9.6,297.8,323.8,299.4
907.7,1023,16.5,10.6,68,8.86,68,9.6,297.8,323.8,299.4
907.2,1029,16.5,10.6,68,8.87,67,9.5,297.8,323.9,299.4
906.6,1035,16.4,10.6,68,8.88,67,9.5,297.8,323.9,299.4
906.0,1040,16.3,10.6,69,8.87,66,9.5,297.8,323.8,299.3
905.3,1046,16.3,10.5,69,8.86,66,9.4,297.7,323.8,299.3
904.7,1052,16.2,10.5,69,8.85,65,9.4,297.7,323.8,299.3
904.2,1057,16.2,10.5,69,8.84,65,9.4,297.8,323.8,299.3
903.6,1062,16.1,10.5,69,8.83,64,9.4,297.8,323.8,299.4
903.0,1068,16.1,10.5,69,8.84,64,9.3,297.8,323.8,299.4
902.5,1073,16.0,10.5,70,8.85,63,9.3,297.8,323.8,299.4
902.0,1078,16.0,10.5,70,8.84,63,9.3,297.8,323.8,299.4
901.4,1083,16.0,10.4,70,8.83,62,9.3,297.8,323.8,299.4
900.9,1088,15.9,10.4,70,8.81,61,9.3,297.8,323.7,299.4
900.4,1093,15.9,10.3,70,8.79,61,9.2,297.8,323.7,299.4
899.9,1097,15.8,10.4,70,8.81,61,9.2,297.8,323.7,299.4
899.4,1102,15.8,10.4,70,8.82,60,9.2,297.8,323.8,299.4
898.9,1106,15.8,10.4,70,8.83,60,9.1,297.8,323.8,299.4
898.5,1111,15.7,10.4,71,8.84,60,9.1,297.8,323.9,299.4
898.0,1116,15.7,10.4,71,8.85,59,9.1,297.8,323.9,299.4
897.5,1120,15.6,10.4,71,8.86,59,9.1,297.9,323.9,299.4
897.0,1125,15.6,10.4,71,8.87,59,9.0,297.8,323.9,299.4
896.5,1130,15.5,10.4,71,8.88,59,9.0,297.8,324.0,299.4
895.9,1135,15.5,10.4,72,8.88,59,8.9,297.8,324.0,299.4
895.4,1140,15.4,10.4,72,8.88,59,8.9,297.8,324.0,299.4
894.9,1145,15.4,10.4,72,8.89,60,8.8,297.9,324.0,299.4
894.4,1149,15.4,10.4,72,8.90,60,8.8,297.9,324.0,299.5
893.9,1154,15.3,10.4,73,8.91,60,8.7,297.9,324.1,299.5
893.4,1159,15.3,10.4,73,8.91,60,8.6,297.9,324.1,299.5
892.9,1163,15.2,10.4,73,8.91,61,8.6,297.9,324.1,299.5
892.4,1168,15.2,10.4,73,8.90,61,8.5,297.9,324.0,299.4
891.9,1173,15.1,10.4,73,8.90,61,8.4,297.9,324.0,299.5
891.4,1178,15.1,10.4,73,8.90,61,8.3,297.9,324.0,299.5
890.9,1183,15.0,10.4,74,8.92,62,8.2,297.9,324.1,299.5
890.3,1188,15.0,10.4,74,8.93,62,8.2,297.9,324.1,299.5
889.8,1193,14.9,10.4,74,8.94,62,8.1,297.9,324.1,299.5
889.3,1198,14.9,10.4,74,8.94,63,8.0,297.8,324.1,299.5
888.7,1203,14.8,10.3,74,8.91,63,7.9,297.9,324.1,299.5
888.2,1208,14.8,10.2,74,8.86,63,7.8,297.9,323.9,299.5
887.7,1213,14.8,10.2,74,8.81,63,7.8,297.9,323.8,299.5
887.3,1217,14.7,10.1,74,8.78,63,7.7,297.9,323.7,299.5
886.8,1222,14.7,10.0,73,8.73,63,7.6,297.9,323.6,299.5
886.3,1227,14.7,9.9,73,8.68,63,7.6,297.9,323.5,299.5
885.8,1232,14.7,9.8,73,8.61,63,7.5,298.0,323.3,299.5
885.3,1236,14.7,9.6,72,8.52,63,7.5,298.0,323.1,299.5
884.8,1241,14.7,9.5,71,8.43,62,7.5,298.1,323.0,299.6
884.3,1246,14.7,9.4,70,8.37,62,7.5,298.2,322.9,299.7
883.8,1250,14.7,9.3,70,8.34,62,7.5,298.2,322.8,299.7
883.3,1255,14.7,9.2,70,8.31,62,7.5,298.2,322.8,299.7
882.9,1259,14.7,9.2,70,8.30,61,7.6,298.3,322.8,299.8
882.4,1264,14.7,9.2,70,8.30,61,7.6,298.3,322.8,299.8
881.9,1269,14.6,9.2,70,8.29,60,7.7,298.3,322.8,299.8
881.4,1274,14.6,9.1,70,8.27,60,7.7,298.3,322.7,299.8
880.8,1279,14.6,9.1,70,8.25,60,7.8,298.3,322.7,299.8
880.3,1284,14.5,9.0,70,8.23,60,7.9,298.3,322.7,299.8
879.7,1290,14.5,9.0,69,8.19,59,8.0,298.4,322.6,299.9
879.1,1295,14.5,8.9,69,8.14,59,8.1,298.4,322.5,299.9
878.6,1300,14.5,8.8,69,8.11,59,8.3,298.5,322.5,299.9
878.1,1306,14.5,8.8,68,8.10,59,8.4,298.5,322.5,300.0
877.6,1310,14.5,8.8,69,8.13,59,8.5,298.6,322.6,300.0
877.1,1315,14.5,8.9,69,8.17,59,8.6,298.6,322.8,300.1
876.6,1320,14.5,8.9,69,8.19,60,8.7,298.6,322.9,300.1
876.1,1324,14.4,8.9,69,8.19,60,8.9,298.6,322.9,300.1
875.7,1329,14.4,8.9,70,8.20,61,9.0,298.6,322.9,300.1
875.2,1333,14.4,8.9,70,8.21,61,9.1,298.7,323.0,300.1
874.8,1338,14.3,8.9,70,8.23,62,9.2,298.7,323.0,300.1
874.3,1342,14.3,8.9,70,8.23,62,9.3,298.7,323.0,300.1
873.8,1347,14.2,8.9,70,8.23,63,9.4,298.7,323.0,300.1
873.4,1351,14.2,8.9,71,8.23,64,9.5,298.7,323.0,300.1
872.9,1356,14.1,8.9,71,8.22,65,9.6,298.7,323.0,300.1
872.4,1360,14.1,8.9,71,8.22,65,9.7,298.7,323.0,300.1
871.9,1365,14.0,8.9,71,8.21,66,9.8,298.7,323.0,300.1
871.4,1370,14.0,8.9,71,8.23,67,9.8,298.7,323.0,300.1
870.9,1374,14.0,8.9,72,8.24,68,9.9,298.7,323.1,300.1
870.5,1379,13.9,8.9,72,8.25,69,9.9,298.7,323.1,300.1
870.0,1384,13.9,8.9,72,8.28,70,10.0,298.7,323.2,300.2
869.5,1388,13.8,9.0,73,8.30,71,10.0,298.7,323.2,300.2
869.0,1393,13.8,9.0,73,8.33,72,10.1,298.7,323.3,300.2
868.5,1398,13.7,9.1,73,8.37,73,10.1,298.7,323.4,300.2
868.0,1403,13.7,9.2,74,8.45,74,10.1,298.7,323.6,300.2
867.5,1408,13.6,9.4,76,8.57,75,10.1,298.7,324.0,300.2
867.0,1413,13.6,9.6,77,8.70,76,10.1,298.7,324.4,300.2
866.4,1419,13.5,9.7,78,8.76,76,10.1,298.7,324.5,300.2
865.9,1424,13.5,9.7,78,8.78,77,10.1,298.7,324.6,300.2
865.3,1429,13.4,9.8,79,8.84,78,10.1,298.7,324.8,300.3
864.8,1434,13.4,9.9,79,8.91,78,10.1,298.7,325.0,300.3
864.3,1439,13.4,10.0,80,8.98,79,10.1,298.7,325.2,300.3
863.9,1443,13.4,10.1,81,9.04,80,10.0,298.8,325.4,300.4
863.4,1448,13.4,10.2,81,9.09,80,10.0,298.8,325.6,300.4
862.9,1452,13.4,10.3,82,9.16,80,10.0,298.8,325.9,300.5
862.5,1457,13.3,10.4,83,9.24,81,9.9,298.8,326.1,300.5
862.0,1462,13.3,10.5,83,9.30,81,9.9,298.8,326.3,300.5
861.5,1466,13.2,10.6,84,9.33,81,9.8,298.9,326.4,300.5
861.0,1471,13.2,10.6,84,9.35,81,9.8,298.9,326.4,300.5
860.5,1476,13.2,10.6,85,9.38,81,9.8,298.9,326.5,300.5
860.0,1482,13.1,10.7,85,9.41,81,9.7,298.9,326.6,300.5
859.4,1487,13.0,10.7,86,9.43,81,9.7,298.9,326.7,300.5
858.9,1492,13.0,10.7,86,9.43,81,9.7,298.8,326.7,300.5
858.4,1497,12.9,10.7,86,9.45,80,9.7,298.8,326.7,300.5
857.8,1502,12.9,10.7,87,9.47,80,9.7,298.9,326.8,300.6
857.3,1507,12.9,10.7,87,9.50,80,9.7,298.9,326.9,300.6
856.8,1512,12.8,10.8,87,9.52,79,9.7,298.9,326.9,300.6
856.3,1517,12.8,10.8,88,9.53,79,9.7,298.9,327.0,300.6
855.8,1522,12.7,10.8,88,9.55,79,9.7,298.9,327.0,300.6
855.3,1527,12.7,10.8,88,9.55,78,9.7,298.9,327.0,300.6
854.8,1532,12.6,10.8,88,9.53,78,9.8,298.9,327.0,300.6
854.3,1537,12.6,10.7,88,9.50,77,9.8,298.9,326.9,300.6
853.8,1542,12.6,10.7,88,9.48,77,9.9,298.9,326.9,300.6
853.3,1547,12.5,10.6,88,9.48,76,9.9,298.9,326.9,300.6
852.8,1552,12.5,10.7,89,9.49,76,10.0,298.9,326.9,300.6
852.3,1557,12.4,10.7,89,9.50,76,10.0,298.9,326.9,300.6
851.8,1562,12.4,10.6,89,9.49,76,10.1,298.9,326.9,300.6
851.3,1566,12.4,10.6,89,9.48,75,10.2,298.9,326.9,300.6
850.8,1571,12.3,10.6,89,9.47,75,10.2,298.9,326.9,300.7
850.4,1576,12.3,10.6,89,9.46,75,10.3,298.9,326.8,300.6
850.0,1580,12.2,10.5,89,9.45,75,10.3,299.0,326.8,300.7
849.9,1581,12.2,10.5,89,9.45,75,10.4,299.0,326.8,300.7
849.4,1586,12.2,10.5,89,9.43,75,10.4,299.0,326.8,300.7
848.9,1591,12.2,10.5,89,9.41,75,10.5,299.0,326.7,300.7
848.4,1595,12.1,10.4,89,9.39,75,10.5,299.0,326.7,300.7
847.9,1600,12.1,10.4,90,9.39,75,10.6,299.0,326.7,300.7
847.5,1605,12.0,10.4,90,9.38,75,10.6,299.0,326.7,300.7
847.0,1609,12.0,10.4,90,9.40,76,10.7,299.0,326.7,300.7
846.6,1613,12.0,10.4,90,9.41,76,10.7,299.0,326.8,300.7
846.1,1618,12.0,10.4,90,9.42,76,10.7,299.1,326.9,300.8
845.7,1622,11.9,10.5,91,9.44,76,10.7,299.1,326.9,300.8
845.3,1626,11.9,10.5,91,9.46,77,10.8,299.1,327.0,300.8
844.8,1631,11.9,10.5,91,9.45,77,10.8,299.1,327.0,300.8
844.4,1635,11.8,10.4,91,9.43,77,10.8,299.1,326.9,300.8
843.9,1640,11.8,10.4,91,9.40,78,10.8,299.1,326.8,300.8
843.5,1644,11.8,10.4,91,9.40,78,10.8,299.1,326.8,300.8
843.0,1649,11.7,10.3,91,9.40,79,10.8,299.1,326.9,300.8
842.5,1654,11.7,10.3,91,9.38,79,10.8,299.2,326.8,300.9
842.1,1658,11.7,10.1,90,9.28,80,10.8,299.2,326.6,300.9
841.6,1663,11.7,9.8,88,9.06,80,10.8,299.3,326.1,300.9
841.1,1668,11.8,9.3,84,8.76,81,10.8,299.4,325.4,301.0
840.6,1673,11.9,8.9,81,8.52,81,10.8,299.6,324.9,301.1
840.1,1677,12.0,8.7,80,8.45,81,10.8,299.7,324.8,301.2
839.7,1682,12.0,8.8,81,8.48,82,10.8,299.7,324.9,301.3
839.2,1687,12.0,8.8,81,8.49,82,10.8,299.7,324.9,301.3
838.7,1691,11.9,8.8,81,8.50,82,10.8,299.8,325.0,301.3
838.3,1696,11.9,8.8,81,8.50,83,10.8,299.8,325.0,301.3
837.8,1700,11.9,8.8,81,8.49,83,10.8,299.8,325.0,301.3
837.4,1705,11.8,8.7,81,8.48,83,10.8,299.8,325.0,301.3
836.9,1709,11.8,8.7,81,8.46,83,10.9,299.8,324.9,301.3
836.5,1714,11.7,8.6,81,8.43,83,10.9,299.8,324.8,301.3
836.0,1719,11.7,8.6,81,8.40,83,10.9,299.8,324.8,301.3
835.5,1724,11.7,8.5,81,8.35,83,10.9,299.8,324.6,301.3
835.1,1728,11.6,8.4,81,8.32,83,10.9,299.8,324.5,301.3
834.6,1733,11.6,8.4,81,8.30,83,10.9,299.8,324.5,301.3
834.1,1737,11.6,8.3,81,8.29,83,10.9,299.9,324.5,301.4
833.7,1742,11.5,8.3,81,8.29,82,10.9,299.9,324.5,301.4
833.3,1746,11.5,8.3,81,8.29,82,11.0,299.9,324.5,301.4
832.8,1751,11.5,8.3,81,8.29,82,11.0,299.9,324.5,301.4
832.4,1755,11.5,8.3,81,8.29,81,11.0,299.9,324.5,301.4
831.9,1760,11.4,8.3,81,8.30,81,11.0,299.9,324.6,301.4
831.4,1765,11.4,8.3,82,8.31,81,11.0,299.9,324.6,301.4
831.0,1769,11.3,8.3,82,8.32,80,11.1,299.9,324.7,301.4
830.5,1774,11.3,8.3,82,8.33,80,11.1,299.9,324.7,301.4
830.0,1779,11.2,8.3,82,8.32,79,11.1,299.9,324.6,301.4
829.5,1784,11.2,8.3,82,8.30,79,11.1,299.9,324.6,301.4
829.1,1789,11.1,8.2,82,8.27,78,11.2,299.9,324.5,301.4
