PRES,HGHT,TEMP,DWPT,RELH,MIXR,DRCT,SPED,THTA,THTE,THTV
1016.5,31,24.6,20.3,77,14.94,70,7.8,296.4,339.6,299.0
1015.7,38,24.9,19.8,73,14.50,62,5.2,296.8,338.8,299.3
1015.3,41,24.9,19.8,73,14.50,57,4.6,296.8,338.9,299.4
1014.6,47,24.9,19.8,73,14.48,55,4.6,296.8,338.8,299.4
1014.0,52,24.9,19.8,73,14.44,56,5.0,296.8,338.7,299.4
1013.4,58,24.8,19.7,73,14.39,56,5.3,296.8,338.6,299.4
1012.7,63,24.8,19.6,73,14.32,57,5.7,296.9,338.4,299.4
1012.0,69,24.7,19.5,73,14.28,57,5.9,296.9,338.3,299.4
1011.4,75,24.7,19.5,73,14.27,57,6.2,296.9,338.3,299.4
1010.7,81,24.6,19.5,73,14.27,57,6.4,296.9,338.3,299.4
1010.0,87,24.6,19.5,73,14.28,58,6.7,296.9,338.3,299.4
1009.3,93,24.5,19.5,74,14.27,58,6.9,296.9,338.3,299.4
1008.7,99,24.5,19.5,74,14.28,58,7.1,296.9,338.3,299.4
1008.0,105,24.4,19.5,74,14.30,58,7.3,296.9,338.4,299.4
1007.3,111,24.4,19.5,74,14.33,58,7.4,296.9,338.5,299.4
1006.6,116,24.3,19.5,75,14.36,59,7.6,296.9,338.5,299.4
1006.0,122,24.2,19.5,75,14.35,59,7.8,296.9,338.5,299.4
1005.3,128,24.2,19.5,75,14.33,59,7.9,296.9,338.5,299.4
1004.7,133,24.1,19.5,75,14.35,60,8.0,296.9,338.5,299.4
1004.0,139,24.1,19.6,76,14.41,60,8.1,296.9,338.7,299.5
1003.4,144,24.0,19.6,76,14.45,60,8.2,296.9,338.8,299.5
1002.8,150,24.0,19.6,77,14.46,61,8.3,296.9,338.8,299.5
1002.2,155,23.9,19.6,77,14.45,61,8.4,296.9,338.8,299.4
1001.5,161,23.9,19.6,77,14.44,62,8.5,296.9,338.8,299.4
1000.9,166,23.8,19.6,77,14.46,62,8.6,296.9,338.9,299.5
1000.3,172,23.8,19.5,77,14.45,62,8.7,296.9,338.8,299.5
1000.0,174,23.7,19.5,77,14.44,62,8.7,296.9,338.8,299.4
999.7,177,23.7,19.5,77,14.42,63,8.7,296.9,338.7,299.4
999.1,182,23.7,19.5,77,14.40,63,8.8,296.9,338.7,299.4
998.6,187,23.6,19.5,78,14.40,64,8.8,296.9,338.7,299.4
998.0,192,23.6,19.4,78,14.39,64,8.9,296.9,338.6,299.4
997.5,196,23.5,19.4,78,14.36,65,8.9,296.9,338.6,299.4
996.9,201,23.5,19.4,78,14.35,65,9.0,296.9,338.5,299.4
996.4,206,23.4,19.4,78,14.39,66,9.0,296.9,338.6,299.4
995.8,211,23.4,19.5,79,14.44,66,9.0,296.9,338.8,299.4
995.2,216,23.3,19.5,79,14.48,67,9.0,296.9,338.9,299.5
994.6,222,23.3,19.5,79,14.51,67,9.1,296.9,339.0,299.5
994.0,227,23.2,19.5,80,14.51,68,9.1,296.9,339.0,299.5
993.4,232,23.2,19.5,80,14.47,68,9.1,296.9,338.9,299.4
992.9,237,23.1,19.4,80,14.41,68,9.1,296.9,338.7,299.4
992.3,242,23.1,19.4,80,14.39,69,9.1,296.9,338.6,299.4
991.7,247,23.0,19.4,80,14.40,69,9.1,296.9,338.7,299.4
991.2,252,23.0,19.3,80,14.39,69,9.1,296.9,338.6,299.4
990.6,257,22.9,19.3,80,14.37,69,9.0,296.9,338.6,299.4
990.0,262,22.9,19.3,80,14.36,70,9.0,296.9,338.6,299.4
989.4,267,22.8,19.3,80,14.37,70,9.0,296.9,338.6,299.4
988.9,272,22.8,19.3,81,14.36,70,9.0,296.9,338.5,299.4
988.3,277,22.7,19.2,81,14.35,70,8.9,296.9,338.5,299.4
987.7,283,22.7,19.2,81,14.35,70,8.9,296.9,338.5,299.4
987.1,288,22.6,19.2,81,14.35,70,8.9,296.9,338.5,299.4
986.6,293,22.6,19.2,81,14.34,70,8.9,296.9,338.5,299.4
986.0,297,22.5,19.2,81,14.33,70,8.8,296.9,338.4,299.4
985.5,302,22.5,19.2,82,14.32,70,8.8,296.9,338.4,299.4
984.9,307,22.4,19.2,82,14.33,70,8.8,296.9,338.4,299.4
984.3,312,22.4,19.2,82,14.34,70,8.7,296.9,338.5,299.4
983.8,318,22.3,19.1,82,14.33,70,8.7,296.9,338.4,299.4
983.2,323,22.3,19.1,82,14.31,70,8.7,296.9,338.4,299.4
982.5,328,22.2,19.1,83,14.33,69,8.7,296.9,338.5,299.4
981.9,334,22.2,19.2,83,14.37,69,8.6,296.9,338.6,299.4
981.2,340,22.1,19.2,83,14.40,69,8.6,296.9,338.7,299.5
980.6,346,22.1,19.2,84,14.42,69,8.6,296.9,338.7,299.5
979.9,352,22.0,19.2,84,14.40,69,8.6,296.9,338.7,299.4
979.2,358,21.9,19.1,84,14.36,69,8.6,296.9,338.5,299.4
978.6,364,21.9,19.0,84,14.31,68,8.6,296.8,338.4,299.4
977.9,369,21.8,19.0,84,14.29,68,8.6,296.9,338.3,299.4
977.3,375,21.8,19.0,84,14.30,68,8.6,296.9,338.3,299.4
976.8,380,21.7,19.0,85,14.32,68,8.5,296.9,338.4,299.4
976.2,385,21.7,19.0,85,14.33,68,8.5,296.9,338.4,299.4
975.7,390,21.6,19.0,85,14.32,67,8.5,296.9,338.4,299.4
975.1,394,21.6,19.0,85,14.32,67,8.5,296.9,338.4,299.4
974.6,399,21.5,19.0,85,14.34,67,8.5,296.9,338.5,299.4
974.0,404,21.5,19.0,86,14.36,67,8.5,296.9,338.5,299.4
973.5,409,21.5,19.0,86,14.34,66,8.5,296.9,338.5,299.4
973.0,413,21.4,18.9,86,14.30,66,8.5,296.9,338.4,299.4
972.5,418,21.4,18.9,86,14.30,66,8.5,296.9,338.4,299.4
972.0,423,21.3,18.9,86,14.28,66,8.5,296.9,338.3,299.4
971.4,427,21.3,18.9,86,14.28,66,8.5,296.9,338.3,299.4
970.9,432,21.2,18.9,86,14.28,65,8.5,296.9,338.3,299.4
970.4,436,21.2,18.9,87,14.30,65,8.5,296.9,338.4,299.4
969.9,441,21.2,18.9,87,14.29,65,8.5,296.9,338.3,299.4
969.4,446,21.1,18.8,87,14.27,65,8.5,296.9,338.3,299.4
968.8,450,21.1,18.8,87,14.26,65,8.5,296.9,338.2,299.4
968.3,455,21.0,18.8,87,14.28,65,8.5,296.9,338.3,299.4
967.8,460,21.0,18.8,88,14.29,65,8.5,296.9,338.3,299.4
967.3,465,20.9,18.8,88,14.30,64,8.5,296.9,338.4,299.4
966.7,470,20.9,18.8,88,14.30,64,8.5,296.9,338.4,299.4
966.1,475,20.8,18.8,88,14.31,64,8.5,296.9,338.4,299.4
965.6,480,20.8,18.8,89,14.30,64,8.5,296.9,338.4,299.4
965.0,485,20.7,18.8,89,14.29,64,8.5,296.9,338.3,299.4
964.5,490,20.7,18.8,89,14.28,64,8.5,296.9,338.3,299.4
963.9,495,20.6,18.7,89,14.26,64,8.5,296.9,338.2,299.4
963.4,500,20.6,18.7,89,14.25,64,8.5,296.9,338.2,299.4
962.8,505,20.5,18.7,89,14.28,64,8.5,296.9,338.3,299.4
962.3,510,20.5,18.8,90,14.33,64,8.5,296.9,338.5,299.4
961.7,514,20.4,18.8,90,14.38,64,8.5,296.9,338.6,299.4
961.2,519,20.4,18.8,91,14.37,63,8.5,296.9,338.6,299.4
960.7,524,20.4,18.8,91,14.33,63,8.5,296.9,338.4,299.4
960.2,529,20.3,18.7,91,14.31,63,8.5,296.9,338.4,299.4
959.7,533,20.3,18.7,91,14.32,63,8.5,296.9,338.4,299.4
959.2,538,20.2,18.8,91,14.34,63,8.5,296.9,338.5,299.4
958.6,542,20.2,18.8,92,14.36,63,8.4,296.9,338.5,299.4
958.1,547,20.1,18.8,92,14.37,63,8.4,296.9,338.6,299.4
957.6,552,20.1,18.7,92,14.36,63,8.4,296.9,338.5,299.4
957.1,556,20.1,18.7,92,14.34,63,8.4,296.9,338.5,299.4
956.6,561,20.0,18.7,92,14.32,63,8.4,296.9,338.4,299.4
956.0,566,20.0,18.7,92,14.30,62,8.5,296.9,338.4,299.4
955.5,571,19.9,18.6,92,14.28,62,8.5,296.9,338.3,299.4
955.0,575,19.9,18.6,92,14.27,62,8.5,296.9,338.3,299.4
954.5,580,19.8,18.6,93,14.28,62,8.5,296.9,338.3,299.4
954.0,584,19.8,18.6,93,14.30,62,8.5,296.9,338.4,299.4
953.5,589,19.7,18.7,93,14.34,62,8.5,296.9,338.5,299.5
953.0,593,19.7,18.7,94,14.35,62,8.6,296.9,338.5,299.5
952.6,597,19.7,18.7,94,14.35,62,8.6,296.9,338.5,299.4
952.1,602,19.6,18.6,94,14.32,62,8.6,296.9,338.4,299.4
951.6,606,19.6,18.6,94,14.29,62,8.7,296.9,338.3,299.4
951.0,611,19.5,18.6,94,14.30,62,8.7,296.9,338.4,299.4
950.5,616,19.5,18.6,95,14.35,62,8.7,296.9,338.5,299.5
950.0,621,19.4,18.6,95,14.38,62,8.8,296.9,338.6,299.5
949.5,625,19.4,18.6,95,14.38,62,8.8,296.9,338.6,299.5
948.9,630,19.3,18.6,95,14.33,62,8.8,296.9,338.5,299.4
948.4,635,19.3,18.5,95,14.27,62,8.9,296.9,338.3,299.4
947.9,640,19.3,18.5,95,14.24,62,8.9,296.9,338.2,299.4
947.4,644,19.2,18.5,95,14.26,62,8.9,296.9,338.3,299.4
946.9,649,19.2,18.5,96,14.27,62,8.9,296.9,338.3,299.5
946.3,654,19.1,18.4,96,14.24,62,8.9,296.9,338.2,299.5
945.8,659,19.1,18.3,95,14.14,62,8.9,296.9,337.9,299.4
945.3,664,19.1,18.1,94,14.00,62,8.9,296.9,337.6,299.4
944.7,669,19.0,18.0,94,13.87,63,8.9,296.9,337.2,299.4
944.2,673,19.0,17.8,93,13.67,63,8.9,297.0,336.6,299.4
943.7,678,19.0,17.5,91,13.47,63,8.9,297.0,336.1,299.4
943.2,683,19.0,17.5,91,13.45,63,8.8,297.1,336.1,299.4
942.7,687,19.0,17.5,91,13.51,63,8.8,297.1,336.3,299.5
942.2,692,18.9,17.6,92,13.54,63,8.8,297.1,336.4,299.5
941.7,696,18.9,17.6,92,13.53,63,8.7,297.1,336.4,299.5
941.2,701,18.9,17.5,92,13.49,63,8.6,297.1,336.3,299.5
940.7,705,18.8,17.5,92,13.46,63,8.6,297.1,336.2,299.5
940.2,710,18.8,17.4,92,13.42,63,8.5,297.1,336.1,299.5
939.7,714,18.8,17.4,92,13.39,63,8.5,297.1,336.0,299.5
939.2,719,18.7,17.3,91,13.31,63,8.4,297.1,335.8,299.5
938.7,723,18.7,17.1,90,13.18,63,8.3,297.2,335.5,299.5
938.2,728,18.7,16.9,89,13.03,63,8.3,297.2,335.1,299.6
937.7,733,18.7,16.8,89,12.95,63,8.2,297.3,335.0,299.6
937.2,737,18.7,16.8,89,12.95,63,8.2,297.3,335.0,299.6
936.7,742,18.6,16.8,89,12.96,63,8.1,297.3,335.0,299.6
936.3,746,18.6,16.8,89,12.97,63,8.1,297.3,335.0,299.6
935.8,751,18.6,16.8,89,12.97,63,8.0,297.3,335.0,299.6
935.3,755,18.5,16.8,90,12.98,63,8.0,297.3,335.1,299.6
934.8,759,18.5,16.8,90,12.98,63,7.9,297.3,335.1,299.6
934.3,764,18.5,16.8,90,12.96,63,7.9,297.3,335.0,299.6
933.8,768,18.4,16.7,89,12.88,63,7.9,297.3,334.8,299.6
933.3,773,18.4,16.5,89,12.77,63,7.9,297.3,334.5,299.6
932.8,778,18.4,16.3,88,12.61,63,7.9,297.4,334.1,299.6
932.3,782,18.4,16.1,87,12.47,63,7.8,297.4,333.7,299.6
931.8,787,18.3,16.1,87,12.43,63,7.8,297.4,333.7,299.7
931.3,792,18.3,16.2,87,12.50,64,7.8,297.4,333.9,299.7
930.8,796,18.3,16.2,88,12.58,64,7.9,297.4,334.1,299.7
930.3,801,18.2,16.3,89,12.62,64,7.9,297.4,334.2,299.7
929.8,806,18.2,16.3,89,12.64,65,7.9,297.4,334.2,299.7
929.3,811,18.1,16.3,89,12.67,65,7.9,297.4,334.3,299.7
928.7,816,18.1,16.3,90,12.69,65,7.9,297.5,334.4,299.7
928.1,821,18.0,16.3,90,12.67,66,7.9,297.4,334.3,299.7
927.5,827,18.0,16.2,90,12.62,66,8.0,297.4,334.2,299.7
927.0,832,17.9,16.1,89,12.52,67,8.0,297.4,333.9,299.6
926.4,837,17.8,16.0,89,12.42,67,8.0,297.4,333.6,299.6
925.8,843,17.8,15.9,89,12.39,68,8.1,297.5,333.5,299.7
925.2,848,17.8,15.9,89,12.39,68,8.1,297.5,333.6,299.7
925.0,850,17.7,15.9,89,12.39,69,8.1,297.4,333.5,299.7
924.7,853,17.7,15.9,89,12.38,69,8.1,297.4,333.5,299.6
924.2,858,17.7,15.9,89,12.36,69,8.2,297.5,333.5,299.7
923.7,862,17.7,15.9,89,12.39,69,8.2,297.5,333.6,299.7
923.2,867,17.6,16.0,90,12.48,69,8.2,297.5,333.8,299.7
922.7,871,17.5,16.0,91,12.53,70,8.3,297.4,333.9,299.7
922.2,876,17.5,16.0,91,12.50,70,8.3,297.5,333.9,299.7
921.7,880,17.5,16.0,91,12.53,70,8.3,297.5,334.0,299.7
921.3,885,17.4,16.3,93,12.74,70,8.4,297.4,334.5,299.7
920.8,889,17.3,16.6,96,13.04,69,8.4,297.4,335.3,299.7
920.3,894,17.2,16.8,97,13.20,69,8.4,297.4,335.8,299.7
919.8,898,17.2,16.8,97,13.19,69,8.4,297.4,335.8,299.8
919.4,902,17.2,16.6,97,13.07,69,8.5,297.4,335.4,299.7
919.0,906,17.1,16.7,97,13.10,68,8.5,297.4,335.5,299.7
918.5,911,17.1,16.8,98,13.24,68,8.5,297.4,335.9,299.8
918.0,915,17.2,16.8,98,13.26,67,8.5,297.5,336.1,299.9
917.6,919,17.2,16.6,96,13.04,67,8.5,297.6,335.5,299.9
917.0,924,17.1,15.8,92,12.43,66,8.5,297.5,333.7,299.7
916.5,929,17.1,14.9,87,11.74,66,8.5,297.5,331.8,299.6
915.9,934,17.1,14.5,84,11.37,65,8.5,297.7,330.9,299.7
915.4,940,17.2,14.3,83,11.23,65,8.5,297.7,330.6,299.8
914.8,945,17.2,14.1,82,11.10,65,8.5,297.8,330.3,299.8
914.3,950,17.2,14.0,81,11.05,64,8.5,297.9,330.2,299.9
913.8,955,17.2,14.0,82,11.07,64,8.4,297.9,330.3,299.9
913.3,959,17.1,14.0,82,11.06,64,8.4,297.9,330.3,299.9
912.8,963,17.1,14.0,82,11.04,63,8.4,297.9,330.2,299.9
912.4,968,17.1,14.1,83,11.19,63,8.3,298.0,330.7,300.0
912.0,972,17.0,14.5,85,11.45,63,8.3,297.9,331.4,299.9
911.6,975,16.8,14.1,84,11.17,63,8.2,297.8,330.4,299.8
911.1,980,17.0,13.0,78,10.39,63,8.2,297.9,328.4,299.8
910.7,984,17.2,12.4,73,9.96,63,8.1,298.2,327.5,300.0
910.2,988,17.3,12.4,73,9.96,64,8.1,298.3,327.6,300.1
909.8,992,17.2,12.5,74,10.05,64,8.0,298.3,327.8,300.1
909.3,997,17.1,12.7,75,10.18,64,8.0,298.3,328.2,300.1
908.9,1001,17.1,13.0,77,10.38,65,7.9,298.3,328.8,300.2
908.4,1005,17.1,13.3,79,10.64,65,7.8,298.3,329.5,300.2
908.0,1009,17.1,13.7,80,10.89,66,7.8,298.3,330.2,300.3
907.5,1013,17.0,13.8,81,10.98,66,7.7,298.3,330.5,300.3
907.1,1017,17.0,13.7,81,10.94,67,7.7,298.3,330.4,300.3
906.7,1021,17.0,13.6,81,10.88,68,7.7,298.3,330.3,300.3
906.3,1025,16.9,13.6,81,10.85,68,7.6,298.3,330.2,300.3
905.9,1029,16.9,13.5,81,10.83,69,7.6,298.4,330.1,300.3
905.5,1033,16.9,13.5,80,10.81,69,7.6,298.4,330.1,300.3
905.0,1037,16.9,13.5,80,10.80,70,7.6,298.4,330.1,300.4
904.6,1041,16.9,13.5,80,10.79,71,7.6,298.4,330.1,300.4
904.1,1046,16.8,13.4,80,10.78,71,7.6,298.4,330.1,300.4
903.6,1050,16.8,13.4,81,10.78,72,7.6,298.4,330.1,300.4
903.2,1055,16.7,13.4,81,10.78,72,7.6,298.4,330.0,300.4
902.6,1060,16.7,13.4,81,10.78,72,7.6,298.4,330.0,300.4
902.1,1065,16.6,13.4,81,10.77,73,7.6,298.4,330.0,300.4
901.5,1070,16.6,13.4,81,10.76,73,7.7,298.5,330.0,300.4
900.9,1076,16.6,13.4,81,10.78,73,7.7,298.5,330.1,300.4
900.3,1081,16.5,13.4,82,10.80,73,7.7,298.5,330.2,300.4
899.7,1087,16.4,13.4,82,10.78,74,7.8,298.5,330.1,300.4
899.2,1092,16.4,13.3,82,10.75,74,7.8,298.4,330.0,300.4
898.6,1098,16.3,13.3,82,10.72,74,7.9,298.4,329.9,300.4
898.1,1103,16.3,13.2,82,10.70,74,7.9,298.4,329.9,300.4
897.6,1107,16.3,13.3,82,10.73,74,8.0,298.5,330.0,300.4
897.1,1112,16.2,13.3,83,10.78,74,8.0,298.5,330.1,300.4
896.7,1116,16.2,13.4,83,10.81,73,8.0,298.5,330.2,300.4
896.3,1120,16.1,13.3,84,10.80,73,8.1,298.5,330.1,300.4
895.9,1124,16.1,13.3,84,10.79,73,8.1,298.4,330.1,300.4
895.5,1128,16.0,13.3,84,10.78,73,8.2,298.4,330.1,300.4
895.0,1132,16.0,13.3,84,10.78,73,8.2,298.5,330.1,300.4
894.6,1136,16.0,13.3,84,10.78,73,8.3,298.5,330.1,300.4
894.1,1140,15.9,13.3,84,10.79,73,8.3,298.5,330.1,300.4
893.7,1145,15.9,13.3,85,10.78,72,8.4,298.4,330.1,300.4
893.2,1149,15.8,13.2,84,10.74,72,8.4,298.4,329.9,300.4
892.7,1154,15.8,13.2,85,10.73,72,8.4,298.4,329.9,300.4
892.3,1158,15.7,13.2,85,10.72,72,8.5,298.4,329.9,300.4
891.8,1162,15.7,13.2,85,10.74,72,8.5,298.4,329.9,300.4
891.3,1167,15.7,13.2,85,10.76,72,8.5,298.5,330.0,300.4
890.9,1171,15.6,13.2,86,10.78,71,8.5,298.4,330.1,300.4
890.4,1176,15.6,13.2,86,10.76,71,8.5,298.4,330.0,300.4
889.9,1181,15.5,13.1,86,10.74,71,8.6,298.4,329.9,300.4
889.4,1186,15.5,13.1,86,10.72,71,8.6,298.4,329.9,300.4
888.8,1191,15.4,13.1,86,10.71,71,8.6,298.5,329.9,300.4
888.3,1196,15.4,13.0,86,10.68,71,8.6,298.5,329.8,300.4
887.8,1201,15.4,13.0,86,10.66,71,8.5,298.5,329.8,300.4
887.2,1206,15.3,13.0,86,10.66,70,8.5,298.5,329.8,300.4
886.7,1212,15.3,13.0,86,10.67,70,8.5,298.5,329.8,300.4
886.1,1217,15.2,13.0,86,10.66,70,8.5,298.5,329.8,300.4
885.5,1223,15.2,12.9,86,10.63,70,8.5,298.5,329.7,300.4
885.0,1228,15.1,12.9,87,10.61,70,8.4,298.5,329.7,300.4
884.4,1233,15.1,12.9,87,10.60,70,8.4,298.5,329.6,300.4
883.9,1238,15.0,12.8,87,10.56,70,8.3,298.5,329.5,300.4
883.3,1244,15.0,12.8,87,10.55,69,8.3,298.5,329.5,300.4
882.8,1249,15.0,12.8,87,10.56,69,8.3,298.6,329.6,300.5
882.3,1254,14.9,12.8,87,10.58,69,8.2,298.6,329.6,300.5
881.8,1259,14.9,12.8,87,10.59,69,8.2,298.5,329.6,300.5
881.2,1264,14.8,12.8,88,10.60,69,8.1,298.5,329.7,300.4
880.7,1269,14.7,12.8,88,10.59,69,8.1,298.5,329.6,300.4
880.2,1274,14.7,12.7,88,10.57,69,8.0,298.5,329.6,300.4
879.7,1279,14.7,12.7,88,10.57,69,8.0,298.5,329.6,300.4
879.2,1283,14.6,12.7,88,10.58,69,8.0,298.6,329.6,300.5
878.7,1288,14.6,12.7,89,10.59,69,7.9,298.5,329.6,300.5
878.2,1293,14.5,12.8,89,10.61,68,7.9,298.6,329.7,300.5
877.8,1297,14.5,12.7,89,10.60,68,7.9,298.5,329.7,300.4
877.3,1302,14.4,12.7,89,10.59,68,7.9,298.5,329.6,300.4
876.8,1307,14.4,12.7,89,10.55,68,7.9,298.6,329.5,300.5
876.3,1311,14.4,12.6,89,10.52,68,7.9,298.6,329.5,300.5
875.8,1316,14.3,12.5,89,10.44,68,7.9,298.6,329.3,300.4
875.3,1321,14.3,12.2,87,10.28,68,7.9,298.6,328.9,300.5
874.8,1326,14.4,12.0,85,10.13,68,8.0,298.8,328.6,300.6
874.4,1330,14.4,12.0,85,10.13,68,8.0,298.8,328.6,300.6
873.9,1335,14.3,12.1,86,10.19,68,8.0,298.8,328.7,300.6
873.5,1339,14.3,12.1,86,10.18,68,8.1,298.8,328.7,300.6
873.0,1343,14.3,12.1,87,10.19,68,8.1,298.8,328.8,300.6
872.6,1347,14.2,12.1,87,10.24,68,8.2,298.8,328.9,300.6
872.2,1351,14.2,12.2,88,10.29,68,8.2,298.8,329.0,300.6
871.8,1355,14.1,12.2,88,10.29,68,8.3,298.7,329.0,300.6
871.4,1359,14.1,12.1,88,10.25,68,8.3,298.7,328.9,300.6
871.0,1363,14.0,12.1,88,10.23,68,8.4,298.7,328.8,300.6
870.6,1367,14.0,12.1,88,10.23,68,8.4,298.7,328.8,300.6
870.1,1371,14.0,12.1,88,10.22,68,8.5,298.7,328.8,300.6
869.7,1376,13.9,11.9,87,10.09,68,8.5,298.8,328.4,300.6
869.2,1380,13.9,11.4,85,9.82,68,8.6,298.8,327.7,300.6
868.7,1385,14.1,10.9,81,9.50,68,8.6,299.0,327.0,300.7
868.2,1390,14.2,10.7,79,9.34,68,8.6,299.2,326.8,300.9
867.8,1394,14.2,10.7,80,9.37,67,8.6,299.3,326.9,300.9
867.3,1399,14.2,10.9,80,9.46,67,8.6,299.2,327.2,301.0
866.8,1403,14.1,10.9,81,9.51,67,8.6,299.3,327.3,301.0
866.4,1408,14.1,10.9,81,9.50,67,8.6,299.2,327.3,301.0
865.9,1412,14.0,10.8,81,9.46,67,8.6,299.2,327.2,300.9
865.4,1417,14.0,10.8,81,9.43,67,8.5,299.3,327.1,301.0
864.9,1422,14.0,10.8,81,9.42,66,8.5,299.3,327.1,301.0
864.5,1427,13.9,10.8,81,9.42,66,8.4,299.3,327.1,301.0
864.0,1431,13.9,10.7,81,9.40,66,8.3,299.3,327.0,301.0
863.5,1436,13.8,10.6,81,9.33,66,8.3,299.3,326.9,301.0
863.0,1441,13.8,10.5,80,9.29,66,8.2,299.3,326.7,301.0
862.5,1445,13.8,10.5,81,9.29,66,8.1,299.3,326.8,301.0
862.0,1450,13.8,10.6,81,9.32,65,8.0,299.3,326.9,301.0
861.5,1455,13.7,10.6,82,9.39,65,7.9,299.4,327.1,301.0
861.0,1460,13.7,10.7,82,9.44,65,7.8,299.4,327.3,301.1
860.5,1465,13.6,10.8,83,9.47,65,7.7,299.4,327.3,301.1
860.0,1470,13.6,10.7,83,9.47,65,7.6,299.4,327.3,301.1
859.5,1476,13.5,10.7,83,9.45,65,7.5,299.4,327.3,301.1
858.9,1481,13.5,10.7,83,9.43,65,7.3,299.4,327.2,301.1
858.4,1486,13.5,10.6,83,9.39,65,7.2,299.4,327.1,301.1
857.8,1492,13.4,10.5,82,9.33,65,7.1,299.4,327.0,301.1
857.3,1497,13.4,10.3,82,9.24,65,7.0,299.4,326.7,301.1
856.8,1501,13.3,10.3,82,9.20,65,7.0,299.4,326.6,301.1
856.4,1506,13.3,10.3,82,9.22,65,6.9,299.4,326.7,301.1
855.9,1510,13.3,10.4,83,9.31,65,6.8,299.4,327.0,301.1
855.5,1515,13.2,10.5,84,9.36,65,6.7,299.4,327.1,301.1
855.1,1519,13.2,10.5,84,9.35,65,6.7,299.4,327.1,301.1
854.6,1523,13.1,10.4,84,9.31,65,6.6,299.4,327.0,301.1
854.2,1527,13.1,10.3,83,9.28,66,6.6,299.4,326.9,301.1
853.7,1532,13.1,10.3,83,9.23,66,6.6,299.5,326.8,301.1
853.2,1537,13.1,10.2,82,9.17,66,6.6,299.5,326.6,301.2
852.7,1542,13.1,10.1,82,9.13,67,6.5,299.6,326.6,301.2
852.2,1547,13.1,10.0,82,9.11,67,6.5,299.6,326.6,301.2
851.7,1552,13.0,10.0,82,9.10,67,6.6,299.6,326.5,301.2
851.2,1557,12.9,10.0,83,9.11,68,6.6,299.5,326.5,301.2
850.7,1562,12.8,10.0,83,9.10,68,6.6,299.5,326.4,301.1
850.2,1567,12.8,9.9,83,9.05,68,6.6,299.5,326.3,301.2
850.0,1569,12.8,9.9,82,9.04,68,6.7,299.5,326.3,301.2
849.7,1572,12.8,9.8,82,9.00,68,6.7,299.6,326.2,301.2
849.2,1577,12.9,9.8,82,9.00,69,6.7,299.7,326.4,301.3
848.7,1581,12.9,9.9,82,9.06,69,6.8,299.8,326.7,301.5
848.3,1586,13.0,10.0,82,9.12,69,6.9,299.9,326.9,301.5
847.8,1591,13.0,10.0,82,9.16,69,6.9,299.9,327.1,301.6
847.4,1595,12.9,10.1,83,9.18,69,7.0,299.9,327.1,301.6
846.9,1599,12.9,10.0,83,9.16,69,7.1,299.9,327.1,301.6
846.5,1603,12.8,10.0,83,9.16,69,7.1,299.9,327.1,301.6
846.1,1607,12.8,10.0,83,9.18,69,7.2,299.9,327.1,301.6
845.7,1611,12.8,10.1,84,9.21,69,7.3,299.9,327.3,301.6
845.3,1615,12.7,10.1,84,9.22,69,7.3,299.9,327.3,301.6
844.9,1620,12.7,10.1,84,9.23,69,7.4,300.0,327.3,301.6
844.4,1624,12.7,10.2,84,9.27,68,7.5,300.0,327.5,301.7
844.0,1628,12.7,10.3,85,9.33,68,7.5,300.0,327.7,301.7
843.5,1633,12.7,10.3,85,9.39,68,7.6,300.1,327.9,301.8
843.0,1638,12.7,10.3,86,9.38,67,7.6,300.1,327.9,301.8
842.5,1643,12.6,10.2,85,9.31,67,7.7,300.1,327.7,301.8
842.1,1648,12.6,10.1,85,9.24,66,7.7,300.1,327.5,301.7
841.6,1653,12.5,10.0,85,9.20,66,7.7,300.1,327.4,301.8
841.1,1658,12.5,10.0,85,9.21,66,7.8,300.1,327.4,301.8
840.6,1662,12.5,10.0,85,9.23,65,7.8,300.1,327.5,301.8
840.1,1667,12.4,10.0,85,9.23,65,7.8,300.2,327.5,301.8
839.6,1672,12.4,9.9,85,9.16,65,7.8,300.2,327.4,301.8
839.2,1677,12.3,9.7,84,9.07,64,7.8,300.1,327.1,301.8
838.7,1681,12.3,9.8,85,9.12,64,7.8,300.2,327.2,301.8
838.2,1686,12.3,10.1,87,9.32,64,7.8,300.2,327.8,301.9
837.8,1691,12.3,10.3,88,9.43,64,7.8,300.2,328.2,301.9
837.3,1695,12.2,10.3,88,9.45,64,7.8,300.2,328.3,301.9
836.9,1700,12.2,10.3,88,9.45,64,7.8,300.2,328.2,301.9
836.4,1705,12.1,10.3,89,9.45,64,7.8,300.2,328.2,301.9
835.9,1709,12.1,10.3,89,9.48,64,7.8,300.2,328.3,301.9
835.4,1714,12.0,10.4,90,9.50,64,7.7,300.2,328.3,301.9
834.9,1719,11.9,10.3,90,9.46,65,7.7,300.2,328.2,301.9
834.4,1724,11.9,10.2,89,9.39,65,7.7,300.2,328.0,301.9
833.9,1729,11.9,10.0,89,9.31,65,7.7,300.2,327.8,301.9
833.4,1734,11.8,10.0,89,9.31,66,7.7,300.2,327.8,301.9
832.9,1740,11.8,10.0,89,9.33,66,7.7,300.2,327.9,301.9
832.4,1745,11.7,10.1,89,9.34,66,7.7,300.2,327.9,301.9
831.9,1750,11.7,10.1,90,9.37,67,7.7,300.2,328.0,301.9
831.3,1755,11.7,10.1,90,9.38,67,7.7,300.3,328.1,302.0
830.8,1760,11.6,10.1,90,9.38,67,7.7,300.3,328.1,302.0
830.3,1766,11.6,10.1,91,9.39,68,7.7,300.3,328.2,302.0
829.8,1771,11.5,10.1,91,9.43,68,7.7,300.3,328.2,302.0
829.3,1776,11.5,10.2,92,9.44,68,7.7,300.3,328.3,302.0
