PRES,HGHT,TEMP,DWPT,RELH,MIXR,DRCT,SPED,THTA,THTE,THTV
1014.3,31,25.3,21.8,81,16.45,49,4.1,297.2,345.0,300.2
1013.8,35,25.4,21.8,81,16.48,34,2.9,297.4,345.3,300.3
1013.4,39,25.5,21.8,80,16.41,29,2.8,297.5,345.2,300.4
1012.8,43,25.5,21.7,79,16.31,28,3.0,297.6,345.1,300.5
1012.3,48,25.6,21.6,79,16.22,28,3.2,297.7,344.9,300.5
1011.8,52,25.5,21.5,78,16.15,29,3.4,297.7,344.7,300.5
1011.3,57,25.5,21.4,78,16.09,30,3.7,297.7,344.5,300.5
1010.7,62,25.5,21.4,78,16.04,30,3.9,297.7,344.4,300.6
1010.2,66,25.4,21.3,78,16.00,31,4.1,297.7,344.3,300.5
1009.7,71,25.4,21.2,78,15.93,31,4.3,297.7,344.0,300.5
1009.1,76,25.4,21.1,77,15.85,32,4.5,297.7,343.9,300.6
1008.6,80,25.4,21.1,77,15.80,32,4.6,297.8,343.8,300.6
1008.0,85,25.3,21.1,77,15.80,33,4.8,297.8,343.8,300.6
1007.5,90,25.3,21.1,78,15.83,33,4.9,297.8,343.9,300.6
1006.9,95,25.2,21.1,78,15.84,34,5.1,297.8,343.9,300.6
1006.3,100,25.2,21.1,78,15.83,34,5.2,297.8,343.9,300.6
1005.8,105,25.1,21.1,78,15.83,35,5.3,297.8,343.9,300.6
1005.2,110,25.1,21.1,78,15.83,36,5.4,297.8,343.9,300.7
1004.6,115,25.1,21.1,78,15.83,36,5.5,297.9,344.0,300.7
1004.1,120,25.1,21.1,78,15.84,37,5.5,297.9,344.0,300.7
1003.6,124,25.0,21.0,79,15.84,38,5.6,297.9,344.0,300.7
1003.1,128,25.0,21.0,79,15.81,39,5.6,297.8,343.9,300.7
1002.6,133,24.9,21.0,79,15.81,40,5.7,297.8,343.8,300.6
1002.2,137,24.8,21.0,79,15.85,41,5.7,297.8,343.9,300.6
1001.7,141,24.8,21.1,80,15.90,42,5.7,297.8,344.1,300.6
1001.3,145,24.7,21.1,80,15.92,43,5.7,297.7,344.1,300.6
1000.8,149,24.6,21.1,81,15.94,44,5.7,297.7,344.1,300.6
1000.3,153,24.6,21.1,81,15.96,46,5.8,297.8,344.2,300.6
1000.0,156,24.6,21.1,81,16.00,46,5.8,297.8,344.4,300.6
999.9,157,24.6,21.1,81,16.00,47,5.8,297.8,344.4,300.6
999.4,161,24.6,21.2,81,16.01,48,5.8,297.8,344.5,300.7
998.9,165,24.6,21.1,81,15.98,50,5.8,297.8,344.4,300.7
998.4,170,24.6,21.1,81,15.95,51,5.8,297.9,344.3,300.7
997.9,174,24.6,21.0,81,15.92,52,5.8,297.9,344.3,300.7
997.4,178,24.5,21.0,81,15.89,54,5.8,297.9,344.2,300.7
996.9,183,24.5,21.0,81,15.87,55,5.9,297.9,344.2,300.7
996.4,187,24.5,20.9,81,15.84,56,5.9,297.9,344.1,300.7
995.9,192,24.4,20.9,81,15.80,58,5.9,297.9,344.0,300.7
995.4,196,24.4,20.8,81,15.77,59,5.9,297.9,343.9,300.7
994.9,201,24.3,20.8,81,15.73,60,6.0,297.9,343.7,300.7
994.4,205,24.3,20.8,81,15.71,62,6.0,297.9,343.7,300.7
993.9,209,24.2,20.8,81,15.71,63,6.1,297.9,343.7,300.7
993.4,214,24.2,20.8,81,15.77,64,6.1,297.9,343.9,300.7
992.9,218,24.2,20.9,82,15.82,66,6.2,297.9,344.0,300.8
992.4,223,24.2,20.9,82,15.85,67,6.2,297.9,344.1,300.8
991.9,227,24.1,20.9,82,15.84,68,6.3,298.0,344.1,300.8
991.4,232,24.1,20.8,82,15.82,69,6.3,297.9,344.1,300.8
990.9,236,24.0,20.8,82,15.82,71,6.4,297.9,344.0,300.8
990.3,241,24.0,20.8,82,15.81,72,6.5,297.9,344.0,300.8
989.8,246,23.9,20.8,83,15.82,73,6.5,298.0,344.1,300.8
989.2,251,23.9,20.8,83,15.83,74,6.6,298.0,344.1,300.8
988.6,256,23.9,20.8,83,15.83,75,6.6,298.0,344.1,300.8
988.1,261,23.8,20.8,83,15.82,76,6.7,298.0,344.1,300.8
987.5,266,23.8,20.8,83,15.83,77,6.8,298.0,344.1,300.8
987.0,271,23.7,20.8,83,15.84,78,6.8,298.0,344.2,300.8
986.4,276,23.7,20.8,84,15.83,78,6.9,298.0,344.1,300.8
985.9,280,23.7,20.7,84,15.81,79,6.9,298.0,344.1,300.8
985.4,285,23.6,20.7,84,15.80,80,7.0,298.0,344.1,300.8
984.9,290,23.6,20.7,84,15.79,80,7.0,298.0,344.0,300.8
984.4,294,23.5,20.7,84,15.80,81,7.0,298.0,344.1,300.8
983.9,299,23.5,20.7,84,15.82,81,7.1,298.0,344.1,300.8
983.4,303,23.4,20.7,85,15.85,82,7.1,298.0,344.2,300.8
982.9,307,23.4,20.7,85,15.86,82,7.1,298.0,344.2,300.8
982.4,312,23.4,20.7,85,15.87,82,7.1,298.0,344.3,300.8
981.9,317,23.3,20.7,85,15.88,82,7.1,298.0,344.3,300.9
981.3,321,23.3,20.8,86,15.91,82,7.2,298.0,344.4,300.9
980.7,327,23.2,20.8,86,15.93,82,7.2,298.0,344.5,300.9
980.1,332,23.2,20.7,86,15.92,82,7.2,298.0,344.4,300.9
979.5,338,23.1,20.7,86,15.89,82,7.2,298.0,344.4,300.9
978.9,343,23.1,20.6,86,15.83,82,7.2,298.0,344.2,300.9
978.2,349,23.0,20.6,86,15.76,82,7.2,298.1,344.0,300.9
977.6,355,23.0,20.5,86,15.71,81,7.2,298.1,343.9,300.9
977.0,360,23.0,20.5,86,15.71,81,7.1,298.1,343.9,300.9
976.4,366,22.9,20.4,86,15.68,81,7.1,298.1,343.8,300.9
975.7,371,22.9,20.4,86,15.61,80,7.1,298.1,343.6,300.9
975.1,377,22.8,20.3,85,15.55,80,7.1,298.1,343.5,300.9
974.5,382,22.8,20.3,85,15.53,79,7.1,298.2,343.4,300.9
973.9,388,22.8,20.3,86,15.57,79,7.1,298.2,343.6,301.0
973.3,393,22.7,20.4,87,15.67,78,7.1,298.1,343.9,300.9
972.7,398,22.6,20.5,88,15.79,78,7.1,298.1,344.2,300.9
972.2,403,22.5,20.5,89,15.84,77,7.1,298.1,344.2,300.9
971.6,408,22.5,20.5,89,15.84,77,7.1,298.1,344.2,300.9
971.1,413,22.4,20.5,89,15.84,77,7.1,298.1,344.2,300.9
970.6,417,22.4,20.5,89,15.86,76,7.1,298.1,344.3,300.9
970.1,422,22.4,20.6,90,15.90,76,7.1,298.1,344.4,300.9
969.6,426,22.3,20.6,90,15.95,76,7.1,298.1,344.6,300.9
969.1,431,22.3,20.6,90,15.98,76,7.1,298.1,344.7,300.9
968.6,435,22.2,20.6,91,15.98,75,7.1,298.1,344.7,300.9
968.2,439,22.2,20.6,91,15.95,75,7.1,298.1,344.6,300.9
967.7,444,22.1,20.5,91,15.90,75,7.1,298.1,344.4,300.9
967.2,448,22.1,20.5,91,15.87,75,7.1,298.1,344.3,300.9
966.7,453,22.0,20.5,91,15.87,75,7.1,298.1,344.3,300.9
966.2,457,22.0,20.5,91,15.89,76,7.0,298.1,344.4,300.9
965.7,461,22.0,20.5,91,15.90,76,7.0,298.1,344.4,300.9
965.2,466,21.9,20.5,91,15.89,76,7.0,298.1,344.4,300.9
964.8,470,21.9,20.4,92,15.88,76,7.0,298.1,344.3,300.9
964.3,474,21.9,20.4,92,15.88,76,7.0,298.1,344.4,300.9
963.8,479,21.8,20.5,92,15.90,77,7.0,298.1,344.5,300.9
963.3,483,21.8,20.5,92,15.91,77,7.0,298.1,344.5,300.9
962.8,488,21.8,20.4,92,15.89,77,7.0,298.1,344.4,300.9
962.3,492,21.7,20.4,92,15.84,78,7.1,298.1,344.3,300.9
961.8,497,21.7,20.3,92,15.80,78,7.1,298.1,344.2,300.9
961.3,501,21.6,20.3,92,15.81,79,7.1,298.1,344.2,300.9
960.9,505,21.6,20.4,93,15.85,79,7.1,298.1,344.3,300.9
960.4,509,21.5,20.4,93,15.87,79,7.1,298.1,344.4,300.9
959.9,514,21.5,20.4,93,15.87,80,7.1,298.1,344.3,300.9
959.5,518,21.4,20.3,93,15.84,80,7.1,298.1,344.3,300.9
959.0,522,21.4,20.3,94,15.84,80,7.1,298.1,344.3,300.9
958.5,526,21.4,20.3,94,15.87,81,7.1,298.1,344.3,300.9
958.0,531,21.3,20.3,94,15.86,81,7.1,298.1,344.3,300.9
957.5,536,21.3,20.3,94,15.84,81,7.2,298.1,344.3,300.9
956.9,541,21.2,20.2,94,15.81,81,7.2,298.1,344.2,300.9
956.4,546,21.2,20.2,94,15.74,82,7.2,298.1,344.0,300.9
955.8,551,21.2,20.1,94,15.70,82,7.2,298.1,343.9,300.9
955.2,557,21.1,20.1,94,15.70,82,7.2,298.2,343.9,301.0
954.6,562,21.1,20.1,94,15.72,82,7.2,298.2,344.0,301.0
954.1,567,21.0,20.1,94,15.72,82,7.3,298.2,344.0,301.0
953.5,572,21.0,20.1,95,15.69,82,7.3,298.1,343.9,300.9
953.0,577,20.9,20.0,95,15.64,82,7.3,298.1,343.8,300.9
952.5,582,20.9,20.0,94,15.60,82,7.3,298.1,343.6,300.9
952.0,586,20.8,20.0,95,15.61,82,7.3,298.2,343.7,300.9
951.5,590,20.8,20.0,95,15.67,82,7.4,298.2,343.8,301.0
951.0,595,20.8,20.1,96,15.72,81,7.4,298.2,344.0,301.0
950.5,599,20.7,20.1,96,15.76,81,7.4,298.2,344.1,301.0
950.0,604,20.7,20.1,96,15.78,81,7.4,298.2,344.2,301.0
949.5,609,20.6,20.1,97,15.77,81,7.4,298.2,344.1,301.0
949.0,613,20.6,20.0,97,15.74,80,7.5,298.2,344.0,301.0
948.5,618,20.5,20.0,97,15.71,80,7.5,298.2,344.0,301.0
947.9,623,20.5,20.0,97,15.67,80,7.5,298.2,343.8,300.9
947.4,628,20.4,19.9,97,15.59,79,7.5,298.1,343.6,300.9
947.0,632,20.4,19.8,96,15.50,79,7.5,298.1,343.3,300.9
946.5,636,20.4,19.7,96,15.45,79,7.6,298.2,343.2,300.9
946.0,641,20.3,19.7,96,15.46,79,7.6,298.2,343.2,300.9
945.6,645,20.3,19.8,97,15.52,78,7.6,298.2,343.4,300.9
945.1,649,20.3,19.8,97,15.58,78,7.7,298.2,343.6,301.0
944.6,653,20.2,19.8,97,15.54,78,7.7,298.2,343.5,301.0
944.1,658,20.2,19.5,96,15.31,77,7.7,298.2,342.9,300.9
943.6,663,20.2,19.1,93,14.91,77,7.8,298.2,341.8,300.9
943.1,667,20.3,18.8,91,14.60,77,7.8,298.4,341.0,301.0
942.6,672,20.3,18.7,91,14.54,77,7.8,298.4,340.9,301.0
942.1,677,20.2,18.7,91,14.59,76,7.9,298.4,341.0,301.0
941.5,682,20.1,18.5,90,14.36,76,7.9,298.3,340.2,300.9
941.0,687,20.1,17.5,85,13.47,76,8.0,298.3,337.7,300.7
940.4,692,20.2,16.3,79,12.50,76,8.0,298.5,335.1,300.7
939.8,697,20.3,15.8,76,12.13,76,8.1,298.7,334.2,300.8
939.3,703,20.3,16.0,76,12.23,76,8.1,298.7,334.6,300.9
938.7,708,20.3,16.2,77,12.40,76,8.2,298.8,335.1,301.0
938.1,714,20.2,16.2,78,12.45,76,8.2,298.7,335.2,301.0
937.5,719,20.1,16.2,78,12.41,76,8.3,298.7,335.1,301.0
936.9,724,20.1,16.1,78,12.35,76,8.3,298.8,334.9,301.0
936.3,730,20.1,16.0,78,12.34,76,8.3,298.8,334.9,301.0
935.7,735,20.0,16.0,78,12.34,76,8.4,298.8,334.9,301.0
935.2,740,19.9,16.0,78,12.31,76,8.4,298.7,334.8,301.0
934.6,745,19.9,15.9,78,12.27,76,8.5,298.7,334.7,300.9
934.1,750,19.8,15.9,78,12.24,76,8.5,298.8,334.6,300.9
933.6,755,19.8,15.9,78,12.24,76,8.5,298.8,334.6,301.0
933.1,759,19.8,15.9,78,12.25,76,8.6,298.8,334.7,301.0
932.6,764,19.7,15.9,78,12.24,76,8.6,298.8,334.6,301.0
932.2,768,19.7,15.8,78,12.17,76,8.6,298.8,334.4,300.9
931.7,773,19.7,15.6,77,12.01,76,8.7,298.8,334.0,300.9
931.2,777,19.6,15.2,76,11.76,76,8.7,298.8,333.3,300.9
930.7,782,19.6,14.9,74,11.52,76,8.7,298.8,332.7,300.9
930.2,786,19.6,14.7,73,11.39,76,8.7,298.9,332.4,300.9
929.7,791,19.6,14.7,73,11.36,76,8.7,298.9,332.3,301.0
929.2,795,19.6,14.6,73,11.33,76,8.7,298.9,332.2,301.0
928.7,800,19.6,14.5,73,11.26,76,8.8,299.0,332.0,301.0
928.2,805,19.5,14.4,72,11.18,76,8.8,299.0,331.8,301.0
927.7,809,19.5,14.4,72,11.16,75,8.8,299.0,331.8,301.0
927.2,814,19.5,14.4,73,11.19,75,8.8,299.0,331.9,301.0
926.7,819,19.4,14.5,73,11.24,75,8.8,299.0,332.0,301.0
926.2,824,19.4,14.5,74,11.30,75,8.9,299.0,332.2,301.0
925.7,829,19.3,14.7,75,11.44,75,8.9,299.0,332.6,301.0
925.2,833,19.3,15.0,76,11.67,75,9.0,299.0,333.2,301.1
925.0,835,19.2,15.1,77,11.77,74,9.0,299.0,333.5,301.1
924.6,838,19.2,15.4,79,11.98,74,9.0,299.0,334.1,301.1
924.1,843,19.2,15.7,80,12.25,74,9.1,299.0,334.9,301.2
923.6,848,19.1,15.9,81,12.38,74,9.1,299.0,335.3,301.2
923.1,853,19.1,15.9,82,12.41,74,9.2,299.0,335.4,301.2
922.5,858,19.1,15.9,82,12.42,74,9.3,299.0,335.5,301.3
921.9,863,19.0,15.9,82,12.41,74,9.4,299.1,335.5,301.3
921.4,869,19.0,15.9,82,12.40,74,9.5,299.1,335.5,301.3
920.8,874,19.0,15.8,82,12.39,74,9.6,299.1,335.5,301.4
920.2,880,19.0,15.8,82,12.37,74,9.8,299.1,335.4,301.4
919.5,886,18.9,15.7,82,12.31,74,9.9,299.1,335.3,301.4
919.0,891,18.9,15.6,81,12.20,74,10.1,299.1,334.9,301.3
918.4,897,18.8,15.3,80,11.97,74,10.2,299.2,334.3,301.3
917.9,902,18.8,14.9,78,11.65,75,10.4,299.2,333.4,301.3
917.3,906,18.8,14.5,76,11.40,75,10.5,299.3,332.8,301.3
916.8,911,18.8,14.4,75,11.32,75,10.7,299.3,332.6,301.4
916.3,916,18.8,14.4,76,11.34,75,10.8,299.3,332.7,301.4
915.8,921,18.8,14.5,76,11.40,76,11.0,299.3,332.9,301.4
915.4,925,18.7,14.5,76,11.42,76,11.1,299.3,332.9,301.4
914.9,930,18.7,14.5,77,11.42,76,11.3,299.4,332.9,301.4
914.4,934,18.6,14.5,77,11.41,77,11.4,299.3,332.9,301.4
913.9,939,18.6,14.5,77,11.41,77,11.6,299.4,332.9,301.4
913.4,943,18.6,14.5,77,11.42,77,11.7,299.4,333.0,301.4
913.0,947,18.5,14.5,77,11.45,78,11.8,299.4,333.0,301.4
912.5,952,18.5,14.6,78,11.51,78,11.9,299.4,333.3,301.5
912.0,957,18.5,14.7,78,11.57,78,12.0,299.4,333.5,301.5
911.5,961,18.5,14.7,79,11.60,78,12.1,299.4,333.6,301.5
911.0,966,18.4,14.7,79,11.61,79,12.2,299.5,333.6,301.5
910.5,971,18.4,14.7,79,11.60,79,12.3,299.5,333.6,301.5
909.9,976,18.4,14.6,79,11.59,79,12.4,299.5,333.6,301.6
909.4,981,18.3,14.6,79,11.55,79,12.4,299.5,333.5,301.6
908.8,987,18.3,14.5,79,11.52,79,12.5,299.5,333.4,301.6
908.2,992,18.3,14.5,79,11.52,79,12.5,299.5,333.5,301.6
907.7,998,18.2,14.5,79,11.52,79,12.5,299.6,333.5,301.6
907.1,1003,18.2,14.4,79,11.48,79,12.5,299.6,333.4,301.6
906.5,1009,18.2,14.4,79,11.42,79,12.6,299.6,333.2,301.6
905.9,1014,18.1,14.3,78,11.39,79,12.6,299.6,333.2,301.7
905.3,1020,18.1,14.3,78,11.37,78,12.6,299.6,333.2,301.7
904.7,1025,18.1,14.3,78,11.38,78,12.6,299.7,333.2,301.7
904.2,1031,18.1,14.3,78,11.38,78,12.6,299.7,333.2,301.8
903.6,1036,18.0,14.2,78,11.33,77,12.6,299.7,333.1,301.8
903.0,1042,18.0,14.1,78,11.26,77,12.6,299.8,333.0,301.8
902.4,1047,18.0,14.0,77,11.20,77,12.6,299.8,332.9,301.9
901.9,1053,18.0,14.0,77,11.23,76,12.6,299.9,333.0,301.9
901.3,1058,18.0,14.2,78,11.35,76,12.6,299.9,333.4,301.9
900.7,1064,17.9,14.3,79,11.44,75,12.6,299.9,333.6,301.9
900.1,1070,17.8,14.3,80,11.43,75,12.6,299.9,333.6,301.9
899.5,1075,17.8,14.2,79,11.37,74,12.6,299.9,333.4,301.9
898.9,1081,17.8,14.0,79,11.28,74,12.6,299.9,333.2,301.9
898.3,1086,17.7,13.9,78,11.19,74,12.6,299.9,332.9,301.9
897.8,1091,17.7,13.8,78,11.09,73,12.6,299.9,332.6,301.9
897.3,1097,17.6,13.6,77,10.95,73,12.6,299.9,332.2,301.9
896.7,1102,17.6,13.3,76,10.78,73,12.6,300.0,331.8,301.9
896.2,1107,17.6,13.1,75,10.65,72,12.6,300.0,331.5,302.0
895.7,1112,17.6,13.1,75,10.63,72,12.5,300.0,331.5,302.0
895.1,1117,17.6,13.1,75,10.65,72,12.5,300.1,331.6,302.0
894.6,1122,17.5,13.2,76,10.72,72,12.5,300.1,331.7,302.0
894.1,1127,17.4,13.3,77,10.82,72,12.5,300.0,332.0,302.0
893.6,1132,17.4,13.5,78,10.94,72,12.5,300.0,332.3,302.0
893.0,1137,17.3,13.6,79,11.02,72,12.4,300.0,332.6,302.0
892.5,1142,17.3,13.6,79,11.06,72,12.4,300.0,332.7,302.0
892.0,1147,17.2,13.7,80,11.13,72,12.4,300.0,332.8,302.0
891.5,1152,17.2,13.8,81,11.22,72,12.3,300.0,333.1,302.0
891.0,1157,17.1,14.0,82,11.32,73,12.3,300.0,333.4,302.0
890.4,1162,17.0,14.0,82,11.38,73,12.3,300.0,333.5,302.0
889.9,1167,17.0,13.9,82,11.29,73,12.2,300.0,333.3,302.0
889.3,1173,16.9,13.5,80,11.01,74,12.2,300.0,332.5,302.0
888.8,1178,17.0,13.0,78,10.67,74,12.1,300.0,331.6,302.0
888.2,1183,17.0,12.8,76,10.48,74,12.1,300.1,331.1,302.0
887.7,1188,17.0,12.7,76,10.48,75,12.1,300.2,331.2,302.0
887.3,1192,16.9,12.8,77,10.54,75,12.0,300.2,331.3,302.1
886.8,1197,16.9,12.9,77,10.57,76,12.0,300.2,331.4,302.1
886.3,1202,16.9,12.8,77,10.56,76,12.0,300.2,331.4,302.1
885.8,1206,16.9,12.8,77,10.55,76,12.0,300.2,331.4,302.1
885.3,1211,16.8,12.8,77,10.54,76,12.0,300.3,331.4,302.2
884.8,1216,16.8,12.7,77,10.52,77,12.0,300.3,331.4,302.2
884.3,1221,16.8,12.7,77,10.47,77,12.0,300.3,331.3,302.2
883.8,1226,16.7,12.6,77,10.43,77,12.0,300.3,331.2,302.2
883.3,1231,16.7,12.6,77,10.47,77,12.0,300.3,331.3,302.2
882.7,1236,16.6,12.8,78,10.55,77,12.1,300.3,331.5,302.2
882.2,1241,16.6,12.8,78,10.60,77,12.1,300.3,331.6,302.2
881.6,1247,16.5,12.8,79,10.61,77,12.1,300.3,331.7,302.2
881.1,1252,16.5,12.9,79,10.65,77,12.2,300.3,331.8,302.2
880.5,1258,16.4,13.0,80,10.75,76,12.2,300.3,332.0,302.2
880.0,1263,16.3,13.2,82,10.89,76,12.3,300.3,332.5,302.2
879.4,1268,16.3,13.3,83,11.01,76,12.4,300.3,332.8,302.2
878.9,1274,16.2,13.3,83,11.02,75,12.4,300.3,332.8,302.2
878.3,1279,16.2,13.2,83,10.94,75,12.5,300.3,332.6,302.2
877.8,1284,16.2,13.1,82,10.82,74,12.6,300.3,332.3,302.2
877.3,1289,16.1,12.9,81,10.69,74,12.6,300.3,331.9,302.2
876.7,1294,16.1,12.7,80,10.61,73,12.7,300.3,331.7,302.3
876.2,1299,16.1,12.6,80,10.51,73,12.8,300.4,331.5,302.3
875.7,1304,16.1,12.3,79,10.34,72,12.8,300.4,331.0,302.3
875.2,1309,16.1,12.1,77,10.17,72,12.9,300.4,330.6,302.3
874.7,1314,16.0,11.9,77,10.09,71,12.9,300.5,330.4,302.3
874.2,1319,16.0,11.9,77,10.07,71,13.0,300.5,330.3,302.3
873.7,1324,16.0,11.9,77,10.09,71,13.0,300.5,330.4,302.3
873.2,1329,16.0,12.0,77,10.11,70,13.1,300.5,330.5,302.3
872.7,1334,15.9,12.0,77,10.14,70,13.1,300.5,330.6,302.4
872.2,1338,15.9,12.0,78,10.18,70,13.1,300.6,330.7,302.4
871.7,1343,15.9,12.1,78,10.22,69,13.1,300.6,330.9,302.4
871.2,1348,15.8,12.1,79,10.25,69,13.1,300.6,331.0,302.5
870.7,1353,15.8,12.1,79,10.26,69,13.1,300.6,331.0,302.5
870.2,1358,15.8,12.1,79,10.27,69,13.0,300.6,331.1,302.5
869.7,1363,15.7,12.1,79,10.24,69,13.0,300.6,330.9,302.5
869.2,1368,15.7,12.0,79,10.20,69,13.0,300.6,330.8,302.4
868.6,1373,15.6,12.0,79,10.19,69,12.9,300.6,330.8,302.5
868.1,1378,15.6,12.1,80,10.25,69,12.8,300.6,331.0,302.5
867.6,1384,15.5,12.2,81,10.36,69,12.7,300.6,331.3,302.5
867.1,1389,15.5,12.4,82,10.46,69,12.7,300.6,331.6,302.5
866.5,1394,15.4,12.4,82,10.51,69,12.6,300.7,331.8,302.6
866.0,1399,15.4,12.4,82,10.52,69,12.5,300.7,331.8,302.6
865.5,1404,15.4,12.3,82,10.47,69,12.4,300.7,331.7,302.5
865.1,1408,15.3,12.3,82,10.46,69,12.3,300.7,331.7,302.6
864.6,1413,15.3,12.4,83,10.51,69,12.2,300.7,331.8,302.6
864.1,1417,15.2,12.5,84,10.60,69,12.1,300.7,332.1,302.6
863.7,1422,15.2,12.6,84,10.66,68,12.0,300.7,332.3,302.6
863.2,1426,15.2,12.6,85,10.69,68,11.8,300.7,332.4,302.6
862.8,1431,15.1,12.6,85,10.70,68,11.7,300.7,332.4,302.6
862.3,1435,15.1,12.7,85,10.73,68,11.6,300.7,332.5,302.6
861.8,1440,15.0,12.7,86,10.78,68,11.5,300.7,332.6,302.7
861.4,1445,15.0,12.8,87,10.83,67,11.4,300.7,332.8,302.6
860.9,1449,15.0,12.9,87,10.92,67,11.3,300.7,333.0,302.7
860.4,1454,15.0,13.1,88,11.06,66,11.3,300.8,333.5,302.8
859.9,1459,15.0,13.2,89,11.19,66,11.2,300.9,334.0,302.9
859.4,1464,15.0,13.3,89,11.22,65,11.1,300.9,334.2,303.0
858.8,1470,15.0,13.3,89,11.22,65,11.0,301.0,334.2,303.0
858.3,1475,15.0,13.3,90,11.26,64,10.9,301.0,334.3,303.0
857.8,1480,14.9,13.4,90,11.33,63,10.9,301.0,334.5,303.0
857.2,1486,14.9,13.5,91,11.41,63,10.8,301.0,334.8,303.1
856.7,1491,14.9,13.5,92,11.44,62,10.7,301.0,334.9,303.1
856.1,1497,14.8,13.5,92,11.43,61,10.7,301.0,334.9,303.1
855.6,1502,14.8,13.5,92,11.42,61,10.6,301.0,334.9,303.1
855.0,1508,14.7,13.5,92,11.46,60,10.6,301.1,335.0,303.1
854.4,1513,14.7,13.5,93,11.49,60,10.5,301.1,335.1,303.2
853.9,1519,14.7,13.6,93,11.53,59,10.5,301.1,335.2,303.2
853.3,1524,14.6,13.6,94,11.59,59,10.5,301.1,335.4,303.2
852.8,1530,14.6,13.8,95,11.69,58,10.4,301.1,335.7,303.2
852.3,1535,14.6,13.9,96,11.79,58,10.4,301.2,336.1,303.3
851.8,1540,14.6,14.0,96,11.85,58,10.4,301.2,336.3,303.3
851.3,1545,14.5,14.0,97,11.90,57,10.4,301.2,336.5,303.4
850.8,1550,14.5,14.1,98,12.00,57,10.3,301.2,336.7,303.4
850.3,1554,14.4,14.2,98,12.05,57,10.3,301.2,336.9,303.4
850.0,1557,14.4,14.2,99,12.08,57,10.3,301.2,337.0,303.4
849.8,1559,14.4,14.2,99,12.10,57,10.3,301.3,337.1,303.4
849.4,1564,14.4,14.3,99,12.12,58,10.3,301.3,337.2,303.5
848.9,1568,14.4,14.2,99,12.05,58,10.3,301.3,337.0,303.5
848.4,1573,14.3,14.0,98,11.94,58,10.4,301.2,336.6,303.4
848.0,1577,14.2,13.9,98,11.86,58,10.4,301.2,336.3,303.3
847.5,1582,14.2,14.0,99,11.92,58,10.4,301.2,336.5,303.4
847.1,1587,14.2,14.1,99,12.00,59,10.5,301.2,336.8,303.4
846.6,1591,14.1,14.1,100,12.02,59,10.5,301.3,336.9,303.5
846.1,1596,14.1,14.1,100,12.01,59,10.6,301.3,336.9,303.5
845.7,1601,14.0,14.0,100,11.99,59,10.7,301.3,336.8,303.4
845.2,1605,14.1,14.1,100,12.07,60,10.8,301.4,337.2,303.6
844.7,1610,14.3,14.3,100,12.19,60,10.8,301.6,337.7,303.8
844.3,1615,14.3,14.3,100,12.20,60,10.9,301.7,337.9,303.9
843.8,1619,14.3,14.2,99,12.16,60,11.0,301.7,337.8,303.9
843.3,1624,14.3,14.2,99,12.14,60,11.1,301.8,337.8,304.0
842.8,1629,14.2,14.2,100,12.15,59,11.2,301.8,337.8,304.0
842.3,1634,14.2,14.2,100,12.16,59,11.3,301.8,337.9,304.0
841.8,1639,14.2,14.2,100,12.17,59,11.4,301.9,338.0,304.1
841.3,1644,14.2,14.2,100,12.17,58,11.5,301.9,338.0,304.1
840.8,1650,14.2,14.1,100,12.15,58,11.6,301.9,338.0,304.1
840.3,1655,14.1,14.1,100,12.12,57,11.7,301.9,337.9,304.1
839.8,1660,14.1,14.1,100,12.11,57,11.8,302.0,337.9,304.2
839.2,1665,14.1,14.0,99,12.08,56,11.8,302.0,337.9,304.2
838.7,1671,14.1,14.0,99,12.08,55,11.9,302.0,337.9,304.2
838.2,1676,14.1,14.0,100,12.08,54,11.9,302.1,337.9,304.2
837.6,1682,14.0,14.0,100,12.08,54,12.0,302.1,338.0,304.3
837.1,1687,14.0,14.0,100,12.07,53,12.0,302.1,338.0,304.3
836.5,1693,14.0,13.9,100,12.04,52,12.0,302.2,338.0,304.3
836.0,1698,14.0,13.9,100,12.04,51,12.0,302.2,338.0,304.4
835.4,1704,13.9,13.9,100,12.05,50,12.0,302.2,338.1,304.4
834.9,1710,13.9,13.9,100,12.03,50,12.0,302.2,338.0,304.4
834.3,1715,13.9,13.8,100,12.00,49,12.0,302.3,338.0,304.4
833.8,1720,13.8,13.8,100,11.97,48,12.0,302.3,337.9,304.5
833.3,1726,13.8,13.8,100,11.97,48,11.9,302.3,337.9,304.5
832.8,1731,13.8,13.8,100,11.97,47,11.9,302.3,338.0,304.5
832.3,1736,13.8,13.8,100,11.97,46,11.8,302.4,338.0,304.6
831.7,1741,13.8,13.8,100,12.00,46,11.8,302.4,338.2,304.6
831.2,1746,13.8,13.8,100,11.99,45,11.7,302.5,338.2,304.7
830.7,1752,13.8,13.8,100,11.99,45,11.7,302.5,338.2,304.7
830.2,1757,13.7,13.7,100,11.99,44,11.6,302.6,338.3,304.7
829.7,1763,13.7,13.7,100,11.99,44,11.5,302.6,338.3,304.8
829.1,1768,13.7,13.7,100,11.98,44,11.5,302.6,338.3,304.8
828.6,1773,13.7,13.7,100,11.97,44,11.4,302.7,338.3,304.8
828.1,1779,13.7,13.6,100,11.95,43,11.4,302.7,338.3,304.9
827.5,1784,13.6,13.6,100,11.92,43,11.3,302.7,338.2,304.9
