PRES,HGHT,TEMP,DWPT,RELH,MIXR,DRCT,SPED,THTA,THTE,THTV
1014.0,31,26.5,21.7,75,16.36,74,7.2,298.5,346.3,301.4
1013.2,38,25.6,21.5,78,16.16,76,6.0,297.6,344.7,300.5
1012.8,41,24.9,21.3,81,15.95,77,6.0,296.9,343.2,299.8
1012.2,46,24.4,21.1,82,15.77,78,6.3,296.5,342.2,299.3
1011.6,51,24.2,21.0,82,15.65,78,6.7,296.4,341.7,299.2
1010.9,57,24.2,20.9,82,15.60,78,7.1,296.4,341.5,299.1
1010.3,62,24.1,20.9,82,15.57,78,7.5,296.4,341.5,299.2
1009.8,67,24.1,20.8,82,15.46,78,7.8,296.4,341.1,299.1
1009.2,72,24.0,20.6,81,15.31,78,8.1,296.4,340.7,299.1
1008.6,78,23.9,20.5,81,15.20,78,8.5,296.4,340.3,299.1
1008.0,83,23.9,20.4,81,15.17,78,8.8,296.3,340.2,299.0
1007.4,88,23.8,20.4,81,15.17,78,9.0,296.3,340.2,299.0
1006.8,93,23.8,20.4,81,15.15,79,9.3,296.3,340.2,299.0
1006.2,99,23.7,20.4,82,15.13,79,9.5,296.3,340.1,299.0
1005.6,104,23.7,20.3,82,15.11,79,9.7,296.3,340.1,299.0
1005.0,109,23.6,20.3,82,15.10,79,9.9,296.3,340.0,299.0
1004.4,114,23.6,20.3,82,15.13,79,10.0,296.3,340.1,299.0
1003.8,119,23.5,20.3,82,15.15,79,10.2,296.3,340.2,299.0
1003.2,124,23.5,20.3,83,15.14,79,10.3,296.3,340.1,299.0
1002.7,129,23.4,20.3,83,15.13,79,10.4,296.3,340.1,299.0
1002.1,134,23.4,20.3,83,15.13,79,10.4,296.3,340.1,299.0
1001.6,139,23.3,20.3,83,15.13,79,10.5,296.3,340.1,299.0
1001.0,144,23.3,20.3,83,15.15,80,10.6,296.3,340.2,299.0
1000.5,148,23.2,20.3,84,15.15,80,10.6,296.3,340.2,299.0
1000.0,153,23.2,20.3,84,15.17,80,10.6,296.4,340.2,299.0
999.4,158,23.2,20.3,84,15.21,80,10.7,296.4,340.4,299.0
998.9,163,23.1,20.4,85,15.25,80,10.7,296.3,340.5,299.0
998.3,168,23.1,20.4,85,15.27,80,10.7,296.3,340.5,299.1
997.7,173,23.0,20.4,85,15.26,80,10.7,296.3,340.5,299.0
997.1,178,23.0,20.4,85,15.27,80,10.7,296.3,340.5,299.1
996.5,183,22.9,20.4,86,15.29,80,10.7,296.3,340.6,299.1
995.9,188,22.9,20.4,86,15.30,80,10.8,296.3,340.6,299.1
995.3,194,22.8,20.3,86,15.28,80,10.8,296.4,340.6,299.1
994.8,199,22.8,20.3,86,15.27,80,10.8,296.4,340.5,299.1
994.2,204,22.7,20.3,86,15.27,80,10.8,296.4,340.5,299.1
993.6,208,22.7,20.3,86,15.24,80,10.8,296.4,340.5,299.1
993.1,213,22.6,20.2,86,15.14,80,10.8,296.4,340.2,299.1
992.5,218,22.6,20.0,85,15.01,80,10.8,296.4,339.8,299.1
991.9,223,22.6,19.8,84,14.85,80,10.8,296.4,339.4,299.1
991.4,228,22.6,19.6,83,14.68,80,10.8,296.5,339.0,299.1
990.9,233,22.6,19.5,83,14.54,80,10.8,296.5,338.7,299.1
990.3,238,22.6,19.4,82,14.49,80,10.8,296.6,338.5,299.1
989.8,242,22.6,19.4,82,14.49,80,10.8,296.6,338.5,299.1
989.2,247,22.5,19.5,83,14.55,80,10.8,296.6,338.7,299.2
988.7,252,22.4,19.5,84,14.60,80,10.8,296.5,338.8,299.1
988.1,257,22.4,19.5,84,14.55,80,10.8,296.5,338.7,299.1
987.5,262,22.3,19.4,83,14.47,80,10.8,296.5,338.5,299.1
987.0,267,22.3,19.3,83,14.43,80,10.8,296.6,338.4,299.1
986.4,272,22.3,19.3,83,14.39,80,10.8,296.6,338.3,299.1
985.8,277,22.2,19.2,83,14.39,80,10.8,296.6,338.3,299.2
985.2,283,22.2,19.3,84,14.45,80,10.8,296.6,338.5,299.2
984.6,288,22.1,19.4,84,14.51,80,10.8,296.6,338.6,299.2
984.1,293,22.1,19.3,85,14.50,80,10.8,296.6,338.6,299.1
983.5,298,22.0,19.3,85,14.48,80,10.8,296.6,338.5,299.1
982.9,303,21.9,19.2,85,14.43,79,10.8,296.5,338.4,299.1
982.3,308,21.9,19.2,84,14.38,79,10.9,296.6,338.2,299.1
981.8,313,21.9,19.2,85,14.40,79,10.9,296.6,338.3,299.1
981.2,318,21.8,19.3,86,14.53,79,10.9,296.6,338.7,299.1
980.6,323,21.7,19.5,87,14.71,79,10.9,296.5,339.1,299.1
980.1,328,21.6,19.7,89,14.88,79,10.9,296.5,339.6,299.1
979.5,333,21.6,19.8,90,14.97,79,10.9,296.4,339.8,299.1
978.9,339,21.5,19.8,90,15.00,78,10.9,296.4,339.8,299.1
978.3,344,21.4,19.7,90,14.96,78,10.9,296.4,339.7,299.1
977.7,349,21.4,19.6,90,14.86,78,10.9,296.4,339.4,299.1
977.1,355,21.3,19.5,89,14.77,78,10.9,296.4,339.2,299.1
976.5,360,21.3,19.5,89,14.77,78,10.9,296.5,339.2,299.1
975.8,366,21.3,19.5,90,14.82,77,10.9,296.5,339.4,299.1
975.2,372,21.2,19.6,91,14.87,77,11.0,296.5,339.5,299.1
974.6,377,21.1,19.6,91,14.92,77,11.0,296.5,339.7,299.1
974.0,383,21.1,19.7,92,15.04,77,11.0,296.5,340.0,299.1
973.4,388,21.0,19.8,93,15.13,77,11.0,296.5,340.2,299.1
972.8,393,21.0,19.8,93,15.13,76,11.0,296.4,340.2,299.1
972.2,399,20.9,19.8,93,15.08,76,11.1,296.4,340.1,299.1
971.6,404,20.8,19.7,93,15.05,76,11.1,296.4,340.0,299.1
971.0,409,20.8,19.7,93,15.05,76,11.1,296.4,340.0,299.1
970.5,414,20.7,19.7,94,15.02,76,11.1,296.4,339.9,299.1
969.9,419,20.7,19.5,93,14.90,75,11.1,296.4,339.6,299.1
969.4,423,20.7,19.4,92,14.75,75,11.2,296.5,339.2,299.1
968.9,428,20.7,19.3,92,14.67,75,11.2,296.5,339.0,299.1
968.3,433,20.6,19.3,92,14.73,75,11.2,296.5,339.2,299.1
967.8,438,20.6,19.4,93,14.82,75,11.3,296.5,339.4,299.1
967.2,443,20.5,19.4,93,14.81,74,11.3,296.5,339.4,299.1
966.7,448,20.5,19.2,92,14.65,74,11.3,296.5,338.9,299.1
966.2,453,20.5,19.0,91,14.46,74,11.4,296.5,338.4,299.1
965.6,457,20.5,18.9,91,14.38,74,11.4,296.6,338.2,299.1
965.0,463,20.4,18.9,91,14.41,74,11.4,296.6,338.3,299.1
964.5,468,20.4,19.0,92,14.46,73,11.5,296.6,338.5,299.1
963.9,473,20.3,19.0,92,14.47,73,11.5,296.6,338.5,299.1
963.4,478,20.3,18.9,92,14.42,73,11.5,296.6,338.4,299.1
962.8,483,20.2,18.9,92,14.38,73,11.5,296.6,338.2,299.1
962.3,488,20.2,18.8,91,14.32,73,11.6,296.6,338.1,299.1
961.7,493,20.2,18.7,91,14.28,72,11.6,296.6,338.0,299.1
961.1,498,20.1,18.7,92,14.29,72,11.6,296.6,338.0,299.2
960.5,503,20.1,18.7,92,14.30,72,11.6,296.6,338.0,299.1
960.0,508,20.0,18.7,92,14.28,72,11.6,296.6,338.0,299.1
959.4,513,20.0,18.6,92,14.24,72,11.6,296.6,337.9,299.2
958.8,519,20.0,18.6,92,14.22,72,11.6,296.6,337.9,299.2
958.2,524,19.9,18.6,92,14.26,72,11.6,296.6,338.0,299.2
957.6,529,19.9,18.7,93,14.29,71,11.6,296.7,338.1,299.2
957.0,535,19.8,18.7,93,14.29,71,11.6,296.7,338.1,299.2
956.4,540,19.8,18.6,93,14.27,71,11.6,296.7,338.0,299.2
955.8,545,19.7,18.5,93,14.20,72,11.6,296.7,337.8,299.2
955.2,551,19.7,18.4,93,14.12,72,11.5,296.7,337.6,299.2
954.6,557,19.6,18.3,92,14.03,72,11.5,296.7,337.4,299.2
954.0,562,19.6,18.3,92,13.97,72,11.5,296.7,337.2,299.2
953.4,568,19.6,18.2,92,13.95,72,11.4,296.7,337.2,299.2
952.8,573,19.5,18.2,92,13.96,72,11.4,296.7,337.2,299.2
952.2,579,19.5,18.2,93,13.98,72,11.4,296.7,337.3,299.2
951.5,584,19.4,18.2,93,13.99,72,11.3,296.8,337.3,299.3
950.9,590,19.4,18.2,93,13.99,73,11.3,296.8,337.4,299.3
950.3,596,19.4,18.2,93,13.97,73,11.2,296.8,337.3,299.3
949.7,601,19.3,18.2,93,13.95,73,11.2,296.8,337.3,299.3
949.1,606,19.3,18.1,93,13.94,73,11.1,296.8,337.3,299.3
948.5,612,19.2,18.2,93,13.96,73,11.1,296.8,337.3,299.3
947.9,617,19.2,18.2,94,14.00,74,11.1,296.8,337.5,299.3
947.3,623,19.2,18.2,94,14.04,74,11.0,296.9,337.6,299.4
946.7,628,19.1,18.2,95,14.05,74,11.0,296.8,337.6,299.3
946.1,634,19.0,18.2,95,14.04,74,11.0,296.9,337.6,299.4
945.5,640,19.0,18.2,95,14.01,74,10.9,296.9,337.5,299.4
944.8,646,19.0,18.1,95,13.98,74,10.9,296.9,337.4,299.4
944.2,651,18.9,18.1,95,13.97,74,10.9,296.9,337.4,299.4
943.5,657,18.9,18.1,95,14.00,74,10.9,296.9,337.6,299.4
942.9,663,18.9,18.2,96,14.09,74,10.9,296.9,337.8,299.5
942.2,669,18.8,18.4,97,14.24,74,10.8,296.9,338.2,299.5
941.6,675,18.7,18.5,98,14.34,74,10.8,296.9,338.5,299.5
941.0,681,18.6,18.4,99,14.32,74,10.8,296.9,338.4,299.4
940.3,687,18.6,18.3,98,14.21,74,10.8,296.9,338.1,299.4
939.7,692,18.6,18.2,98,14.10,74,10.8,296.9,337.8,299.4
939.1,698,18.5,18.1,98,14.08,74,10.8,296.9,337.8,299.5
938.5,703,18.5,18.1,98,14.10,74,10.8,296.9,337.9,299.5
937.9,709,18.4,18.1,98,14.04,74,10.8,297.0,337.7,299.5
937.3,715,18.4,18.0,97,13.95,74,10.8,297.0,337.5,299.5
936.7,720,18.4,17.9,97,13.89,74,10.8,297.0,337.3,299.5
936.1,726,18.3,17.8,97,13.84,74,10.9,297.0,337.2,299.5
935.4,731,18.3,17.8,97,13.83,74,10.9,297.1,337.2,299.5
934.8,737,18.3,17.8,97,13.84,74,10.9,297.1,337.2,299.5
934.2,743,18.2,17.8,97,13.84,74,10.9,297.1,337.2,299.5
933.6,749,18.2,17.8,98,13.84,74,10.9,297.1,337.3,299.5
933.0,754,18.1,17.8,98,13.86,74,10.9,297.1,337.3,299.6
932.3,760,18.1,17.8,98,13.86,74,10.9,297.1,337.4,299.6
931.7,766,18.0,17.8,98,13.86,74,10.8,297.1,337.4,299.6
931.1,772,18.0,17.7,98,13.83,74,10.8,297.1,337.3,299.6
930.4,778,17.9,17.7,98,13.80,74,10.8,297.2,337.2,299.6
929.7,784,17.9,17.6,98,13.76,74,10.8,297.2,337.2,299.6
929.1,790,17.9,17.6,98,13.73,74,10.8,297.2,337.1,299.6
928.4,797,17.8,17.5,98,13.67,74,10.8,297.2,337.0,299.7
927.7,803,17.8,17.4,98,13.63,74,10.8,297.3,336.9,299.7
927.0,810,17.8,17.4,98,13.61,74,10.7,297.3,336.8,299.7
926.3,816,17.7,17.4,98,13.60,73,10.7,297.3,336.8,299.7
925.6,822,17.7,17.4,98,13.60,73,10.7,297.3,336.9,299.7
925.0,828,17.6,17.4,98,13.61,73,10.7,297.3,336.9,299.7
924.9,829,17.6,17.4,98,13.61,73,10.6,297.3,336.9,299.7
924.2,835,17.5,17.3,99,13.61,73,10.6,297.3,336.9,299.7
923.5,842,17.5,17.3,99,13.59,73,10.6,297.3,336.8,299.7
922.8,849,17.5,17.3,99,13.58,73,10.6,297.3,336.8,299.8
922.0,856,17.4,17.3,99,13.59,73,10.5,297.4,336.9,299.8
921.3,862,17.3,17.3,100,13.61,73,10.5,297.4,336.9,299.8
920.6,869,17.3,17.3,100,13.60,72,10.5,297.4,336.9,299.8
919.8,876,17.2,17.2,100,13.57,72,10.5,297.4,336.9,299.8
919.1,883,17.2,17.2,100,13.53,72,10.4,297.4,336.8,299.9
918.4,889,17.2,17.1,100,13.51,72,10.4,297.5,336.8,299.9
917.7,896,17.2,17.1,100,13.49,71,10.4,297.5,336.8,299.9
917.0,902,17.1,17.1,100,13.49,71,10.4,297.6,336.8,300.0
916.3,909,17.1,17.1,100,13.52,71,10.4,297.6,337.0,300.0
915.6,915,17.2,17.2,100,13.59,71,10.4,297.7,337.3,300.2
914.9,922,17.2,17.2,100,13.63,71,10.4,297.8,337.6,300.3
914.2,929,17.2,17.2,100,13.63,70,10.4,297.9,337.6,300.3
913.5,936,17.2,17.1,100,13.59,70,10.4,297.9,337.5,300.3
912.7,942,17.1,17.1,100,13.57,70,10.4,297.9,337.5,300.3
912.0,949,17.0,17.0,100,13.52,70,10.4,297.9,337.3,300.3
911.3,956,17.0,16.9,100,13.45,70,10.4,297.9,337.1,300.3
910.7,962,16.9,16.9,100,13.43,69,10.4,297.9,337.1,300.3
910.0,968,17.0,16.9,100,13.47,69,10.4,298.0,337.3,300.4
909.4,974,17.0,17.0,100,13.50,69,10.5,298.1,337.5,300.5
908.7,980,17.0,17.0,100,13.54,69,10.5,298.2,337.7,300.6
908.1,986,17.1,17.0,100,13.59,69,10.5,298.3,338.0,300.7
907.5,991,17.1,17.1,100,13.60,69,10.5,298.4,338.1,300.8
907.0,997,17.0,17.0,100,13.58,69,10.5,298.4,338.0,300.8
906.4,1002,17.0,16.9,100,13.51,69,10.5,298.4,337.8,300.8
905.9,1007,16.9,16.8,100,13.44,68,10.5,298.3,337.6,300.8
905.3,1012,16.9,16.8,100,13.43,68,10.5,298.4,337.6,300.8
904.8,1017,16.8,16.8,100,13.46,68,10.4,298.4,337.7,300.8
904.2,1023,16.8,16.8,100,13.47,68,10.4,298.5,337.8,300.9
903.7,1028,16.8,16.8,100,13.47,68,10.4,298.5,337.9,300.9
903.1,1033,16.9,16.9,100,13.50,68,10.4,298.6,338.0,301.0
902.5,1039,16.9,16.9,100,13.55,68,10.3,298.7,338.3,301.1
901.9,1044,16.9,16.9,100,13.55,68,10.3,298.8,338.4,301.2
901.4,1050,16.9,16.8,99,13.49,68,10.2,298.8,338.2,301.2
900.8,1055,16.9,16.7,99,13.43,68,10.1,298.8,338.1,301.2
900.2,1061,16.9,16.7,99,13.41,68,10.1,298.8,338.1,301.2
899.7,1066,16.8,16.7,99,13.41,68,10.0,298.9,338.1,301.3
899.1,1071,16.8,16.7,99,13.42,68,9.9,298.9,338.2,301.3
898.5,1077,16.8,16.6,99,13.38,68,9.8,299.0,338.1,301.4
897.9,1082,16.7,16.6,99,13.32,68,9.7,298.9,338.0,301.3
897.4,1088,16.7,16.5,99,13.29,68,9.6,298.9,337.8,301.3
896.8,1093,16.6,16.5,99,13.30,68,9.5,298.9,337.9,301.3
896.1,1099,16.6,16.5,99,13.32,68,9.4,299.0,338.0,301.4
895.5,1105,16.6,16.5,100,13.31,68,9.3,299.0,338.0,301.4
894.9,1111,16.5,16.5,100,13.29,68,9.2,299.0,338.0,301.4
894.3,1117,16.5,16.4,100,13.27,68,9.0,299.0,337.9,301.4
893.6,1123,16.4,16.4,100,13.24,68,8.9,299.0,337.8,301.4
893.0,1130,16.4,16.3,100,13.19,68,8.8,299.1,337.7,301.4
892.3,1136,16.4,16.3,99,13.14,68,8.7,299.1,337.6,301.4
891.7,1142,16.3,16.2,99,13.13,67,8.6,299.1,337.6,301.5
891.0,1148,16.3,16.3,99,13.16,67,8.5,299.2,337.8,301.5
890.4,1154,16.3,16.3,100,13.18,67,8.3,299.2,337.9,301.6
889.8,1160,16.3,16.2,99,13.15,67,8.2,299.3,337.8,301.6
889.1,1167,16.3,16.1,99,13.09,67,8.1,299.3,337.7,301.6
888.5,1173,16.2,16.0,99,13.01,66,8.0,299.3,337.4,301.6
887.8,1179,16.1,15.9,99,12.94,66,7.9,299.3,337.2,301.6
887.1,1186,16.0,15.8,99,12.84,66,7.8,299.2,336.9,301.6
886.5,1192,15.9,15.7,98,12.74,66,7.7,299.2,336.6,301.5
885.8,1198,15.9,15.6,98,12.69,65,7.7,299.2,336.4,301.5
885.2,1204,15.8,15.6,99,12.67,65,7.6,299.2,336.4,301.5
884.6,1210,15.8,15.6,99,12.68,64,7.5,299.2,336.4,301.5
883.9,1217,15.7,15.6,99,12.69,64,7.5,299.2,336.5,301.5
883.3,1223,15.7,15.6,99,12.72,64,7.4,299.3,336.6,301.5
882.6,1229,15.7,15.6,100,12.73,63,7.3,299.3,336.6,301.6
882.0,1235,15.6,15.6,100,12.71,63,7.3,299.3,336.6,301.6
881.4,1241,15.6,15.5,100,12.68,62,7.3,299.3,336.5,301.6
880.7,1247,15.6,15.5,99,12.66,62,7.2,299.4,336.5,301.6
880.1,1253,15.5,15.5,100,12.65,61,7.2,299.4,336.5,301.7
879.5,1260,15.5,15.4,99,12.62,61,7.2,299.4,336.5,301.7
878.9,1266,15.5,15.4,99,12.59,60,7.1,299.5,336.5,301.7
878.2,1272,15.5,15.3,99,12.56,60,7.1,299.5,336.4,301.8
877.6,1278,15.5,15.3,99,12.54,59,7.1,299.6,336.4,301.8
877.0,1284,15.4,15.3,99,12.54,59,7.1,299.6,336.5,301.9
876.4,1290,15.4,15.2,99,12.53,58,7.1,299.6,336.5,301.9
875.8,1296,15.4,15.2,99,12.50,57,7.1,299.7,336.4,301.9
875.1,1302,15.3,15.1,99,12.47,57,7.1,299.7,336.4,301.9
874.5,1308,15.3,15.1,99,12.45,56,7.1,299.7,336.4,302.0
873.9,1313,15.3,15.1,99,12.46,56,7.1,299.8,336.4,302.0
873.3,1319,15.3,15.2,99,12.50,55,7.1,299.9,336.6,302.1
872.7,1325,15.3,15.2,99,12.55,54,7.1,299.9,336.8,302.2
872.1,1331,15.3,15.3,100,12.62,54,7.1,300.0,337.2,302.3
871.5,1337,15.4,15.3,100,12.68,53,7.1,300.1,337.5,302.4
870.9,1343,15.4,15.3,99,12.68,53,7.1,300.2,337.6,302.5
870.3,1348,15.4,15.3,99,12.65,52,7.1,300.3,337.6,302.6
869.7,1354,15.4,15.2,99,12.62,51,7.1,300.3,337.5,302.6
869.1,1360,15.4,15.2,99,12.58,51,7.1,300.3,337.4,302.6
868.5,1367,15.3,15.1,99,12.54,50,7.1,300.3,337.3,302.6
867.9,1373,15.2,15.0,99,12.46,50,7.1,300.3,337.0,302.5
867.3,1379,15.1,14.9,99,12.40,49,7.1,300.2,336.8,302.5
866.7,1384,15.1,14.9,99,12.37,48,7.1,300.2,336.7,302.5
866.1,1390,15.0,14.8,99,12.35,48,7.1,300.3,336.7,302.5
865.5,1396,15.1,14.8,99,12.36,47,7.1,300.3,336.8,302.6
864.9,1401,15.1,14.8,99,12.37,47,7.1,300.4,336.9,302.6
864.4,1407,15.0,14.8,99,12.35,46,7.1,300.4,336.9,302.7
863.9,1412,15.0,14.8,98,12.31,46,7.1,300.4,336.8,302.7
863.3,1417,15.0,14.7,98,12.31,45,7.1,300.5,336.8,302.7
862.8,1422,15.0,14.8,99,12.36,45,7.1,300.6,337.1,302.8
862.3,1427,15.1,14.9,99,12.43,44,7.1,300.7,337.4,302.9
861.8,1432,15.1,15.0,99,12.50,44,7.1,300.8,337.7,303.1
861.3,1437,15.2,15.0,99,12.53,44,7.1,300.9,337.9,303.1
860.8,1442,15.2,14.9,98,12.49,43,7.1,300.9,337.8,303.2
860.4,1446,15.1,14.8,98,12.42,43,7.1,300.9,337.7,303.2
859.9,1451,15.1,14.8,98,12.37,43,7.1,300.9,337.5,303.1
859.4,1456,14.9,14.6,98,12.23,43,7.1,300.8,336.9,303.0
858.9,1461,14.7,14.4,98,12.06,42,7.0,300.6,336.3,302.8
858.4,1466,14.6,14.3,98,11.99,42,7.0,300.5,335.9,302.7
857.9,1471,14.5,14.2,98,11.99,42,7.0,300.5,335.9,302.7
857.4,1476,14.5,14.3,99,12.01,42,7.0,300.6,336.0,302.7
856.8,1482,14.5,14.3,99,12.06,42,6.9,300.6,336.3,302.8
856.2,1487,14.5,14.3,99,12.08,42,6.9,300.7,336.4,302.9
855.6,1493,14.5,14.2,98,12.01,43,6.9,300.8,336.2,302.9
855.1,1499,14.4,14.0,98,11.87,43,6.8,300.7,335.8,302.9
854.5,1504,14.3,13.9,97,11.78,43,6.8,300.7,335.5,302.8
854.0,1510,14.3,13.9,98,11.75,43,6.7,300.7,335.4,302.8
853.4,1515,14.2,13.9,98,11.75,44,6.7,300.7,335.4,302.8
852.9,1521,14.2,13.9,98,11.75,44,6.6,300.7,335.5,302.8
852.3,1526,14.2,13.9,98,11.78,44,6.6,300.7,335.5,302.9
851.8,1532,14.1,13.9,99,11.79,45,6.5,300.7,335.6,302.9
851.2,1537,14.1,13.9,99,11.78,45,6.5,300.7,335.6,302.9
850.6,1543,14.0,13.8,99,11.75,46,6.4,300.8,335.5,302.9
850.0,1549,14.0,13.8,99,11.72,47,6.3,300.8,335.4,302.9
849.5,1554,13.9,13.7,99,11.69,47,6.3,300.8,335.4,302.9
848.9,1560,13.9,13.7,98,11.65,48,6.3,300.8,335.3,302.9
848.3,1566,13.9,13.6,98,11.62,48,6.3,300.8,335.2,302.9
847.7,1572,13.8,13.6,98,11.60,49,6.2,300.9,335.2,302.9
847.1,1578,13.8,13.6,98,11.60,50,6.2,300.9,335.2,303.0
846.5,1584,13.8,13.6,99,11.61,50,6.2,300.9,335.3,303.0
846.0,1590,13.8,13.5,99,11.59,51,6.1,300.9,335.3,303.0
845.4,1595,13.8,13.4,98,11.51,52,6.1,301.0,335.1,303.1
844.8,1601,13.8,13.2,96,11.33,53,6.1,301.1,334.7,303.2
844.2,1607,14.0,12.8,92,11.05,53,6.1,301.3,334.1,303.3
843.6,1613,14.1,12.4,89,10.81,54,6.1,301.6,333.7,303.6
843.1,1618,14.3,12.3,88,10.71,55,6.1,301.8,333.6,303.7
842.5,1624,14.3,12.2,88,10.68,56,6.1,301.8,333.7,303.8
841.9,1630,14.3,12.2,87,10.66,56,6.1,301.9,333.6,303.8
841.4,1635,14.3,12.1,87,10.58,57,6.1,302.0,333.5,303.9
840.8,1641,14.3,11.9,85,10.46,58,6.1,302.1,333.2,304.0
840.3,1646,14.4,11.7,84,10.35,58,6.1,302.2,333.0,304.1
839.8,1652,14.4,11.6,83,10.30,59,6.1,302.3,333.0,304.2
839.2,1657,14.4,11.6,83,10.31,59,6.2,302.3,333.1,304.2
838.7,1663,14.4,11.7,84,10.32,60,6.2,302.4,333.2,304.2
838.1,1668,14.4,11.6,83,10.30,60,6.2,302.4,333.2,304.3
837.6,1674,14.3,11.5,83,10.26,61,6.2,302.4,333.1,304.3
837.0,1680,14.3,11.5,83,10.23,61,6.2,302.5,333.0,304.3
836.4,1685,14.3,11.5,83,10.22,61,6.2,302.5,333.0,304.3
835.9,1691,14.2,11.4,83,10.21,62,6.3,302.5,333.0,304.4
835.3,1697,14.2,11.4,83,10.22,62,6.3,302.5,333.0,304.4
834.7,1702,14.2,11.4,84,10.21,62,6.3,302.5,333.0,304.4
834.2,1708,14.1,11.4,84,10.19,62,6.3,302.5,333.0,304.4
833.6,1714,14.0,11.4,84,10.20,62,6.3,302.5,333.0,304.4
833.0,1720,14.0,11.4,84,10.20,62,6.3,302.5,333.0,304.4
832.5,1725,13.9,11.4,84,10.21,62,6.3,302.5,333.0,304.4
831.9,1731,13.9,11.4,85,10.22,62,6.3,302.5,333.1,304.4
831.3,1737,13.8,11.3,85,10.20,62,6.3,302.5,333.0,304.4
830.7,1744,13.8,11.3,85,10.16,62,6.3,302.5,332.9,304.4
830.1,1750,13.7,11.1,84,10.08,62,6.3,302.6,332.7,304.4
829.5,1756,13.7,11.0,84,9.99,62,6.4,302.6,332.5,304.4
828.9,1762,13.7,10.9,83,9.93,62,6.4,302.6,332.3,304.4
828.3,1767,13.7,10.8,83,9.88,62,6.4,302.7,332.2,304.5
827.8,1773,13.6,10.8,83,9.87,61,6.3,302.7,332.2,304.5
827.2,1779,13.6,10.8,83,9.89,61,6.3,302.7,332.3,304.5
826.6,1785,13.6,10.8,83,9.92,61,6.3,302.8,332.5,304.6
826.1,1791,13.6,10.9,84,9.94,61,6.3,302.8,332.6,304.6
825.5,1797,13.6,10.9,84,9.95,61,6.3,302.8,332.6,304.7
824.9,1802,13.5,10.9,84,9.96,61,6.3,302.9,332.7,304.7
824.4,1808,13.5,10.8,84,9.95,61,6.3,302.9,332.7,304.7
823.8,1814,13.5,10.8,84,9.95,61,6.3,302.9,332.7,304.7
823.3,1819,13.4,10.8,84,9.95,61,6.3,302.9,332.7,304.7
822.7,1825,13.4,10.8,85,9.96,61,6.3,302.9,332.8,304.8
822.2,1830,13.3,10.8,85,9.96,61,6.3,302.9,332.8,304.8
821.6,1836,13.3,10.8,85,9.96,61,6.3,302.9,332.8,304.8
821.1,1842,13.2,10.8,85,9.96,61,6.3,302.9,332.8,304.8
820.5,1847,13.2,10.8,86,9.98,62,6.3,302.9,332.8,304.8
820.0,1853,13.1,10.8,86,9.98,62,6.2,303.0,332.9,304.8
819.4,1859,13.1,10.8,86,10.00,62,6.2,303.0,332.9,304.8
818.9,1864,13.0,10.8,86,10.00,62,6.2,303.0,332.9,304.8
818.3,1870,13.0,10.8,87,9.99,63,6.2,303.0,332.9,304.8
817.8,1876,12.9,10.7,87,9.96,63,6.2,303.0,332.8,304.8
817.2,1882,12.9,10.7,87,9.94,63,6.2,303.0,332.8,304.8
816.6,1887,12.8,10.7,87,9.92,64,6.2,303.0,332.8,304.8
816.1,1893,12.8,10.6,87,9.91,64,6.2,303.1,332.8,304.9
815.5,1899,12.8,10.6,86,9.90,64,6.2,303.1,332.8,304.9
814.9,1905,12.8,10.6,86,9.89,65,6.2,303.2,332.8,305.0
814.4,1911,12.8,10.6,87,9.89,65,6.2,303.2,332.8,305.0
813.8,1917,12.7,10.6,87,9.90,65,6.2,303.2,332.9,305.0
813.2,1923,12.7,10.6,87,9.89,65,6.2,303.2,332.9,305.0
812.7,1928,12.6,10.5,87,9.88,66,6.2,303.2,332.9,305.0
812.1,1934,12.6,10.5,87,9.89,66,6.2,303.2,332.9,305.0
811.6,1940,12.5,10.5,87,9.88,66,6.2,303.2,332.9,305.0
811.0,1946,12.5,10.5,88,9.89,66,6.2,303.2,332.9,305.1
810.5,1951,12.4,10.5,88,9.89,66,6.3,303.2,332.9,305.1
809.9,1957,12.4,10.4,88,9.85,66,6.3,303.3,332.8,305.1
809.4,1962,12.4,10.4,88,9.83,66,6.3,303.3,332.8,305.1
808.9,1968,12.4,10.4,88,9.83,66,6.3,303.3,332.8,305.1
808.3,1974,12.3,10.4,88,9.87,66,6.3,303.4,333.0,305.2
807.7,1980,12.3,10.4,88,9.87,66,6.4,303.4,333.1,305.2
807.2,1986,12.3,10.4,88,9.84,66,6.4,303.5,333.0,305.3
806.6,1992,12.3,10.3,88,9.79,66,6.4,303.5,332.9,305.3
806.0,1998,12.3,10.2,87,9.77,66,6.4,303.5,332.9,305.3
805.4,2004,12.2,10.2,88,9.76,65,6.5,303.6,332.9,305.4
804.8,2010,12.2,10.2,88,9.74,65,6.5,303.6,332.9,305.4
804.3,2016,12.2,10.1,87,9.67,65,6.5,303.6,332.7,305.4
803.7,2022,12.1,9.8,86,9.53,64,6.5,303.6,332.3,305.4
803.1,2028,12.1,9.5,84,9.33,64,6.6,303.7,331.8,305.4
802.6,2034,12.1,9.2,83,9.16,63,6.6,303.7,331.3,305.4
802.0,2040,12.1,9.0,82,9.04,63,6.6,303.8,331.0,305.4
801.5,2045,12.1,8.8,81,8.92,62,6.7,303.8,330.7,305.4
800.9,2051,12.0,8.5,79,8.75,62,6.7,303.9,330.3,305.5
