PRES,HGHT,TEMP,DWPT,RELH,MIXR,DRCT,SPED,THTA,THTE,THTV
1014.9,31,28.8,20.6,61,15.19,46,6.8,300.7,345.5,303.4
1014.0,39,27.7,20.1,64,14.80,55,4.7,299.6,343.1,302.3
1013.4,43,27.1,20.1,65,14.76,58,4.6,299.1,342.4,301.8
1013.2,46,26.7,19.9,66,14.55,60,4.8,298.8,341.4,301.4
1012.7,50,26.5,19.7,66,14.39,60,5.1,298.5,340.6,301.1
1012.0,56,26.3,19.6,67,14.36,60,5.5,298.4,340.4,301.0
1011.4,61,26.2,19.6,67,14.30,60,5.9,298.4,340.2,301.0
1010.9,66,26.2,19.4,66,14.15,61,6.2,298.4,339.7,300.9
1010.3,71,26.1,19.2,66,14.01,61,6.5,298.3,339.2,300.8
1009.7,76,26.0,19.1,66,13.89,62,6.8,298.3,338.9,300.8
1009.2,81,25.9,19.0,66,13.83,62,7.0,298.3,338.7,300.7
1008.6,86,25.8,19.0,66,13.82,62,7.3,298.2,338.6,300.7
1008.0,91,25.8,18.9,66,13.79,63,7.5,298.2,338.5,300.7
1007.5,96,25.7,18.9,66,13.75,63,7.7,298.2,338.4,300.7
1006.9,100,25.7,18.9,66,13.74,63,7.9,298.3,338.4,300.7
1006.4,105,25.7,18.9,66,13.75,64,8.0,298.3,338.4,300.7
1005.8,110,25.6,18.8,66,13.70,64,8.2,298.3,338.3,300.7
1005.3,115,25.6,18.7,66,13.63,64,8.3,298.3,338.1,300.7
1004.8,119,25.5,18.7,66,13.62,65,8.4,298.3,338.0,300.7
1004.2,124,25.5,18.8,66,13.71,65,8.5,298.3,338.3,300.7
1003.7,129,25.4,18.9,67,13.83,65,8.5,298.3,338.7,300.7
1003.2,133,25.4,19.0,68,13.92,66,8.6,298.2,338.9,300.7
1002.6,138,25.3,19.0,68,13.95,66,8.6,298.2,339.0,300.7
1002.1,143,25.3,19.0,68,13.96,66,8.6,298.2,339.0,300.7
1001.5,148,25.2,19.0,68,13.94,67,8.6,298.2,339.0,300.7
1000.9,153,25.2,19.0,69,13.97,67,8.6,298.3,339.1,300.8
1000.4,158,25.1,19.0,69,13.98,67,8.6,298.2,339.1,300.7
1000.0,161,25.1,19.0,69,13.96,67,8.6,298.2,339.0,300.7
999.8,163,25.1,19.0,69,13.95,67,8.6,298.3,339.0,300.8
999.3,167,25.1,19.0,69,13.95,67,8.6,298.3,339.0,300.8
998.7,172,25.0,19.0,69,13.96,68,8.6,298.3,339.0,300.8
998.1,178,25.0,19.0,70,14.00,68,8.6,298.3,339.2,300.8
997.5,183,24.9,19.0,70,13.98,68,8.6,298.3,339.1,300.8
996.9,188,24.8,18.9,70,13.91,68,8.5,298.3,338.9,300.7
996.3,193,24.8,18.8,69,13.87,68,8.5,298.3,338.8,300.7
995.7,199,24.7,18.8,70,13.85,68,8.5,298.2,338.7,300.7
995.1,204,24.7,18.7,70,13.80,68,8.5,298.2,338.6,300.7
994.5,210,24.6,18.7,69,13.73,68,8.5,298.2,338.4,300.7
993.9,215,24.6,18.6,69,13.68,68,8.5,298.3,338.2,300.7
993.3,220,24.5,18.6,69,13.66,68,8.5,298.3,338.2,300.7
992.7,225,24.5,18.5,69,13.66,68,8.5,298.3,338.2,300.7
992.2,230,24.4,18.6,70,13.69,68,8.5,298.3,338.2,300.7
991.6,235,24.4,18.6,70,13.73,68,8.5,298.3,338.4,300.7
991.1,240,24.4,18.6,70,13.76,68,8.5,298.3,338.5,300.7
990.5,245,24.3,18.6,71,13.77,67,8.5,298.3,338.5,300.7
990.0,250,24.3,18.6,71,13.76,67,8.5,298.3,338.5,300.7
989.5,254,24.2,18.6,71,13.78,67,8.5,298.3,338.5,300.7
988.9,259,24.2,18.6,71,13.78,67,8.5,298.3,338.5,300.7
988.4,264,24.1,18.7,72,13.82,67,8.5,298.3,338.6,300.7
987.8,269,24.1,18.7,72,13.90,67,8.5,298.3,338.9,300.7
987.3,273,24.0,18.7,72,13.89,67,8.5,298.3,338.8,300.8
986.8,278,24.0,18.6,72,13.82,67,8.5,298.3,338.6,300.7
986.2,283,23.9,18.6,72,13.76,66,8.4,298.3,338.5,300.7
985.6,288,23.9,18.5,72,13.76,66,8.4,298.3,338.5,300.7
985.0,294,23.8,18.6,72,13.79,66,8.4,298.3,338.6,300.7
984.4,299,23.8,18.7,73,13.88,66,8.4,298.3,338.8,300.8
983.8,305,23.7,18.8,74,13.98,66,8.3,298.3,339.1,300.8
983.2,310,23.7,18.8,74,14.02,66,8.3,298.2,339.2,300.7
982.5,316,23.6,18.7,74,13.98,66,8.3,298.2,339.1,300.7
982.0,321,23.5,18.7,74,13.93,65,8.3,298.2,338.9,300.7
981.4,326,23.5,18.6,74,13.90,65,8.2,298.2,338.8,300.7
980.8,331,23.5,18.6,74,13.88,65,8.2,298.2,338.8,300.7
980.3,336,23.4,18.5,74,13.79,65,8.2,298.3,338.6,300.7
979.8,340,23.4,18.4,74,13.73,65,8.2,298.3,338.4,300.7
979.3,345,23.4,18.4,74,13.70,65,8.2,298.3,338.3,300.7
978.7,350,23.3,18.3,74,13.67,65,8.2,298.3,338.2,300.7
978.2,354,23.3,18.3,74,13.65,64,8.1,298.3,338.2,300.7
977.7,359,23.2,18.3,74,13.66,64,8.1,298.3,338.2,300.7
977.2,364,23.2,18.3,74,13.68,64,8.1,298.3,338.2,300.7
976.6,369,23.1,18.3,74,13.69,64,8.1,298.3,338.3,300.7
976.1,373,23.1,18.3,75,13.70,64,8.1,298.3,338.3,300.7
975.6,378,23.0,18.3,75,13.69,64,8.1,298.3,338.3,300.7
975.1,382,23.0,18.3,75,13.70,64,8.1,298.3,338.3,300.7
974.7,386,23.0,18.3,75,13.72,64,8.2,298.3,338.3,300.7
974.2,390,22.9,18.3,75,13.71,64,8.2,298.3,338.3,300.7
973.7,394,22.9,18.3,75,13.70,64,8.2,298.3,338.3,300.7
973.3,399,22.8,18.3,75,13.68,64,8.2,298.3,338.2,300.7
972.8,403,22.8,18.3,76,13.69,65,8.2,298.3,338.3,300.7
972.3,407,22.7,18.3,76,13.70,65,8.2,298.3,338.3,300.7
971.8,412,22.7,18.3,76,13.71,65,8.3,298.3,338.3,300.7
971.3,416,22.7,18.2,76,13.70,65,8.3,298.3,338.3,300.7
970.8,421,22.6,18.2,76,13.68,65,8.3,298.3,338.2,300.7
970.3,426,22.6,18.2,76,13.67,66,8.3,298.3,338.2,300.7
969.7,430,22.5,18.2,76,13.67,66,8.3,298.3,338.2,300.7
969.2,435,22.5,18.2,77,13.66,66,8.4,298.3,338.2,300.7
968.7,440,22.4,18.1,77,13.64,66,8.4,298.3,338.1,300.7
968.1,445,22.4,18.1,77,13.63,66,8.4,298.3,338.1,300.7
967.5,450,22.3,18.1,77,13.62,67,8.4,298.3,338.1,300.7
967.0,456,22.3,18.1,77,13.61,67,8.4,298.3,338.0,300.7
966.4,461,22.2,18.0,77,13.57,67,8.4,298.3,337.9,300.7
965.8,466,22.2,17.9,77,13.51,67,8.5,298.3,337.8,300.7
965.1,472,22.1,17.9,77,13.50,67,8.5,298.3,337.8,300.7
964.5,478,22.1,17.9,77,13.54,67,8.5,298.3,337.9,300.7
963.9,483,22.0,18.0,78,13.56,67,8.5,298.3,337.9,300.7
963.3,489,22.0,18.0,78,13.56,67,8.5,298.3,337.9,300.7
962.6,494,21.9,18.0,78,13.57,67,8.4,298.3,337.9,300.7
962.1,500,21.9,18.0,79,13.61,67,8.4,298.3,338.0,300.7
961.5,505,21.8,18.0,79,13.63,67,8.4,298.3,338.1,300.7
961.0,509,21.8,18.0,79,13.61,67,8.4,298.3,338.0,300.7
960.5,514,21.7,17.9,79,13.56,67,8.4,298.3,337.9,300.7
960.0,518,21.7,17.9,79,13.54,66,8.4,298.3,337.8,300.7
959.6,522,21.7,17.9,79,13.59,66,8.4,298.3,338.0,300.7
959.1,527,21.6,18.1,80,13.71,66,8.3,298.3,338.3,300.7
958.6,531,21.5,18.2,81,13.82,66,8.3,298.3,338.6,300.7
958.1,535,21.5,18.2,81,13.83,65,8.3,298.3,338.7,300.7
957.7,539,21.5,18.1,81,13.80,65,8.3,298.3,338.6,300.7
957.2,544,21.4,18.1,81,13.79,65,8.3,298.3,338.5,300.7
956.7,548,21.4,18.1,81,13.76,65,8.3,298.3,338.4,300.7
956.3,552,21.3,18.0,81,13.73,64,8.3,298.3,338.4,300.7
955.8,557,21.3,18.0,82,13.75,64,8.3,298.3,338.4,300.7
955.3,561,21.3,18.0,82,13.75,64,8.3,298.3,338.4,300.7
954.8,565,21.2,17.9,82,13.67,64,8.3,298.3,338.2,300.7
954.3,570,21.2,17.9,81,13.61,64,8.3,298.3,338.0,300.7
953.8,574,21.2,17.9,81,13.62,64,8.3,298.3,338.1,300.7
953.3,579,21.1,17.8,82,13.60,64,8.3,298.3,338.0,300.7
952.9,583,21.1,17.8,82,13.58,64,8.3,298.3,338.0,300.7
952.4,588,21.0,17.8,82,13.57,64,8.3,298.3,337.9,300.7
951.9,592,21.0,17.8,82,13.56,64,8.4,298.3,338.0,300.8
951.4,596,21.0,17.8,82,13.62,64,8.4,298.3,338.1,300.8
951.0,600,21.0,17.9,83,13.73,64,8.4,298.4,338.5,300.8
950.5,605,20.9,18.1,84,13.84,65,8.4,298.3,338.8,300.8
950.0,609,20.8,18.3,85,14.04,65,8.5,298.3,339.3,300.8
949.6,613,20.8,18.4,87,14.20,65,8.5,298.3,339.7,300.8
949.1,618,20.7,18.4,87,14.19,65,8.5,298.3,339.7,300.8
948.6,622,20.6,18.3,87,14.10,66,8.5,298.3,339.4,300.8
948.1,627,20.6,18.3,87,14.09,66,8.6,298.3,339.4,300.8
947.6,631,20.6,18.3,87,14.11,66,8.6,298.3,339.4,300.8
947.1,636,20.5,18.3,87,14.12,67,8.6,298.3,339.5,300.8
946.6,640,20.5,18.3,87,14.09,67,8.6,298.2,339.4,300.8
946.1,645,20.4,18.2,87,14.07,67,8.6,298.3,339.3,300.8
945.6,650,20.4,18.2,87,14.07,67,8.6,298.2,339.3,300.8
945.0,655,20.3,18.2,88,14.05,68,8.6,298.3,339.3,300.8
944.5,660,20.3,18.1,87,14.00,68,8.6,298.3,339.1,300.8
944.0,665,20.3,18.1,87,13.96,68,8.6,298.3,339.0,300.8
943.4,670,20.2,18.1,87,13.95,68,8.6,298.3,339.0,300.8
942.9,675,20.2,18.0,87,13.93,68,8.6,298.3,339.0,300.8
942.3,680,20.1,18.0,88,13.92,69,8.6,298.3,338.9,300.8
941.7,685,20.1,18.0,88,13.93,69,8.6,298.3,339.0,300.8
941.1,691,20.0,18.0,88,13.92,69,8.6,298.3,339.0,300.8
940.5,697,20.0,17.9,88,13.87,69,8.5,298.3,338.8,300.8
939.8,703,19.9,17.8,88,13.79,69,8.5,298.3,338.6,300.8
939.1,709,19.9,17.6,87,13.63,69,8.5,298.3,338.1,300.8
938.4,715,19.9,17.3,85,13.36,69,8.5,298.4,337.4,300.8
937.7,722,19.8,17.1,84,13.22,69,8.5,298.4,337.1,300.8
937.1,728,19.8,17.3,85,13.35,69,8.5,298.4,337.4,300.8
936.4,734,19.7,17.5,87,13.54,69,8.5,298.4,337.9,300.8
935.7,741,19.6,17.5,88,13.58,69,8.5,298.4,338.0,300.8
935.1,746,19.5,17.5,88,13.54,69,8.5,298.4,337.9,300.8
934.5,752,19.5,17.3,87,13.45,69,8.5,298.4,337.7,300.8
933.9,758,19.5,17.3,87,13.40,68,8.6,298.4,337.5,300.8
933.3,763,19.4,17.3,88,13.45,68,8.6,298.4,337.7,300.8
932.7,768,19.4,17.4,89,13.56,68,8.6,298.4,338.0,300.8
932.2,773,19.3,17.5,89,13.58,68,8.6,298.4,338.1,300.8
931.6,778,19.3,17.3,89,13.47,68,8.7,298.4,337.7,300.8
931.1,783,19.2,17.1,88,13.31,68,8.7,298.4,337.3,300.8
930.6,788,19.2,17.0,87,13.25,68,8.8,298.4,337.2,300.8
930.0,793,19.2,17.0,87,13.20,68,8.8,298.5,337.0,300.8
929.5,798,19.2,16.9,87,13.14,67,8.9,298.5,336.9,300.8
929.0,802,19.1,16.8,86,13.06,67,8.9,298.5,336.7,300.8
928.5,807,19.1,16.7,86,12.96,67,9.0,298.5,336.4,300.8
928.0,812,19.1,16.5,85,12.85,67,9.0,298.5,336.1,300.8
927.5,817,19.0,16.5,85,12.85,67,9.1,298.5,336.1,300.8
927.0,822,19.0,16.6,86,12.92,67,9.2,298.5,336.3,300.8
926.4,827,18.9,16.7,87,13.01,67,9.2,298.5,336.6,300.9
925.9,832,18.9,16.9,88,13.19,67,9.3,298.5,337.1,300.9
925.3,837,18.8,17.2,91,13.48,67,9.3,298.5,337.9,300.9
925.0,840,18.7,17.2,91,13.49,67,9.3,298.4,337.9,300.8
924.7,842,18.7,17.2,91,13.50,67,9.4,298.4,337.9,300.8
924.2,848,18.6,17.0,90,13.33,67,9.4,298.4,337.4,300.8
923.6,853,18.6,16.9,90,13.21,67,9.4,298.4,337.0,300.8
923.1,858,18.5,16.9,90,13.20,67,9.5,298.4,337.0,300.8
922.5,863,18.5,16.8,90,13.20,66,9.5,298.5,337.0,300.8
922.0,868,18.5,16.9,91,13.27,66,9.5,298.5,337.3,300.8
921.5,873,18.4,17.1,92,13.46,66,9.6,298.4,337.8,300.8
920.9,878,18.3,17.4,94,13.70,67,9.6,298.4,338.4,300.9
920.4,883,18.2,17.5,95,13.79,67,9.6,298.4,338.6,300.8
919.9,887,18.2,17.2,94,13.56,67,9.6,298.3,337.9,300.8
919.4,892,18.1,16.6,91,13.06,67,9.6,298.4,336.5,300.7
918.9,897,18.2,16.1,88,12.62,67,9.6,298.4,335.3,300.7
918.3,902,18.2,15.7,85,12.33,67,9.6,298.5,334.6,300.7
917.8,907,18.2,15.3,83,11.96,67,9.6,298.6,333.7,300.8
917.2,913,18.3,14.7,80,11.55,67,9.6,298.7,332.6,300.8
916.6,918,18.3,14.5,79,11.42,67,9.6,298.8,332.3,300.9
916.0,924,18.3,14.7,79,11.53,67,9.6,298.8,332.7,300.9
915.4,929,18.3,14.7,80,11.58,67,9.7,298.9,332.9,300.9
914.8,935,18.2,14.7,80,11.54,67,9.7,298.9,332.8,301.0
914.2,940,18.2,14.8,81,11.63,67,9.7,298.9,333.0,301.0
913.7,946,18.1,14.8,81,11.67,67,9.7,298.8,333.1,300.9
913.1,951,18.1,14.7,81,11.57,68,9.7,298.9,332.8,300.9
912.6,956,18.0,14.6,80,11.50,68,9.7,298.9,332.6,300.9
912.0,961,18.0,14.5,80,11.49,68,9.7,298.9,332.6,300.9
911.5,967,17.9,14.5,80,11.44,68,9.7,298.9,332.5,300.9
910.9,972,17.9,14.3,80,11.35,68,9.7,298.9,332.2,301.0
910.3,977,17.9,14.2,79,11.27,68,9.8,299.0,332.1,301.0
909.8,982,17.9,14.1,79,11.22,68,9.8,299.0,331.9,301.0
909.2,988,17.8,14.1,79,11.17,69,9.8,299.0,331.8,301.0
908.6,993,17.8,13.9,78,11.09,69,9.8,299.0,331.6,301.0
908.1,999,17.7,13.7,77,10.93,69,9.8,299.0,331.2,301.0
907.5,1004,17.7,13.4,76,10.72,69,9.9,299.0,330.6,301.0
906.8,1010,17.7,13.0,74,10.42,69,9.9,299.1,329.8,301.0
906.2,1016,17.7,12.6,72,10.15,69,9.9,299.2,329.1,301.0
905.6,1022,17.7,12.3,71,9.97,69,9.9,299.2,328.6,301.0
905.0,1027,17.7,12.2,70,9.90,69,9.9,299.3,328.5,301.0
904.4,1033,17.7,12.2,70,9.89,70,9.9,299.3,328.5,301.1
903.8,1039,17.6,12.1,70,9.84,70,10.0,299.3,328.4,301.1
903.3,1044,17.6,11.9,69,9.76,70,10.0,299.3,328.1,301.1
902.7,1049,17.6,11.8,69,9.68,70,9.9,299.3,327.9,301.1
902.2,1055,17.5,11.7,69,9.61,70,9.9,299.4,327.8,301.1
901.6,1060,17.5,11.5,68,9.50,70,9.9,299.4,327.5,301.1
901.0,1065,17.5,11.2,66,9.29,70,9.9,299.4,326.9,301.1
900.5,1070,17.5,10.8,65,9.06,70,9.9,299.5,326.3,301.1
899.9,1076,17.5,10.6,64,8.96,71,9.9,299.5,326.1,301.1
899.3,1081,17.5,10.6,64,8.97,71,9.8,299.6,326.1,301.2
898.8,1087,17.4,10.7,65,9.02,71,9.8,299.6,326.3,301.2
898.2,1092,17.4,10.8,65,9.08,71,9.7,299.6,326.5,301.2
897.6,1098,17.3,10.9,66,9.17,71,9.7,299.6,326.7,301.2
897.0,1103,17.2,11.1,67,9.27,71,9.6,299.6,327.0,301.2
896.5,1109,17.2,11.1,67,9.29,72,9.5,299.5,327.0,301.2
895.9,1114,17.1,11.1,68,9.30,72,9.5,299.5,327.1,301.2
895.4,1119,17.1,11.2,68,9.34,72,9.4,299.5,327.2,301.2
894.8,1124,17.0,11.2,68,9.36,72,9.3,299.6,327.3,301.2
894.3,1129,17.0,11.1,68,9.32,72,9.2,299.6,327.2,301.3
893.8,1134,17.0,11.0,68,9.29,73,9.1,299.6,327.1,301.3
893.3,1139,17.0,11.1,68,9.31,73,9.0,299.6,327.2,301.3
892.8,1143,16.9,11.1,69,9.36,73,9.0,299.6,327.3,301.3
892.3,1148,16.9,11.1,69,9.37,73,8.9,299.6,327.4,301.3
891.8,1153,16.9,11.0,69,9.31,74,8.8,299.6,327.2,301.3
891.3,1158,16.8,11.0,68,9.27,74,8.7,299.7,327.1,301.3
890.7,1164,16.8,11.0,69,9.28,74,8.6,299.7,327.2,301.4
890.1,1170,16.7,11.0,69,9.30,75,8.5,299.7,327.2,301.4
889.4,1176,16.7,11.0,69,9.30,75,8.4,299.7,327.2,301.4
888.8,1182,16.6,10.9,69,9.26,75,8.4,299.7,327.1,301.4
888.1,1189,16.6,10.9,69,9.25,75,8.3,299.7,327.1,301.4
887.4,1195,16.5,11.1,70,9.38,76,8.2,299.7,327.5,301.4
886.8,1201,16.5,11.5,72,9.65,76,8.2,299.8,328.3,301.5
886.2,1207,16.5,11.9,75,9.93,76,8.1,299.8,329.1,301.6
885.6,1213,16.4,12.0,75,10.00,76,8.1,299.8,329.4,301.6
885.1,1218,16.4,11.8,74,9.87,76,8.0,299.8,329.0,301.6
884.5,1223,16.4,11.6,73,9.73,77,8.0,299.9,328.7,301.7
883.9,1229,16.4,11.8,74,9.88,77,8.0,300.0,329.2,301.8
883.4,1234,16.4,12.5,77,10.33,77,8.0,300.0,330.5,301.9
882.9,1239,16.3,13.3,82,10.90,77,8.0,300.0,332.2,301.9
882.3,1244,16.3,13.7,85,11.23,77,8.1,300.0,333.1,302.0
881.8,1250,16.2,13.8,85,11.29,77,8.1,299.9,333.3,302.0
881.2,1255,16.2,13.7,86,11.27,77,8.2,299.9,333.2,302.0
880.7,1260,16.1,13.7,85,11.23,77,8.2,300.0,333.1,302.0
880.1,1266,16.1,13.6,85,11.19,77,8.3,300.0,333.0,302.0
879.5,1271,16.0,13.5,85,11.15,77,8.4,300.0,332.9,302.0
879.0,1277,16.0,13.5,85,11.10,78,8.5,300.0,332.7,302.0
878.5,1282,15.9,13.4,85,11.04,78,8.5,300.0,332.6,302.0
877.9,1287,15.9,13.2,84,10.93,78,8.6,300.0,332.3,302.0
877.4,1292,15.9,13.0,83,10.81,78,8.7,300.1,332.0,302.0
876.9,1297,15.9,12.8,82,10.66,78,8.8,300.1,331.6,302.1
876.3,1303,15.9,12.7,81,10.57,78,8.9,300.2,331.4,302.1
875.8,1308,15.9,12.6,81,10.53,78,9.0,300.2,331.3,302.1
875.2,1313,15.8,12.5,80,10.45,79,9.1,300.2,331.1,302.1
874.6,1319,15.8,12.3,79,10.31,79,9.2,300.2,330.7,302.1
874.1,1324,15.8,11.9,78,10.07,79,9.3,300.3,330.1,302.1
873.5,1330,15.8,11.1,74,9.55,79,9.4,300.3,328.6,302.0
873.0,1335,15.8,9.7,67,8.68,80,9.5,300.4,326.3,302.0
872.5,1340,15.9,8.5,61,8.01,80,9.5,300.6,324.5,302.0
872.0,1344,16.0,8.3,60,7.92,80,9.6,300.7,324.4,302.2
871.5,1349,16.1,8.3,60,7.90,80,9.6,300.8,324.4,302.2
871.1,1354,16.1,7.8,58,7.62,81,9.7,300.9,323.7,302.2
870.6,1359,16.1,7.0,55,7.21,81,9.7,300.9,322.6,302.3
870.1,1363,16.1,6.5,53,6.99,81,9.7,301.0,322.0,302.3
869.5,1369,16.1,6.7,53,7.07,81,9.8,301.1,322.3,302.3
869.0,1374,16.1,7.1,55,7.31,81,9.8,301.1,323.0,302.4
868.4,1380,16.0,7.4,57,7.47,82,9.8,301.1,323.5,302.4
867.8,1386,16.0,6.9,55,7.23,82,9.8,301.1,322.8,302.4
867.2,1391,16.0,5.8,51,6.66,82,9.8,301.2,321.2,302.4
866.7,1397,16.0,4.6,47,6.14,82,9.8,301.2,319.8,302.4
866.1,1402,16.1,3.5,43,5.67,82,9.8,301.3,318.6,302.4
865.6,1407,16.1,2.5,40,5.30,82,9.8,301.4,317.6,302.4
865.0,1413,16.1,2.1,39,5.14,82,9.8,301.5,317.2,302.5
864.5,1418,16.1,2.0,38,5.10,82,9.8,301.6,317.2,302.5
863.9,1424,16.1,1.9,38,5.09,82,9.8,301.6,317.2,302.5
863.3,1430,16.1,1.8,38,5.07,82,9.8,301.6,317.1,302.6
862.7,1436,16.1,1.8,38,5.06,82,9.8,301.7,317.2,302.6
862.0,1442,16.0,1.9,38,5.08,82,9.8,301.7,317.2,302.6
861.4,1449,16.0,1.9,39,5.09,82,9.8,301.7,317.3,302.7
860.7,1455,15.9,1.9,39,5.11,82,9.8,301.7,317.4,302.7
860.1,1461,15.9,2.0,39,5.15,82,9.9,301.8,317.5,302.7
859.5,1468,15.8,2.2,40,5.22,81,9.9,301.8,317.7,302.7
858.8,1474,15.8,2.3,40,5.28,81,10.0,301.8,317.9,302.7
858.2,1480,15.7,2.4,41,5.31,81,10.0,301.8,318.0,302.8
857.6,1486,15.7,2.5,41,5.34,81,10.1,301.8,318.1,302.8
857.0,1492,15.6,2.6,42,5.40,81,10.1,301.8,318.2,302.8
856.4,1498,15.6,3.0,43,5.55,81,10.2,301.8,318.7,302.8
855.9,1503,15.5,3.8,45,5.86,80,10.2,301.8,319.6,302.8
855.3,1509,15.5,4.7,49,6.27,80,10.3,301.8,320.8,302.9
854.8,1514,15.4,4.9,50,6.38,80,10.3,301.8,321.1,303.0
854.3,1519,15.4,4.5,48,6.19,80,10.4,301.8,320.6,302.9
853.8,1524,15.4,4.2,47,6.05,80,10.4,301.8,320.2,303.0
853.3,1529,15.3,4.2,47,6.07,80,10.5,301.9,320.3,303.0
852.8,1533,15.3,4.2,48,6.08,80,10.5,301.9,320.3,303.0
852.4,1538,15.3,4.1,47,6.02,79,10.6,301.9,320.1,303.0
851.9,1543,15.2,4.0,47,5.99,79,10.6,301.9,320.1,303.0
851.4,1547,15.2,4.0,47,5.98,79,10.6,301.9,320.1,303.0
850.9,1552,15.1,4.0,47,6.01,79,10.7,301.9,320.1,303.0
850.5,1557,15.1,4.1,48,6.04,79,10.7,301.9,320.2,303.0
850.0,1561,15.1,4.1,48,6.06,79,10.7,301.9,320.3,303.0
849.5,1566,15.0,4.2,49,6.11,79,10.7,301.9,320.5,303.0
849.0,1572,15.0,4.5,50,6.22,79,10.8,301.9,320.8,303.0
848.5,1577,14.9,4.9,51,6.39,78,10.8,301.9,321.2,303.1
847.9,1582,14.8,5.3,53,6.60,78,10.8,301.9,321.9,303.1
847.4,1587,14.8,5.6,54,6.72,78,10.8,301.9,322.2,303.1
846.9,1593,14.8,5.6,54,6.74,78,10.8,301.9,322.3,303.1
846.3,1598,14.7,5.5,54,6.73,78,10.8,301.9,322.2,303.1
845.8,1603,14.7,5.6,54,6.74,78,10.9,301.9,322.3,303.1
845.3,1609,14.6,5.6,55,6.76,77,10.9,301.9,322.3,303.1
844.8,1614,14.6,5.7,55,6.80,77,10.9,301.9,322.4,303.1
844.3,1619,14.5,5.7,56,6.84,77,10.9,301.9,322.6,303.1
843.8,1624,14.5,5.8,56,6.88,77,11.0,301.9,322.7,303.2
843.2,1629,14.4,5.9,57,6.93,77,11.0,301.9,322.8,303.2
842.7,1634,14.4,6.0,57,6.98,77,11.1,301.9,323.0,303.2
842.2,1640,14.3,6.1,58,7.02,77,11.1,301.9,323.1,303.2
841.6,1645,14.2,6.2,58,7.08,77,11.2,301.9,323.3,303.2
841.1,1651,14.2,6.4,59,7.17,76,11.2,301.9,323.5,303.2
840.5,1656,14.1,6.5,60,7.23,76,11.3,301.9,323.7,303.2
840.0,1662,14.1,6.6,60,7.27,76,11.4,301.9,323.8,303.2
839.4,1667,14.1,6.7,61,7.33,76,11.4,302.0,324.1,303.3
838.9,1672,14.1,6.8,62,7.42,76,11.5,302.0,324.4,303.4
838.4,1677,14.1,6.9,62,7.46,77,11.6,302.1,324.6,303.4
837.9,1682,14.1,6.7,61,7.37,77,11.7,302.1,324.4,303.5
837.4,1687,14.2,6.2,59,7.10,77,11.7,302.2,323.7,303.5
836.9,1692,14.2,5.4,55,6.75,77,11.8,302.4,322.8,303.6
836.4,1697,14.3,5.0,54,6.56,77,11.8,302.5,322.4,303.7
835.9,1703,14.3,5.0,54,6.56,77,11.9,302.6,322.5,303.8
835.4,1708,14.4,4.9,53,6.51,77,11.9,302.7,322.4,303.8
834.9,1713,14.4,4.4,51,6.28,77,12.0,302.8,321.8,303.9
834.3,1719,14.4,3.6,48,5.97,77,12.0,302.9,321.1,304.0
833.8,1724,14.5,3.1,46,5.76,78,12.0,303.0,320.6,304.0
833.2,1730,14.5,3.1,46,5.74,78,12.0,303.1,320.6,304.1
832.6,1736,14.6,3.5,47,5.90,78,12.0,303.2,321.2,304.3
832.1,1742,14.5,3.9,49,6.10,78,12.0,303.2,321.8,304.3
831.5,1748,14.5,4.4,51,6.33,78,11.9,303.2,322.5,304.3
830.9,1753,14.4,5.0,53,6.62,78,11.9,303.2,323.3,304.4
830.3,1759,14.3,5.5,55,6.83,78,11.8,303.1,323.9,304.4
829.8,1765,14.3,5.6,56,6.87,79,11.8,303.1,324.0,304.4
829.2,1771,14.2,5.4,55,6.78,79,11.7,303.1,323.7,304.4
828.6,1777,14.2,5.1,54,6.65,79,11.6,303.2,323.4,304.4
828.1,1783,14.1,4.9,54,6.55,79,11.6,303.2,323.1,304.4
827.5,1788,14.1,4.7,53,6.50,79,11.5,303.2,323.0,304.4
827.0,1794,14.1,4.7,53,6.49,79,11.4,303.2,323.0,304.4
826.4,1799,14.0,4.7,53,6.48,79,11.3,303.3,323.0,304.5
825.9,1805,14.0,4.6,53,6.44,79,11.2,303.3,322.9,304.5
825.4,1810,14.0,4.4,53,6.38,79,11.1,303.3,322.7,304.5
824.9,1815,14.0,4.3,52,6.30,79,11.1,303.3,322.5,304.5
824.4,1820,13.9,4.2,52,6.28,80,11.0,303.4,322.5,304.5
824.0,1824,13.9,4.2,52,6.27,80,11.0,303.4,322.5,304.5
823.5,1829,13.8,4.1,52,6.25,80,10.9,303.4,322.4,304.5
823.1,1833,13.8,4.1,52,6.23,80,10.9,303.4,322.4,304.5
822.6,1838,13.8,4.0,52,6.19,80,10.9,303.4,322.3,304.5
822.2,1843,13.7,3.9,51,6.15,80,10.9,303.4,322.2,304.5
821.7,1847,13.7,3.8,51,6.14,80,10.9,303.4,322.1,304.5
821.3,1852,13.7,3.8,51,6.13,80,10.9,303.4,322.1,304.5
820.8,1857,13.6,3.8,51,6.12,81,11.0,303.4,322.1,304.5
820.4,1861,13.6,3.7,51,6.11,81,11.0,303.4,322.1,304.5
819.9,1866,13.6,3.7,51,6.10,81,11.1,303.4,322.1,304.6
819.4,1871,13.5,3.7,51,6.09,81,11.2,303.4,322.0,304.6
818.9,1876,13.5,3.6,51,6.05,81,11.3,303.5,322.0,304.6
818.5,1881,13.5,3.4,50,5.96,81,11.4,303.5,321.8,304.6
818.0,1886,13.5,3.2,50,5.89,81,11.6,303.6,321.6,304.7
817.5,1891,13.5,3.1,49,5.87,81,11.7,303.6,321.6,304.7
817.0,1896,13.5,3.2,50,5.92,81,11.8,303.7,321.8,304.8
816.5,1901,13.5,3.6,51,6.06,81,12.0,303.7,322.2,304.8
816.1,1906,13.4,4.1,53,6.29,81,12.1,303.7,322.9,304.8
815.6,1910,13.3,4.6,55,6.54,81,12.2,303.7,323.6,304.9
