PRES,HGHT,TEMP,DWPT,RELH,MIXR,DRCT,SPED,THTA,THTE,THTV
1012.0,31,21.5,19.1,86,13.86,85,4.7,293.6,333.3,296.1
1011.2,38,21.7,19.2,86,13.95,79,3.6,293.9,333.8,296.3
1010.4,44,21.9,19.2,85,13.97,75,3.2,294.1,334.2,296.6
1010.0,48,21.9,19.1,84,13.92,73,3.3,294.2,334.1,296.7
1009.5,52,21.9,19.0,84,13.83,73,3.5,294.2,333.9,296.7
1008.9,57,21.9,19.0,84,13.81,74,3.7,294.3,333.9,296.7
1008.0,65,21.9,19.0,84,13.81,74,4.0,294.3,334.0,296.8
1007.3,71,21.8,18.9,83,13.73,75,4.2,294.3,333.8,296.8
1006.6,77,21.8,18.7,83,13.62,75,4.4,294.4,333.5,296.8
1005.9,83,21.7,18.6,83,13.57,75,4.6,294.4,333.4,296.8
1005.1,90,21.7,18.6,83,13.54,76,4.8,294.4,333.3,296.8
1004.4,96,21.6,18.6,83,13.54,76,5.0,294.4,333.3,296.8
1003.7,103,21.6,18.6,83,13.60,76,5.1,294.4,333.5,296.8
1002.9,109,21.5,18.7,84,13.62,77,5.3,294.4,333.5,296.8
1002.2,115,21.5,18.6,84,13.58,77,5.4,294.4,333.4,296.8
1001.5,121,21.4,18.5,84,13.54,77,5.5,294.4,333.3,296.8
1000.9,127,21.4,18.5,84,13.51,78,5.6,294.4,333.2,296.8
1000.2,132,21.3,18.4,84,13.46,78,5.7,294.4,333.1,296.8
1000.0,134,21.3,18.4,84,13.46,78,5.8,294.4,333.1,296.8
999.6,138,21.3,18.4,84,13.47,78,5.8,294.5,333.2,296.8
998.9,144,21.2,18.5,84,13.55,79,5.8,294.5,333.4,296.9
998.3,149,21.2,18.6,85,13.65,79,5.9,294.5,333.7,296.9
997.7,154,21.1,18.7,86,13.77,80,5.9,294.5,334.0,296.9
997.1,160,21.1,18.8,87,13.86,80,5.9,294.5,334.3,296.9
996.4,165,21.0,18.9,88,13.93,80,6.0,294.5,334.5,296.9
995.8,171,21.0,18.9,88,13.91,81,6.0,294.5,334.4,296.9
995.1,177,20.9,18.8,88,13.81,81,6.0,294.5,334.1,296.9
994.4,183,20.9,18.6,87,13.71,82,6.0,294.5,333.9,296.9
993.8,189,20.8,18.5,86,13.60,82,6.0,294.5,333.6,296.9
993.1,194,20.8,18.4,86,13.53,82,6.0,294.5,333.4,296.9
992.4,200,20.8,18.4,86,13.54,83,6.0,294.6,333.5,296.9
991.8,206,20.7,18.4,87,13.58,83,6.0,294.6,333.6,297.0
991.1,212,20.7,18.4,87,13.60,83,6.0,294.6,333.6,297.0
990.4,218,20.6,18.4,87,13.60,84,6.0,294.6,333.6,297.0
989.8,224,20.6,18.4,87,13.58,84,6.1,294.6,333.6,297.0
989.1,230,20.5,18.4,87,13.56,84,6.1,294.6,333.5,297.0
988.4,236,20.5,18.3,88,13.53,85,6.1,294.6,333.5,297.0
987.7,241,20.4,18.3,88,13.56,85,6.1,294.6,333.6,297.0
987.1,247,20.4,18.4,88,13.60,85,6.2,294.6,333.7,297.0
986.4,253,20.3,18.4,89,13.59,86,6.2,294.6,333.7,297.0
985.8,259,20.3,18.3,88,13.52,86,6.3,294.6,333.5,297.0
985.1,264,20.2,18.2,88,13.43,86,6.3,294.6,333.2,297.0
984.5,270,20.2,18.1,88,13.38,87,6.4,294.7,333.1,297.0
983.8,276,20.2,18.1,88,13.36,87,6.5,294.7,333.1,297.1
983.2,281,20.1,18.1,88,13.39,87,6.5,294.7,333.2,297.1
982.6,287,20.1,18.1,88,13.40,87,6.6,294.7,333.3,297.1
982.0,292,20.1,18.0,88,13.37,88,6.7,294.7,333.2,297.1
981.4,297,20.0,18.0,88,13.33,88,6.8,294.7,333.1,297.1
980.8,303,20.0,17.9,88,13.31,88,6.8,294.8,333.0,297.1
980.2,308,19.9,18.0,88,13.33,88,6.9,294.8,333.1,297.1
979.6,313,19.9,18.0,89,13.33,88,7.0,294.8,333.1,297.1
979.0,318,19.9,17.9,89,13.33,89,7.1,294.8,333.1,297.1
978.4,323,19.8,17.9,89,13.29,89,7.1,294.8,333.0,297.1
977.8,329,19.8,17.8,88,13.22,89,7.2,294.8,332.8,297.1
977.2,334,19.7,17.7,88,13.17,89,7.3,294.8,332.7,297.1
976.7,339,19.7,17.7,88,13.16,89,7.3,294.8,332.7,297.1
976.1,344,19.7,17.7,89,13.18,89,7.4,294.8,332.8,297.2
975.5,349,19.6,17.7,89,13.21,90,7.4,294.9,332.9,297.2
974.9,354,19.6,17.8,89,13.23,90,7.4,294.9,332.9,297.2
974.3,359,19.5,17.7,89,13.23,90,7.5,294.9,332.9,297.2
973.8,365,19.5,17.7,90,13.22,90,7.5,294.8,332.9,297.2
973.2,370,19.4,17.7,90,13.21,90,7.5,294.8,332.8,297.2
972.6,375,19.4,17.7,90,13.19,90,7.6,294.8,332.8,297.2
972.0,380,19.3,17.7,90,13.19,91,7.6,294.8,332.8,297.2
971.4,386,19.3,17.6,90,13.18,91,7.6,294.8,332.8,297.2
970.7,391,19.2,17.6,91,13.16,91,7.6,294.8,332.7,297.2
970.1,397,19.1,17.6,91,13.13,92,7.7,294.8,332.6,297.1
969.5,402,19.1,17.5,91,13.10,92,7.7,294.8,332.5,297.2
968.9,408,19.1,17.5,91,13.08,92,7.7,294.8,332.5,297.2
968.3,413,19.0,17.5,91,13.07,93,7.7,294.9,332.5,297.2
967.7,418,19.0,17.4,91,13.03,93,7.7,294.9,332.4,297.2
967.1,424,18.9,17.4,91,13.01,93,7.8,294.9,332.4,297.2
966.5,429,18.9,17.4,91,13.02,94,7.8,294.9,332.4,297.2
965.9,434,18.8,17.4,91,13.04,94,7.8,294.9,332.4,297.2
965.3,439,18.8,17.4,91,13.03,95,7.9,294.9,332.4,297.2
964.8,445,18.8,17.3,91,13.00,95,7.9,294.9,332.3,297.2
964.2,450,18.7,17.3,91,12.97,95,7.9,294.9,332.3,297.2
963.6,455,18.7,17.3,92,12.97,96,8.0,294.9,332.3,297.2
963.0,460,18.6,17.2,92,12.95,96,8.0,294.9,332.2,297.2
962.4,466,18.6,17.2,92,12.92,96,8.1,294.9,332.1,297.2
961.8,471,18.5,17.1,91,12.86,97,8.1,294.9,332.0,297.2
961.2,476,18.5,17.0,91,12.82,97,8.2,294.9,331.9,297.2
960.6,481,18.4,17.0,91,12.82,97,8.2,295.0,331.9,297.2
960.1,487,18.4,17.0,92,12.83,97,8.2,295.0,331.9,297.2
959.5,492,18.4,17.0,92,12.83,97,8.3,295.0,331.9,297.2
958.9,497,18.3,17.0,92,12.83,97,8.3,295.0,331.9,297.3
958.3,502,18.3,17.0,92,12.84,97,8.4,295.0,332.0,297.3
957.7,507,18.2,17.0,93,12.85,97,8.4,295.0,332.0,297.3
957.2,513,18.2,17.0,93,12.82,97,8.5,295.0,331.9,297.2
956.6,518,18.1,16.9,93,12.78,97,8.5,295.0,331.8,297.2
956.1,523,18.1,16.9,93,12.75,97,8.5,295.0,331.7,297.2
955.5,528,18.0,16.8,92,12.70,97,8.6,295.0,331.6,297.3
955.0,533,18.0,16.7,92,12.65,97,8.6,295.0,331.5,297.3
954.4,537,18.0,16.7,92,12.64,96,8.6,295.0,331.5,297.3
953.9,542,17.9,16.7,93,12.66,96,8.7,295.0,331.5,297.3
953.3,547,17.9,16.7,93,12.65,96,8.7,295.0,331.5,297.3
952.7,552,17.9,16.6,93,12.61,96,8.7,295.1,331.4,297.3
952.2,558,17.8,16.6,92,12.55,96,8.7,295.1,331.2,297.3
951.6,563,17.8,16.5,92,12.52,95,8.7,295.1,331.2,297.3
951.0,568,17.7,16.5,92,12.49,95,8.7,295.1,331.1,297.3
950.4,573,17.7,16.4,92,12.43,95,8.8,295.1,331.0,297.3
949.8,579,17.7,16.3,92,12.37,95,8.8,295.1,330.8,297.3
949.2,584,17.6,16.2,91,12.30,94,8.8,295.2,330.6,297.3
948.6,590,17.6,16.1,91,12.20,94,8.8,295.2,330.4,297.3
948.0,596,17.6,15.9,90,12.07,94,8.8,295.2,330.0,297.3
947.3,601,17.5,15.7,89,11.95,94,8.8,295.2,329.7,297.3
946.7,607,17.5,15.6,88,11.83,94,8.9,295.2,329.4,297.3
946.0,613,17.5,15.4,88,11.73,93,8.9,295.3,329.2,297.4
945.3,619,17.5,15.3,87,11.67,93,8.9,295.4,329.1,297.4
944.7,625,17.5,15.3,87,11.65,93,8.9,295.4,329.1,297.5
944.1,631,17.4,15.3,87,11.66,93,9.0,295.4,329.1,297.5
943.4,637,17.4,15.3,87,11.65,93,9.0,295.4,329.1,297.5
942.8,642,17.4,15.2,87,11.63,93,9.0,295.5,329.1,297.5
942.2,648,17.4,15.2,87,11.60,92,9.1,295.5,329.1,297.6
941.6,653,17.4,15.2,87,11.58,92,9.1,295.5,329.1,297.6
941.0,658,17.3,15.2,87,11.59,92,9.1,295.6,329.1,297.6
940.4,664,17.3,15.2,87,11.61,92,9.2,295.6,329.2,297.6
939.9,669,17.3,15.2,88,11.64,92,9.2,295.6,329.3,297.7
939.3,675,17.2,15.2,88,11.67,91,9.3,295.6,329.4,297.7
938.7,680,17.2,15.2,88,11.68,91,9.3,295.6,329.4,297.7
938.0,686,17.1,15.2,89,11.68,91,9.3,295.6,329.4,297.7
937.4,691,17.1,15.2,89,11.66,91,9.4,295.6,329.4,297.7
936.8,697,17.0,15.1,89,11.62,91,9.4,295.6,329.3,297.7
936.2,703,17.0,15.1,89,11.59,91,9.4,295.6,329.2,297.7
935.6,708,16.9,15.0,89,11.56,91,9.4,295.6,329.1,297.7
935.0,714,16.8,15.0,89,11.52,91,9.4,295.6,329.0,297.7
934.4,719,16.8,14.9,89,11.49,91,9.5,295.6,328.9,297.7
933.9,724,16.8,14.9,89,11.50,90,9.5,295.7,328.9,297.7
933.3,729,16.8,14.9,89,11.52,91,9.5,295.7,329.0,297.7
932.7,734,16.7,14.9,89,11.52,91,9.5,295.7,329.1,297.7
932.1,740,16.7,14.9,89,11.50,91,9.4,295.7,329.0,297.8
931.6,745,16.6,14.8,89,11.46,91,9.4,295.7,328.9,297.8
931.0,750,16.6,14.8,89,11.43,91,9.4,295.7,328.8,297.8
930.4,756,16.6,14.8,89,11.42,91,9.4,295.7,328.8,297.8
929.8,761,16.5,14.7,89,11.41,91,9.4,295.7,328.8,297.8
929.2,767,16.5,14.7,89,11.38,92,9.4,295.8,328.7,297.8
928.5,773,16.4,14.7,89,11.37,92,9.3,295.8,328.7,297.8
927.9,778,16.4,14.7,90,11.39,92,9.3,295.8,328.8,297.8
927.3,784,16.3,14.7,90,11.41,92,9.3,295.8,328.8,297.8
926.7,790,16.3,14.7,90,11.41,93,9.2,295.8,328.8,297.8
926.0,796,16.2,14.6,90,11.39,93,9.2,295.8,328.8,297.8
925.4,801,16.2,14.6,91,11.38,93,9.2,295.8,328.7,297.8
925.0,805,16.1,14.6,91,11.38,93,9.2,295.8,328.7,297.8
924.8,807,16.1,14.6,91,11.38,94,9.1,295.8,328.7,297.8
924.1,813,16.1,14.6,91,11.37,94,9.1,295.8,328.7,297.8
923.5,820,16.0,14.5,91,11.34,95,9.1,295.8,328.7,297.8
922.8,826,16.0,14.5,91,11.32,95,9.1,295.8,328.6,297.8
922.1,832,15.9,14.5,91,11.32,95,9.1,295.8,328.6,297.8
921.5,837,15.9,14.5,91,11.31,96,9.0,295.8,328.6,297.8
920.9,843,15.8,14.4,92,11.29,96,9.0,295.8,328.5,297.8
920.3,849,15.8,14.4,92,11.27,96,9.0,295.8,328.5,297.8
919.7,854,15.7,14.4,92,11.28,96,9.0,295.9,328.5,297.9
919.1,860,15.7,14.4,92,11.29,97,9.0,295.9,328.6,297.9
918.5,865,15.6,14.4,92,11.29,97,9.0,295.9,328.6,297.9
917.9,871,15.6,14.4,92,11.29,97,9.0,295.9,328.6,297.9
917.3,877,15.6,14.4,93,11.30,97,9.0,295.9,328.7,297.9
916.7,882,15.5,14.4,93,11.29,97,9.0,295.9,328.7,297.9
916.1,888,15.5,14.3,93,11.27,97,9.0,295.9,328.6,297.9
915.4,894,15.4,14.3,93,11.27,97,9.0,296.0,328.6,298.0
914.8,899,15.4,14.3,93,11.26,97,9.1,295.9,328.6,297.9
914.2,905,15.3,14.2,93,11.23,97,9.1,296.0,328.5,298.0
913.6,911,15.3,14.2,93,11.22,97,9.1,296.0,328.5,298.0
913.0,916,15.2,14.2,94,11.22,98,9.1,296.0,328.5,298.0
912.4,922,15.2,14.2,94,11.22,98,9.1,296.0,328.5,298.0
911.9,927,15.2,14.1,94,11.19,98,9.1,296.0,328.5,298.0
911.3,932,15.2,14.1,93,11.14,98,9.1,296.1,328.4,298.0
910.7,938,15.1,14.0,93,11.11,98,9.1,296.1,328.3,298.1
910.2,943,15.1,14.0,93,11.09,98,9.1,296.1,328.3,298.1
909.6,948,15.1,14.0,93,11.08,98,9.1,296.1,328.3,298.1
909.0,954,15.0,14.0,93,11.10,98,9.1,296.1,328.4,298.1
908.4,959,15.0,14.0,94,11.11,98,9.1,296.1,328.4,298.1
907.8,964,14.9,14.0,94,11.12,98,9.1,296.2,328.4,298.1
907.3,970,14.9,14.0,94,11.12,98,9.1,296.1,328.4,298.1
906.7,975,14.8,14.0,95,11.13,98,9.2,296.2,328.5,298.1
906.1,981,14.8,14.0,95,11.12,98,9.2,296.2,328.5,298.1
905.5,986,14.7,13.9,95,11.10,99,9.2,296.2,328.4,298.1
905.0,991,14.7,13.8,95,11.06,99,9.2,296.2,328.3,298.1
904.4,996,14.7,13.8,95,11.04,99,9.2,296.2,328.2,298.1
903.9,1002,14.6,13.8,95,11.06,99,9.2,296.2,328.3,298.1
903.3,1007,14.6,13.9,96,11.09,99,9.2,296.2,328.4,298.2
902.7,1012,14.5,13.9,96,11.09,99,9.2,296.2,328.4,298.2
902.2,1018,14.5,13.8,96,11.09,99,9.2,296.2,328.4,298.2
901.6,1023,14.4,13.8,96,11.05,99,9.2,296.2,328.3,298.2
901.0,1029,14.4,13.7,96,11.01,99,9.2,296.2,328.2,298.2
900.4,1034,14.4,13.7,96,10.99,99,9.3,296.2,328.2,298.2
899.9,1039,14.3,13.7,96,10.98,99,9.3,296.3,328.2,298.2
899.3,1045,14.3,13.6,96,10.95,99,9.3,296.3,328.1,298.2
898.7,1050,14.3,13.5,95,10.87,99,9.3,296.3,327.9,298.3
898.2,1055,14.3,13.4,94,10.80,99,9.3,296.4,327.8,298.3
897.6,1060,14.3,13.3,94,10.77,99,9.3,296.4,327.7,298.3
897.1,1066,14.3,13.3,94,10.77,99,9.3,296.5,327.8,298.4
896.5,1071,14.3,13.4,94,10.82,99,9.3,296.5,328.0,298.5
896.0,1076,14.2,13.4,95,10.85,99,9.3,296.6,328.1,298.5
895.5,1081,14.2,13.4,95,10.84,99,9.3,296.6,328.1,298.5
895.0,1086,14.2,13.3,95,10.82,99,9.3,296.6,328.1,298.5
894.4,1090,14.2,13.3,95,10.80,99,9.3,296.6,328.1,298.6
893.9,1095,14.2,13.3,94,10.78,99,9.3,296.7,328.1,298.6
893.4,1100,14.1,13.2,94,10.75,99,9.3,296.7,328.0,298.6
892.9,1105,14.1,13.2,94,10.71,99,9.3,296.7,327.9,298.6
892.4,1110,14.1,13.1,94,10.71,99,9.3,296.8,327.9,298.7
891.9,1115,14.1,13.2,94,10.72,99,9.3,296.8,328.0,298.7
891.4,1120,14.1,13.2,94,10.75,99,9.3,296.8,328.1,298.7
890.8,1125,14.0,13.2,95,10.78,99,9.3,296.8,328.2,298.7
890.3,1130,14.0,13.2,95,10.81,99,9.3,296.8,328.3,298.7
889.7,1135,13.9,13.3,96,10.83,99,9.2,296.8,328.4,298.8
889.2,1140,13.9,13.3,96,10.87,99,9.2,296.9,328.5,298.8
888.6,1146,13.9,13.3,96,10.87,99,9.2,296.9,328.6,298.9
888.1,1151,13.9,13.3,96,10.85,99,9.2,296.9,328.6,298.9
887.6,1156,13.9,13.3,96,10.85,99,9.2,296.9,328.5,298.9
887.1,1160,13.8,13.2,96,10.84,99,9.2,297.0,328.6,298.9
886.6,1165,13.8,13.2,96,10.84,99,9.2,297.0,328.5,298.9
886.0,1170,13.8,13.2,96,10.82,99,9.2,297.0,328.5,298.9
885.5,1176,13.7,13.2,96,10.81,99,9.2,297.0,328.5,298.9
884.9,1181,13.7,13.1,97,10.79,99,9.2,297.0,328.5,298.9
884.4,1186,13.6,13.1,96,10.76,98,9.2,297.0,328.4,298.9
883.8,1192,13.6,13.0,96,10.74,98,9.2,297.0,328.4,299.0
883.2,1198,13.5,13.0,97,10.74,98,9.2,297.0,328.4,299.0
882.6,1203,13.5,13.0,97,10.75,98,9.2,297.0,328.4,299.0
882.0,1209,13.4,13.0,97,10.76,97,9.2,297.0,328.4,299.0
881.4,1214,13.4,13.0,98,10.76,97,9.2,297.1,328.4,299.0
880.8,1220,13.3,13.0,98,10.75,97,9.2,297.1,328.4,299.0
880.2,1226,13.3,13.0,98,10.74,96,9.3,297.1,328.4,299.0
879.6,1232,13.2,13.0,98,10.74,96,9.3,297.1,328.4,299.0
879.0,1237,13.2,12.9,98,10.72,96,9.3,297.1,328.4,299.0
878.4,1243,13.2,12.9,98,10.68,95,9.3,297.1,328.3,299.0
877.8,1249,13.1,12.8,98,10.66,95,9.4,297.1,328.2,299.0
877.2,1255,13.1,12.8,98,10.67,95,9.4,297.1,328.3,299.0
876.7,1260,13.0,12.8,99,10.67,94,9.4,297.1,328.3,299.0
876.1,1266,13.0,12.8,99,10.66,94,9.5,297.1,328.2,299.0
875.5,1271,12.9,12.8,99,10.64,94,9.5,297.2,328.2,299.1
874.9,1277,12.9,12.7,99,10.63,94,9.5,297.2,328.2,299.1
874.4,1282,12.9,12.7,99,10.64,94,9.5,297.2,328.2,299.1
873.8,1288,12.8,12.7,99,10.65,93,9.5,297.2,328.3,299.1
873.2,1294,12.8,12.7,100,10.65,93,9.5,297.2,328.3,299.1
872.6,1299,12.7,12.7,100,10.63,93,9.6,297.2,328.2,299.1
872.0,1305,12.7,12.7,100,10.61,94,9.6,297.2,328.2,299.1
871.4,1311,12.6,12.6,100,10.60,94,9.6,297.3,328.2,299.1
870.8,1317,12.6,12.6,100,10.59,94,9.5,297.3,328.2,299.2
870.2,1322,12.6,12.6,100,10.58,94,9.5,297.3,328.2,299.2
869.6,1328,12.5,12.5,100,10.56,94,9.5,297.3,328.2,299.2
869.0,1334,12.5,12.5,100,10.55,94,9.5,297.4,328.2,299.2
868.4,1340,12.5,12.5,100,10.51,94,9.5,297.4,328.1,299.3
867.9,1345,12.4,12.4,100,10.50,95,9.5,297.4,328.0,299.3
867.3,1351,12.4,12.4,100,10.49,95,9.4,297.4,328.0,299.3
866.7,1357,12.4,12.4,100,10.48,95,9.4,297.4,328.1,299.3
866.1,1363,12.3,12.3,100,10.47,95,9.4,297.5,328.0,299.3
865.5,1368,12.3,12.3,100,10.45,96,9.3,297.5,328.0,299.4
864.9,1374,12.3,12.3,100,10.43,96,9.3,297.5,328.0,299.4
864.3,1380,12.2,12.2,100,10.40,96,9.3,297.5,327.9,299.4
863.7,1386,12.2,12.2,100,10.38,96,9.2,297.6,327.9,299.4
863.1,1391,12.2,12.2,100,10.39,97,9.2,297.6,328.0,299.4
862.6,1396,12.2,12.2,100,10.38,97,9.1,297.6,328.0,299.5
862.0,1402,12.1,12.1,100,10.35,97,9.1,297.6,327.9,299.5
861.5,1407,12.1,12.1,100,10.33,97,9.0,297.6,327.8,299.5
860.9,1413,12.0,12.0,100,10.30,97,9.0,297.6,327.8,299.5
860.3,1419,12.0,12.0,100,10.27,98,8.9,297.6,327.7,299.5
859.7,1425,11.9,11.9,100,10.23,98,8.9,297.6,327.6,299.5
859.1,1431,11.9,11.9,100,10.21,98,8.8,297.6,327.5,299.5
858.5,1437,11.8,11.8,100,10.20,98,8.7,297.7,327.5,299.5
857.8,1443,11.8,11.8,100,10.19,98,8.7,297.7,327.5,299.5
857.1,1450,11.8,11.8,100,10.17,98,8.6,297.7,327.5,299.6
856.5,1456,11.7,11.7,100,10.15,99,8.6,297.8,327.5,299.6
855.8,1463,11.7,11.7,100,10.14,99,8.5,297.8,327.5,299.6
855.1,1469,11.7,11.7,100,10.13,99,8.4,297.8,327.5,299.7
854.5,1476,11.6,11.6,100,10.12,99,8.4,297.9,327.5,299.7
853.9,1482,11.6,11.6,100,10.10,99,8.3,297.9,327.5,299.7
853.2,1488,11.6,11.6,100,10.11,99,8.3,298.0,327.6,299.8
852.6,1494,11.6,11.6,100,10.10,99,8.2,298.0,327.6,299.8
852.0,1500,11.5,11.5,100,10.09,100,8.2,298.0,327.6,299.8
851.4,1506,11.5,11.5,100,10.07,100,8.1,298.0,327.6,299.8
850.8,1512,11.5,11.5,100,10.05,100,8.1,298.1,327.5,299.9
850.2,1517,11.5,11.5,100,10.05,100,8.0,298.1,327.6,299.9
850.0,1520,11.5,11.5,100,10.05,100,8.0,298.1,327.6,299.9
849.7,1523,11.4,11.4,100,10.05,100,8.0,298.1,327.6,299.9
849.1,1529,11.4,11.4,100,10.03,101,7.9,298.2,327.6,300.0
848.5,1534,11.4,11.4,100,10.02,101,7.9,298.2,327.6,300.0
848.0,1539,11.3,11.3,100,9.99,101,7.8,298.2,327.5,300.0
847.5,1545,11.3,11.3,100,9.96,101,7.8,298.2,327.4,300.0
847.0,1550,11.3,11.3,100,9.95,102,7.7,298.2,327.4,300.0
846.5,1555,11.2,11.2,100,9.94,102,7.7,298.2,327.4,300.0
845.9,1560,11.2,11.2,100,9.90,102,7.6,298.2,327.3,300.0
845.5,1565,11.1,11.1,100,9.88,102,7.6,298.2,327.2,300.0
845.0,1570,11.1,11.1,100,9.86,103,7.6,298.2,327.2,300.0
844.5,1575,11.1,11.1,100,9.85,103,7.5,298.3,327.2,300.0
844.0,1579,11.0,11.0,100,9.83,103,7.5,298.3,327.1,300.0
843.5,1584,11.0,11.0,100,9.81,103,7.4,298.3,327.1,300.1
843.0,1589,11.0,10.9,100,9.79,103,7.4,298.3,327.1,300.1
842.5,1594,11.0,10.9,100,9.78,104,7.4,298.4,327.1,300.1
842.0,1599,10.9,10.9,100,9.80,104,7.3,298.4,327.2,300.1
841.5,1604,10.9,10.9,100,9.80,104,7.3,298.4,327.2,300.2
841.0,1609,10.9,10.9,100,9.78,104,7.3,298.4,327.2,300.2
840.5,1614,10.9,10.9,100,9.76,104,7.3,298.5,327.2,300.2
840.0,1619,10.8,10.8,100,9.75,104,7.3,298.5,327.2,300.2
839.5,1624,10.8,10.8,100,9.75,104,7.3,298.5,327.2,300.3
839.0,1629,10.8,10.8,100,9.75,104,7.3,298.6,327.2,300.3
838.5,1634,10.8,10.8,100,9.74,104,7.3,298.6,327.2,300.3
838.1,1638,10.8,10.8,100,9.74,104,7.3,298.6,327.3,300.4
837.6,1643,10.8,10.8,100,9.75,105,7.3,298.7,327.4,300.4
837.1,1647,10.8,10.8,100,9.75,105,7.3,298.7,327.4,300.5
836.7,1652,10.8,10.8,100,9.74,105,7.4,298.7,327.4,300.5
836.2,1657,10.7,10.7,100,9.73,105,7.4,298.8,327.4,300.5
835.7,1662,10.7,10.7,100,9.72,105,7.5,298.8,327.4,300.5
835.2,1667,10.7,10.7,100,9.69,105,7.5,298.8,327.3,300.5
834.6,1672,10.6,10.6,100,9.66,105,7.6,298.8,327.2,300.5
834.1,1678,10.5,10.5,100,9.63,105,7.7,298.8,327.1,300.5
833.5,1683,10.5,10.5,100,9.60,105,7.7,298.8,327.1,300.5
833.0,1689,10.4,10.4,100,9.57,105,7.8,298.8,327.0,300.5
832.4,1695,10.4,10.4,100,9.53,105,7.9,298.8,326.8,300.5
831.9,1700,10.3,10.3,100,9.52,105,7.9,298.8,326.8,300.5
831.3,1706,10.3,10.3,100,9.52,105,8.0,298.8,326.9,300.5
830.8,1711,10.3,10.3,100,9.52,105,8.1,298.9,326.9,300.6
830.3,1716,10.3,10.3,100,9.51,105,8.2,298.9,326.9,300.6
829.7,1722,10.2,10.1,100,9.42,105,8.2,298.8,326.6,300.5
829.2,1727,10.1,10.1,100,9.39,105,8.3,298.8,326.5,300.5
828.7,1732,10.1,10.1,100,9.39,105,8.3,298.9,326.6,300.6
828.2,1737,10.1,10.1,100,9.41,105,8.4,298.9,326.7,300.6
827.7,1742,10.1,10.1,100,9.44,106,8.5,299.0,326.9,300.7
827.1,1748,10.1,10.1,100,9.45,106,8.5,299.1,326.9,300.8
826.6,1753,10.1,10.1,100,9.43,106,8.5,299.1,326.9,300.8
826.0,1759,10.1,10.1,100,9.42,106,8.6,299.1,326.9,300.8
825.5,1764,10.0,10.0,100,9.41,106,8.6,299.1,326.9,300.8
825.0,1770,10.0,10.0,100,9.39,106,8.6,299.1,326.9,300.8
824.5,1775,9.9,9.9,100,9.31,106,8.7,299.1,326.6,300.7
824.0,1780,9.8,9.8,100,9.26,106,8.7,299.0,326.4,300.7
823.5,1784,9.8,9.8,100,9.29,106,8.7,299.1,326.5,300.8
823.0,1789,9.8,9.8,100,9.31,106,8.7,299.2,326.7,300.9
822.5,1794,9.8,9.8,100,9.29,106,8.7,299.2,326.6,300.9
822.0,1800,9.7,9.7,100,9.25,106,8.7,299.2,326.5,300.8
821.4,1805,9.7,9.7,100,9.24,105,8.8,299.2,326.5,300.9
820.8,1811,9.7,9.7,100,9.24,105,8.8,299.3,326.6,300.9
820.2,1817,9.6,9.6,100,9.21,105,8.8,299.2,326.4,300.9
819.6,1824,9.6,9.6,100,9.17,105,8.8,299.2,326.3,300.9
819.0,1830,9.5,9.5,100,9.15,105,8.8,299.3,326.3,300.9
818.4,1836,9.4,9.4,100,9.08,105,8.8,299.2,326.1,300.9
817.9,1842,9.4,9.3,100,9.05,105,8.8,299.2,326.0,300.9
817.3,1847,9.4,9.3,100,9.05,105,8.8,299.3,326.0,300.9
816.8,1853,9.3,9.2,99,8.98,105,8.8,299.3,325.8,300.9
816.2,1858,9.2,9.0,99,8.86,105,8.8,299.2,325.4,300.8
815.7,1864,9.2,8.9,98,8.81,105,8.8,299.2,325.3,300.8
815.2,1869,9.1,8.9,99,8.83,105,8.8,299.3,325.4,300.9
814.6,1874,9.1,9.0,99,8.86,106,8.8,299.3,325.5,300.9
814.1,1880,9.1,9.0,99,8.87,106,8.8,299.3,325.5,300.9
813.6,1885,9.0,8.9,99,8.84,106,8.8,299.3,325.5,300.9
813.1,1890,9.0,8.8,99,8.78,106,8.7,299.3,325.3,300.9
812.6,1895,8.9,8.6,98,8.67,106,8.7,299.3,325.0,300.9
812.1,1900,8.9,8.5,97,8.59,106,8.7,299.3,324.7,300.8
811.7,1905,8.8,8.4,97,8.55,106,8.7,299.3,324.6,300.8
811.3,1909,8.8,8.4,97,8.55,106,8.7,299.3,324.6,300.8
810.9,1913,8.8,8.4,98,8.58,106,8.6,299.3,324.7,300.9
810.5,1917,8.8,8.5,98,8.61,106,8.6,299.3,324.8,300.9
810.1,1921,8.7,8.5,99,8.64,106,8.6,299.4,324.9,300.9
809.7,1925,8.7,8.5,99,8.65,106,8.5,299.4,325.0,300.9
809.3,1929,8.7,8.5,99,8.66,106,8.5,299.4,325.0,301.0
808.9,1933,8.7,8.5,99,8.65,106,8.4,299.4,325.0,301.0
808.4,1938,8.6,8.5,99,8.66,105,8.4,299.4,325.1,301.0
808.0,1942,8.6,8.6,100,8.70,105,8.3,299.4,325.2,301.0
807.5,1947,8.6,8.6,100,8.70,105,8.3,299.5,325.2,301.0
807.1,1952,8.6,8.6,100,8.70,105,8.2,299.5,325.3,301.1
806.6,1956,8.6,8.6,100,8.71,105,8.2,299.6,325.4,301.1
806.1,1961,8.5,8.5,100,8.70,105,8.2,299.6,325.3,301.1
805.7,1966,8.5,8.5,100,8.68,104,8.1,299.6,325.3,301.2
805.2,1971,8.5,8.5,100,8.67,104,8.1,299.6,325.3,301.2
804.7,1976,8.5,8.5,100,8.67,104,8.1,299.6,325.3,301.2
804.2,1981,8.4,8.4,100,8.66,104,8.1,299.7,325.4,301.2
803.7,1987,8.4,8.4,100,8.64,104,8.1,299.7,325.3,301.3
