PRES,HGHT,TEMP,DWPT,RELH,MIXR,DRCT,SPED,THTA,THTE,THTV
1014.1,31,29.6,21.6,62,16.21,93,3.6,301.5,349.5,304.5
1013.6,35,29.0,21.3,63,15.97,94,2.0,301.0,348.2,303.9
1013.0,40,28.3,21.3,66,15.97,95,1.7,300.4,347.4,303.3
1012.1,48,27.5,21.2,69,15.88,95,1.7,299.6,346.2,302.4
1011.2,56,26.7,21.1,71,15.72,95,1.9,298.9,344.9,301.7
1010.3,64,26.3,20.9,72,15.62,95,2.0,298.6,344.2,301.4
1009.7,69,26.2,20.8,72,15.51,95,2.2,298.5,343.9,301.3
1009.1,75,26.1,20.7,72,15.39,95,2.3,298.5,343.5,301.3
1008.3,81,26.0,20.6,72,15.28,95,2.4,298.5,343.1,301.2
1007.6,88,25.9,20.5,72,15.19,94,2.5,298.4,342.8,301.1
1006.9,94,25.8,20.4,72,15.16,94,2.6,298.4,342.6,301.1
1006.2,100,25.7,20.4,72,15.13,94,2.7,298.3,342.5,301.0
1005.5,106,25.6,20.3,73,15.10,93,2.8,298.3,342.4,301.0
1004.8,112,25.5,20.3,73,15.08,92,2.9,298.3,342.3,300.9
1004.2,117,25.4,20.3,73,15.08,92,3.0,298.2,342.2,300.9
1003.6,123,25.3,20.3,74,15.14,91,3.0,298.1,342.3,300.8
1003.0,128,25.1,20.4,75,15.17,90,3.1,298.0,342.2,300.7
1002.5,133,24.9,20.3,75,15.14,89,3.2,297.9,342.0,300.6
1001.9,138,24.9,20.3,76,15.14,88,3.2,297.9,342.0,300.6
1001.3,143,24.9,20.4,76,15.22,87,3.3,297.9,342.2,300.6
1000.7,148,24.9,20.5,77,15.31,86,3.3,298.0,342.6,300.7
1000.0,154,24.9,20.6,77,15.41,83,3.4,298.1,343.0,300.8
999.3,160,24.9,20.5,77,15.39,83,3.4,298.1,342.9,300.8
998.6,167,24.8,20.4,77,15.31,82,3.5,298.0,342.6,300.8
997.9,173,24.6,20.3,77,15.15,81,3.6,297.9,342.1,300.7
997.2,179,24.5,20.1,77,15.05,79,3.6,297.9,341.7,300.6
996.5,186,24.4,20.2,77,15.13,78,3.7,297.9,342.0,300.6
995.8,192,24.4,20.3,78,15.20,77,3.8,297.9,342.2,300.6
995.1,197,24.3,20.3,78,15.20,76,3.8,297.8,342.1,300.6
994.5,203,24.2,20.1,78,15.10,75,3.9,297.8,341.8,300.5
993.9,208,24.1,19.9,77,14.89,74,4.0,297.8,341.2,300.5
993.3,213,24.1,19.7,76,14.67,74,4.1,297.8,340.5,300.4
992.7,218,24.1,19.6,76,14.63,73,4.1,297.8,340.5,300.5
992.2,223,24.0,19.7,77,14.75,72,4.2,297.8,340.8,300.5
991.6,228,24.0,19.8,78,14.86,72,4.3,297.9,341.2,300.5
991.0,233,24.0,19.8,78,14.87,71,4.3,297.9,341.2,300.5
990.4,239,23.9,19.8,78,14.79,71,4.4,297.9,341.0,300.5
989.8,244,23.9,19.7,78,14.77,71,4.5,297.9,340.9,300.5
989.2,250,23.8,19.9,79,14.93,71,4.5,297.9,341.3,300.5
988.5,255,23.7,20.1,80,15.12,70,4.6,297.8,341.9,300.5
987.9,261,23.6,20.1,81,15.17,70,4.6,297.8,342.0,300.5
987.3,267,23.6,20.0,80,15.05,70,4.7,297.8,341.6,300.5
986.7,272,23.5,19.8,80,14.93,70,4.7,297.8,341.3,300.5
986.1,277,23.5,19.8,80,14.91,70,4.7,297.8,341.2,300.5
985.6,282,23.4,19.9,80,14.96,70,4.7,297.8,341.4,300.5
985.0,287,23.4,19.9,81,15.01,71,4.7,297.8,341.5,300.5
984.5,291,23.4,19.9,81,15.03,71,4.7,297.8,341.6,300.5
984.0,296,23.3,19.9,81,15.02,71,4.7,297.8,341.6,300.5
983.6,300,23.3,19.9,81,15.03,71,4.7,297.8,341.6,300.5
983.1,304,23.2,19.9,82,15.08,71,4.6,297.8,341.7,300.5
982.6,309,23.2,20.0,82,15.10,71,4.6,297.8,341.8,300.5
982.1,313,23.1,20.0,82,15.12,71,4.5,297.8,341.9,300.5
981.6,318,23.1,20.0,83,15.17,71,4.5,297.8,342.0,300.5
981.0,322,23.0,20.0,83,15.21,71,4.4,297.8,342.1,300.5
980.5,327,23.0,20.0,83,15.19,71,4.4,297.8,342.0,300.5
979.9,332,22.9,19.9,83,15.11,72,4.3,297.8,341.8,300.5
979.4,337,22.9,19.8,83,15.03,72,4.2,297.8,341.6,300.5
978.8,342,22.9,19.8,83,15.04,72,4.2,297.8,341.6,300.5
978.3,347,22.8,19.8,83,15.04,72,4.1,297.8,341.6,300.5
977.7,352,22.8,19.7,83,14.93,72,4.0,297.8,341.3,300.5
977.2,357,22.7,19.5,82,14.73,72,3.9,297.8,340.8,300.5
976.6,362,22.7,19.3,81,14.57,72,3.9,297.9,340.3,300.5
976.1,366,22.7,19.3,81,14.56,72,3.8,297.9,340.3,300.5
975.6,371,22.6,19.4,82,14.68,73,3.7,297.9,340.7,300.5
975.0,376,22.6,19.6,83,14.84,73,3.6,297.9,341.1,300.5
974.4,381,22.5,19.7,84,14.95,73,3.6,297.9,341.4,300.5
973.9,386,22.5,19.7,84,14.98,73,3.5,297.8,341.5,300.5
973.3,392,22.4,19.7,85,14.99,74,3.4,297.8,341.5,300.5
972.7,397,22.3,19.7,85,14.98,74,3.4,297.8,341.5,300.5
972.1,402,22.3,19.6,85,14.91,74,3.3,297.8,341.2,300.5
971.6,407,22.3,19.5,84,14.81,74,3.3,297.8,341.0,300.5
971.0,412,22.2,19.4,84,14.76,75,3.2,297.9,340.9,300.5
970.5,417,22.2,19.4,84,14.75,75,3.2,297.9,340.8,300.5
970.0,421,22.2,19.3,84,14.72,75,3.1,297.9,340.8,300.5
969.5,426,22.1,19.3,84,14.67,76,3.1,297.9,340.6,300.5
968.9,431,22.1,19.2,83,14.56,76,3.0,297.9,340.4,300.5
968.4,435,22.1,18.9,82,14.31,76,3.0,298.0,339.7,300.5
967.9,440,22.1,18.5,80,13.98,77,3.0,298.0,338.8,300.5
967.4,444,22.2,18.2,78,13.71,77,2.9,298.1,338.1,300.6
966.9,449,22.2,18.0,77,13.54,77,2.9,298.2,337.7,300.6
966.4,454,22.2,17.9,77,13.49,78,2.9,298.2,337.6,300.7
965.8,459,22.2,17.9,77,13.49,78,2.8,298.3,337.7,300.7
965.3,464,22.2,17.8,76,13.40,78,2.8,298.3,337.5,300.7
964.7,469,22.2,17.6,75,13.23,79,2.8,298.3,337.0,300.7
964.2,474,22.2,17.4,74,13.06,79,2.7,298.4,336.6,300.7
963.6,479,22.2,17.2,74,12.95,80,2.7,298.4,336.3,300.8
963.0,484,22.1,17.1,73,12.86,81,2.7,298.5,336.1,300.8
962.4,489,22.1,17.0,73,12.77,81,2.7,298.5,335.9,300.8
961.9,494,22.1,16.9,72,12.66,82,2.6,298.5,335.6,300.8
961.3,500,22.1,16.7,72,12.55,83,2.6,298.5,335.3,300.8
960.8,504,22.0,16.6,71,12.43,84,2.6,298.6,335.0,300.8
960.2,509,22.0,16.5,71,12.39,85,2.6,298.6,334.9,300.8
959.7,514,22.0,16.5,71,12.37,86,2.6,298.6,334.9,300.8
959.2,519,22.0,16.4,71,12.29,87,2.6,298.6,334.7,300.8
958.7,523,21.9,16.2,70,12.14,88,2.5,298.7,334.3,300.8
958.2,527,21.9,16.0,69,12.01,89,2.5,298.7,333.9,300.9
957.7,532,21.9,15.9,68,11.92,90,2.5,298.7,333.7,300.9
957.3,536,21.9,15.8,68,11.86,91,2.5,298.8,333.6,300.9
956.8,541,21.9,15.7,68,11.78,92,2.5,298.8,333.4,300.9
956.3,545,21.9,15.5,67,11.66,93,2.6,298.8,333.1,300.9
955.9,549,21.9,15.3,66,11.48,94,2.6,298.9,332.6,300.9
955.4,553,21.9,15.0,65,11.30,95,2.6,298.9,332.2,301.0
954.9,558,21.9,14.8,64,11.18,96,2.6,299.0,331.9,301.0
954.5,562,22.0,14.7,64,11.10,97,2.6,299.1,331.7,301.0
954.0,566,22.0,14.5,63,10.97,98,2.6,299.1,331.4,301.1
953.5,570,22.0,14.3,62,10.81,99,2.7,299.2,331.0,301.1
953.0,575,22.0,14.1,61,10.65,99,2.7,299.2,330.6,301.1
952.6,579,22.0,13.9,60,10.50,100,2.7,299.3,330.2,301.2
952.1,583,22.0,13.7,59,10.38,101,2.7,299.3,330.0,301.2
951.6,588,22.0,13.5,58,10.28,101,2.8,299.4,329.7,301.2
951.1,592,22.0,13.5,58,10.25,101,2.8,299.4,329.7,301.3
950.7,596,22.0,13.6,59,10.32,101,2.8,299.5,329.9,301.3
950.2,600,22.0,13.8,60,10.46,102,2.9,299.5,330.3,301.4
949.8,605,22.0,14.0,61,10.63,102,2.9,299.5,330.8,301.4
949.3,609,21.9,14.3,62,10.84,102,2.9,299.5,331.4,301.4
948.9,613,21.9,14.4,63,10.96,102,3.0,299.5,331.8,301.5
948.5,617,21.9,14.5,63,10.97,102,3.0,299.5,331.9,301.5
948.0,621,21.9,14.3,62,10.89,102,3.0,299.5,331.6,301.5
947.6,625,21.9,14.1,61,10.72,101,3.1,299.6,331.2,301.5
947.1,629,21.9,13.8,60,10.52,101,3.1,299.6,330.7,301.5
946.6,633,21.9,13.5,59,10.34,101,3.1,299.7,330.2,301.5
946.1,638,21.9,13.2,58,10.14,101,3.2,299.7,329.7,301.6
945.7,642,21.9,13.0,57,10.01,100,3.2,299.8,329.4,301.6
945.2,647,21.9,12.9,57,9.92,100,3.3,299.8,329.1,301.6
944.7,651,21.8,12.7,56,9.84,100,3.3,299.8,328.9,301.6
944.2,655,21.8,12.6,56,9.77,99,3.3,299.8,328.8,301.6
943.8,659,21.8,12.5,56,9.69,99,3.4,299.9,328.6,301.6
943.4,663,21.8,12.4,55,9.63,99,3.4,299.9,328.4,301.6
942.9,667,21.8,12.4,55,9.61,98,3.5,299.9,328.4,301.6
942.5,671,21.7,12.4,55,9.61,98,3.5,299.9,328.4,301.7
942.1,675,21.7,12.4,55,9.66,98,3.5,299.9,328.5,301.7
941.6,679,21.7,12.5,56,9.74,97,3.6,299.9,328.8,301.7
941.2,683,21.6,12.7,57,9.83,97,3.6,299.9,329.0,301.7
940.7,687,21.6,12.8,57,9.90,97,3.6,299.9,329.2,301.7
940.3,692,21.5,12.8,58,9.95,97,3.6,299.9,329.4,301.7
939.8,696,21.5,12.9,58,9.99,97,3.6,299.9,329.5,301.7
939.4,700,21.5,12.9,58,10.03,97,3.7,299.9,329.6,301.7
938.9,704,21.4,13.0,59,10.09,96,3.7,299.9,329.8,301.7
938.5,708,21.4,13.1,59,10.15,96,3.7,299.9,329.9,301.8
938.1,712,21.4,13.2,60,10.18,97,3.7,299.9,330.1,301.8
937.6,716,21.3,13.2,60,10.20,97,3.7,299.9,330.1,301.8
937.2,720,21.3,13.2,60,10.21,97,3.6,299.9,330.1,301.8
936.8,724,21.2,13.2,60,10.22,97,3.6,299.9,330.2,301.8
936.3,728,21.2,13.2,60,10.24,97,3.6,299.9,330.2,301.8
935.9,732,21.2,13.2,60,10.26,97,3.6,299.9,330.3,301.8
935.4,737,21.1,13.3,61,10.28,98,3.5,299.9,330.4,301.8
934.9,741,21.1,13.3,61,10.30,98,3.5,299.9,330.4,301.8
934.4,746,21.0,13.3,61,10.29,98,3.5,299.9,330.4,301.8
933.9,750,21.0,13.2,61,10.26,99,3.4,299.9,330.3,301.8
933.4,755,21.0,13.1,61,10.22,99,3.4,300.0,330.2,301.8
932.9,760,20.9,13.0,61,10.17,100,3.3,300.0,330.1,301.8
932.4,765,20.9,13.0,61,10.15,100,3.3,300.0,330.0,301.8
931.8,770,20.9,13.0,61,10.14,101,3.3,300.0,330.0,301.8
931.3,775,20.8,13.0,61,10.13,101,3.2,300.0,330.0,301.8
930.8,780,20.8,12.9,61,10.11,102,3.2,300.0,329.9,301.8
930.3,784,20.8,12.9,61,10.08,102,3.1,300.0,329.9,301.8
929.8,789,20.7,12.8,60,10.05,103,3.1,300.1,329.8,301.9
929.3,793,20.7,12.8,60,10.01,103,3.1,300.1,329.7,301.9
928.9,798,20.7,12.6,60,9.94,103,3.1,300.1,329.5,301.9
928.4,802,20.7,12.5,59,9.83,103,3.0,300.1,329.2,301.9
927.9,806,20.7,12.3,59,9.74,103,3.0,300.1,329.0,301.9
927.5,811,20.7,12.2,58,9.69,103,3.0,300.2,328.9,301.9
927.0,815,20.6,12.2,58,9.64,103,3.0,300.2,328.8,302.0
926.5,820,20.6,12.1,58,9.62,102,3.0,300.2,328.8,302.0
926.0,824,20.6,12.1,58,9.60,102,3.1,300.3,328.8,302.0
925.5,829,20.6,12.0,58,9.59,101,3.1,300.3,328.8,302.1
925.0,834,20.6,12.0,58,9.57,100,3.1,300.4,328.8,302.1
924.5,838,20.6,11.9,57,9.52,100,3.1,300.4,328.7,302.1
924.0,843,20.6,11.8,57,9.45,99,3.2,300.5,328.6,302.2
923.5,848,20.6,11.7,57,9.41,99,3.2,300.5,328.5,302.2
922.9,853,20.6,11.7,57,9.39,98,3.2,300.6,328.5,302.3
922.4,858,20.6,11.7,57,9.42,97,3.3,300.6,328.6,302.3
921.8,863,20.6,11.8,57,9.47,96,3.3,300.6,328.8,302.3
921.3,868,20.5,11.9,58,9.51,96,3.3,300.6,328.9,302.4
920.7,874,20.5,11.9,58,9.56,95,3.4,300.7,329.1,302.4
920.2,879,20.5,12.0,58,9.63,95,3.4,300.7,329.3,302.4
919.7,884,20.4,12.1,59,9.70,94,3.4,300.7,329.5,302.4
919.2,888,20.4,12.2,59,9.73,94,3.4,300.7,329.6,302.5
918.7,893,20.4,12.2,59,9.73,94,3.4,300.7,329.6,302.5
918.2,897,20.4,12.1,59,9.73,94,3.4,300.7,329.7,302.5
917.7,902,20.3,12.2,59,9.76,93,3.4,300.8,329.8,302.5
917.2,906,20.3,12.2,60,9.81,93,3.4,300.8,329.9,302.6
916.7,911,20.3,12.3,60,9.87,93,3.4,300.8,330.1,302.6
916.2,916,20.2,12.4,61,9.92,94,3.4,300.8,330.2,302.6
915.7,921,20.2,12.4,61,9.93,94,3.3,300.8,330.3,302.6
915.2,926,20.1,12.4,61,9.90,94,3.3,300.8,330.2,302.6
914.6,931,20.1,12.3,61,9.88,95,3.2,300.8,330.1,302.6
914.1,936,20.0,12.3,61,9.88,95,3.2,300.8,330.1,302.6
913.5,942,20.0,12.3,61,9.90,96,3.1,300.8,330.2,302.6
913.0,947,19.9,12.3,62,9.92,97,3.1,300.8,330.3,302.6
912.5,951,19.9,12.4,62,9.94,97,3.0,300.8,330.4,302.6
912.0,956,19.9,12.4,62,9.98,98,2.9,300.8,330.5,302.6
911.5,961,19.8,12.5,63,10.04,99,2.9,300.8,330.6,302.6
911.0,965,19.8,12.6,63,10.12,100,2.8,300.8,330.9,302.7
910.6,970,19.7,12.7,64,10.19,101,2.7,300.8,331.1,302.7
910.1,974,19.7,12.8,64,10.25,102,2.6,300.8,331.2,302.7
909.6,979,19.6,12.8,65,10.27,103,2.6,300.8,331.3,302.7
909.1,983,19.6,12.8,65,10.28,104,2.5,300.8,331.3,302.6
908.6,988,19.5,12.8,65,10.31,105,2.4,300.8,331.4,302.7
908.1,993,19.5,12.9,66,10.37,106,2.4,300.8,331.6,302.7
907.5,998,19.4,13.0,67,10.45,107,2.3,300.8,331.8,302.7
907.0,1004,19.4,13.1,67,10.53,108,2.3,300.8,332.0,302.7
906.4,1009,19.3,13.2,68,10.56,109,2.2,300.8,332.1,302.7
905.9,1014,19.2,13.1,68,10.54,110,2.1,300.8,332.0,302.7
905.4,1019,19.2,13.0,67,10.48,110,2.1,300.8,331.9,302.7
904.8,1024,19.2,13.0,67,10.43,111,2.0,300.8,331.7,302.7
904.3,1029,19.1,12.9,67,10.41,111,2.0,300.8,331.7,302.7
903.8,1034,19.1,12.9,67,10.42,112,1.9,300.8,331.7,302.7
903.2,1039,19.1,12.9,68,10.42,112,1.9,300.8,331.8,302.7
902.7,1044,19.0,12.9,68,10.40,112,1.8,300.8,331.7,302.7
902.2,1050,19.0,12.8,68,10.38,113,1.7,300.8,331.6,302.7
901.6,1055,18.9,12.8,68,10.37,113,1.7,300.9,331.6,302.7
901.1,1060,18.9,12.8,68,10.38,113,1.6,300.9,331.7,302.7
900.6,1065,18.9,12.9,68,10.41,113,1.5,300.9,331.8,302.8
900.0,1070,18.8,12.9,69,10.47,113,1.5,300.9,332.0,302.8
899.5,1075,18.8,13.0,69,10.49,114,1.4,300.9,332.1,302.8
899.0,1080,18.8,12.9,68,10.42,114,1.3,301.0,331.9,302.8
898.4,1085,18.8,12.7,67,10.29,114,1.2,301.0,331.6,302.9
897.9,1090,18.8,12.3,66,10.08,115,1.1,301.1,331.1,302.9
897.3,1096,18.8,12.0,65,9.90,115,1.0,301.2,330.6,303.0
896.8,1101,18.8,11.9,64,9.80,116,0.9,301.2,330.4,303.0
896.2,1106,18.8,11.8,64,9.72,118,0.8,301.2,330.2,303.0
895.7,1111,18.8,11.6,63,9.59,120,0.7,301.3,329.8,303.0
895.2,1116,18.7,11.4,62,9.50,122,0.6,301.3,329.6,303.0
894.7,1121,18.7,11.3,62,9.44,126,0.5,301.3,329.4,303.0
894.2,1126,18.7,11.2,62,9.40,133,0.4,301.3,329.3,303.0
893.7,1130,18.6,11.1,62,9.34,144,0.3,301.3,329.2,303.0
893.2,1135,18.6,11.0,61,9.24,162,0.2,301.3,328.9,303.0
892.7,1140,18.6,10.7,60,9.10,190,0.2,301.4,328.5,303.0
892.3,1144,18.6,10.6,60,9.00,217,0.2,301.4,328.2,303.0
891.8,1149,18.5,10.4,59,8.93,235,0.3,301.4,328.1,303.0
891.3,1154,18.5,10.4,59,8.89,245,0.3,301.4,328.0,303.0
890.7,1159,18.5,10.4,59,8.90,252,0.4,301.4,328.0,303.0
890.2,1164,18.4,10.4,59,8.93,256,0.5,301.4,328.1,303.0
889.7,1169,18.4,10.4,60,8.91,258,0.5,301.4,328.0,303.0
889.2,1174,18.3,10.3,59,8.87,260,0.6,301.4,327.9,303.0
888.7,1179,18.3,10.2,59,8.81,262,0.6,301.4,327.8,303.0
888.1,1184,18.2,10.1,59,8.76,263,0.6,301.4,327.6,303.0
887.6,1189,18.2,10.0,59,8.73,264,0.6,301.4,327.5,303.0
887.1,1194,18.2,9.9,59,8.68,266,0.6,301.4,327.4,303.0
886.6,1199,18.1,9.8,58,8.64,267,0.6,301.4,327.3,303.0
886.0,1204,18.1,9.7,58,8.56,268,0.6,301.4,327.1,303.0
885.5,1209,18.0,9.4,57,8.40,270,0.6,301.5,326.6,303.0
885.0,1214,18.0,9.2,56,8.25,272,0.6,301.5,326.2,303.0
884.6,1219,18.0,9.1,56,8.24,274,0.6,301.5,326.2,303.0
884.1,1223,17.9,9.2,57,8.27,277,0.5,301.5,326.3,303.0
883.7,1227,17.9,9.4,57,8.38,281,0.5,301.5,326.6,303.0
883.2,1232,17.8,9.5,58,8.49,286,0.5,301.5,326.9,303.0
882.8,1236,17.8,9.6,59,8.52,292,0.4,301.5,327.0,303.0
882.3,1240,17.7,9.5,58,8.47,298,0.4,301.5,326.8,303.0
881.9,1245,17.7,9.4,58,8.41,305,0.4,301.5,326.7,303.0
881.4,1249,17.7,9.2,58,8.33,312,0.4,301.5,326.4,303.0
881.0,1254,17.6,9.2,58,8.32,319,0.4,301.5,326.4,303.0
880.5,1258,17.6,9.3,58,8.36,325,0.4,301.5,326.5,303.0
880.0,1263,17.5,9.3,58,8.39,331,0.4,301.5,326.6,303.0
879.6,1267,17.5,9.4,59,8.43,335,0.4,301.5,326.7,303.0
879.1,1272,17.5,9.3,59,8.40,338,0.5,301.5,326.7,303.0
878.6,1277,17.4,9.2,58,8.33,341,0.5,301.5,326.5,303.1
878.1,1282,17.4,9.1,58,8.27,343,0.5,301.5,326.3,303.0
877.6,1287,17.3,9.0,58,8.22,344,0.5,301.5,326.2,303.0
877.0,1292,17.3,8.9,58,8.16,345,0.5,301.5,326.0,303.0
876.5,1297,17.3,8.6,57,8.00,346,0.5,301.6,325.6,303.0
876.0,1302,17.3,8.1,55,7.74,346,0.4,301.6,324.9,303.0
875.5,1307,17.3,7.5,53,7.47,347,0.4,301.7,324.2,303.0
875.0,1312,17.3,7.2,52,7.32,348,0.4,301.7,323.8,303.1
874.5,1317,17.3,7.2,52,7.31,349,0.4,301.8,323.8,303.1
874.0,1321,17.2,7.2,52,7.31,351,0.3,301.8,323.8,303.1
873.5,1326,17.2,7.3,52,7.34,355,0.3,301.8,323.9,303.1
873.0,1331,17.1,7.5,53,7.48,1,0.2,301.8,324.3,303.1
872.5,1336,17.1,7.7,54,7.55,15,0.1,301.7,324.5,303.1
872.0,1341,17.0,7.4,53,7.44,44,0.1,301.7,324.1,303.1
871.5,1346,17.0,7.0,52,7.24,81,0.1,301.8,323.6,303.1
871.0,1351,17.0,6.7,51,7.10,104,0.2,301.8,323.2,303.1
870.5,1356,16.9,6.6,51,7.05,114,0.2,301.8,323.1,303.1
870.0,1360,16.9,6.6,50,7.02,119,0.3,301.8,323.0,303.1
869.6,1365,16.9,6.5,50,7.02,121,0.4,301.9,323.0,303.1
869.1,1369,16.9,6.5,51,7.02,122,0.5,301.9,323.1,303.2
868.6,1374,16.8,6.5,51,7.02,122,0.5,301.9,323.1,303.2
868.2,1378,16.8,6.5,50,6.99,122,0.6,301.9,323.0,303.2
867.8,1382,16.8,6.4,50,6.95,122,0.7,301.9,322.9,303.2
867.4,1386,16.8,6.3,50,6.91,121,0.7,301.9,322.8,303.2
866.9,1391,16.8,6.3,50,6.90,120,0.8,302.0,322.8,303.2
866.5,1395,16.7,6.2,50,6.90,120,0.8,302.0,322.8,303.3
866.1,1399,16.7,6.2,50,6.89,119,0.9,302.0,322.8,303.2
865.7,1403,16.7,6.2,50,6.88,118,0.9,302.0,322.8,303.3
865.2,1407,16.6,6.1,50,6.86,117,0.9,302.0,322.8,303.3
864.8,1411,16.6,6.1,50,6.86,116,0.9,302.0,322.8,303.3
864.4,1416,16.6,6.2,50,6.91,116,0.9,302.1,322.9,303.3
863.9,1421,16.6,6.4,51,7.00,116,0.9,302.1,323.2,303.4
863.4,1425,16.6,6.6,52,7.11,115,0.9,302.1,323.6,303.4
862.9,1430,16.5,6.8,53,7.20,116,0.9,302.1,323.8,303.4
862.4,1435,16.5,6.9,53,7.24,116,0.8,302.1,324.0,303.5
861.9,1440,16.4,6.9,53,7.24,117,0.8,302.2,324.0,303.5
861.4,1445,16.4,6.9,53,7.27,118,0.7,302.2,324.1,303.5
861.0,1449,16.4,7.0,54,7.33,119,0.7,302.2,324.3,303.5
860.5,1454,16.3,7.1,54,7.38,122,0.6,302.2,324.4,303.5
860.0,1459,16.3,7.2,55,7.40,125,0.5,302.2,324.5,303.5
859.5,1464,16.3,7.1,55,7.39,130,0.5,302.2,324.5,303.6
859.0,1469,16.2,7.1,55,7.38,136,0.4,302.2,324.5,303.6
858.5,1474,16.2,7.1,55,7.38,145,0.4,302.2,324.5,303.6
857.9,1480,16.2,7.1,55,7.37,158,0.3,302.3,324.5,303.6
857.4,1485,16.2,7.0,54,7.32,173,0.3,302.3,324.4,303.7
856.8,1491,16.2,6.7,53,7.21,190,0.3,302.4,324.2,303.7
856.3,1496,16.2,6.4,52,7.06,205,0.3,302.5,323.8,303.7
855.7,1501,16.2,6.1,51,6.94,218,0.3,302.5,323.5,303.8
855.2,1506,16.2,6.0,51,6.85,229,0.3,302.6,323.3,303.8
854.8,1511,16.2,5.8,50,6.80,237,0.4,302.6,323.2,303.9
854.3,1515,16.2,5.8,50,6.79,245,0.4,302.7,323.3,303.9
853.9,1520,16.2,5.8,50,6.79,251,0.4,302.7,323.3,303.9
853.4,1524,16.2,5.8,50,6.80,256,0.5,302.7,323.4,304.0
853.0,1529,16.1,5.8,50,6.81,261,0.5,302.7,323.4,304.0
852.5,1533,16.1,5.8,50,6.80,266,0.5,302.8,323.4,304.0
852.1,1537,16.1,5.8,50,6.79,271,0.5,302.8,323.3,304.0
851.7,1542,16.0,5.7,50,6.77,275,0.5,302.8,323.3,304.0
851.2,1546,16.0,5.7,50,6.76,280,0.5,302.8,323.3,304.0
850.8,1551,16.0,5.7,50,6.75,284,0.6,302.8,323.3,304.0
850.3,1555,16.0,5.6,50,6.74,288,0.6,302.8,323.3,304.1
850.0,1558,15.9,5.6,50,6.73,288,0.6,302.8,323.3,304.1
849.9,1559,15.9,5.6,50,6.73,292,0.6,302.8,323.3,304.1
849.5,1564,15.9,5.5,50,6.69,295,0.6,302.8,323.2,304.1
849.0,1568,15.9,5.4,50,6.66,298,0.6,302.9,323.1,304.1
848.6,1572,15.9,5.4,50,6.62,300,0.6,302.9,323.0,304.1
848.2,1577,15.8,5.3,49,6.58,302,0.6,302.9,322.9,304.1
847.7,1581,15.8,5.1,49,6.52,302,0.6,302.9,322.8,304.1
847.3,1585,15.8,5.0,49,6.48,302,0.6,303.0,322.7,304.1
846.9,1589,15.8,5.0,49,6.45,301,0.6,303.0,322.6,304.2
846.5,1593,15.8,5.0,49,6.45,300,0.6,303.0,322.6,304.2
846.1,1597,15.8,4.9,49,6.45,297,0.6,303.0,322.6,304.2
845.7,1601,15.7,4.9,48,6.43,294,0.6,303.0,322.6,304.2
845.3,1605,15.7,4.8,48,6.40,290,0.6,303.1,322.5,304.2
844.9,1609,15.7,4.7,48,6.35,285,0.6,303.1,322.4,304.3
844.5,1614,15.7,4.5,47,6.28,280,0.6,303.1,322.2,304.3
844.1,1618,15.7,4.4,47,6.22,275,0.6,303.1,322.1,304.3
843.6,1623,15.7,4.3,47,6.16,270,0.6,303.2,322.0,304.3
843.1,1627,15.7,4.1,46,6.10,265,0.7,303.2,321.8,304.3
842.6,1632,15.6,3.9,45,6.00,261,0.7,303.3,321.6,304.4
842.1,1637,15.6,3.6,45,5.89,257,0.7,303.3,321.3,304.4
841.6,1642,15.6,3.3,44,5.79,254,0.8,303.4,321.1,304.4
841.1,1648,15.6,3.2,43,5.73,252,0.8,303.4,321.0,304.5
840.6,1653,15.6,3.1,43,5.70,250,0.8,303.4,320.9,304.5
840.1,1658,15.6,3.1,43,5.69,249,0.9,303.5,320.9,304.5
839.6,1663,15.5,3.1,43,5.69,248,0.9,303.5,320.9,304.5
839.1,1668,15.5,3.0,43,5.68,247,0.9,303.5,320.9,304.5
838.6,1673,15.5,3.0,43,5.66,247,0.9,303.5,320.8,304.5
838.1,1678,15.4,2.9,43,5.65,248,0.9,303.5,320.8,304.5
837.7,1683,15.4,2.9,43,5.64,248,0.9,303.5,320.8,304.5
837.2,1687,15.3,2.8,43,5.61,249,0.9,303.5,320.7,304.5
836.7,1692,15.3,2.8,43,5.59,250,0.9,303.5,320.7,304.5
836.2,1697,15.3,2.7,43,5.57,252,0.9,303.5,320.6,304.6
835.8,1702,15.2,2.7,43,5.56,254,0.9,303.5,320.6,304.6
835.3,1706,15.2,2.6,43,5.54,256,0.9,303.6,320.6,304.6
834.9,1711,15.2,2.6,43,5.54,258,0.9,303.6,320.6,304.6
834.4,1715,15.1,2.6,43,5.55,261,0.8,303.6,320.6,304.6
834.0,1720,15.1,2.7,43,5.57,263,0.8,303.6,320.7,304.6
833.5,1725,15.1,2.7,43,5.57,266,0.8,303.6,320.7,304.6
833.0,1729,15.0,2.6,43,5.55,268,0.8,303.6,320.6,304.6
832.6,1734,15.0,2.5,43,5.52,270,0.9,303.6,320.5,304.6
832.1,1739,15.0,2.4,43,5.48,272,0.9,303.6,320.5,304.6
831.6,1744,14.9,2.4,43,5.47,273,0.9,303.6,320.4,304.6
831.1,1749,14.9,2.3,43,5.44,274,0.9,303.7,320.4,304.7
830.6,1754,14.8,2.2,43,5.42,274,1.0,303.7,320.3,304.7
830.1,1759,14.8,2.1,42,5.39,274,1.0,303.7,320.2,304.7
829.6,1764,14.7,2.1,42,5.37,273,1.1,303.7,320.2,304.7
829.1,1769,14.7,2.0,42,5.34,272,1.1,303.7,320.1,304.7
828.6,1774,14.7,1.8,42,5.27,271,1.2,303.7,320.0,304.7
828.2,1779,14.7,1.5,41,5.15,269,1.2,303.8,319.6,304.7
827.7,1784,14.7,1.0,39,4.96,267,1.3,303.9,319.2,304.8
827.2,1788,14.8,0.5,38,4.81,265,1.4,304.0,318.8,304.8
