PRES,HGHT,TEMP,DWPT,RELH,MIXR,DRCT,SPED,THTA,THTE,THTV
1010.7,31,27.0,22.0,74,16.69,75,3.7,299.2,348.2,302.2
1010.0,36,26.9,22.8,78,17.58,68,2.5,299.2,350.7,302.3
1009.6,41,26.8,22.7,78,17.43,65,2.3,299.1,350.2,302.3
1008.9,47,26.7,22.5,78,17.24,65,2.4,299.1,349.6,302.2
1008.3,52,26.6,22.4,78,17.11,65,2.6,299.0,349.2,302.1
1007.7,57,26.5,22.2,77,16.99,66,2.8,299.0,348.7,302.0
1007.0,63,26.4,22.1,77,16.86,66,2.9,299.0,348.3,302.0
1006.4,69,26.3,22.0,77,16.74,66,3.1,298.9,347.9,301.9
1005.7,74,26.1,21.8,77,16.56,67,3.2,298.7,347.1,301.7
1005.1,80,25.9,21.7,78,16.44,67,3.3,298.6,346.6,301.5
1004.4,86,25.9,21.7,78,16.48,67,3.4,298.6,346.8,301.6
1003.8,91,25.8,21.5,78,16.34,67,3.5,298.6,346.3,301.5
1003.1,97,25.6,21.4,78,16.16,68,3.6,298.5,345.6,301.3
1002.5,103,25.5,21.3,78,16.16,68,3.7,298.4,345.6,301.3
1001.8,108,25.4,21.3,78,16.17,68,3.8,298.4,345.6,301.3
1001.2,114,25.3,21.3,79,16.15,68,3.9,298.3,345.5,301.2
1000.6,120,25.2,21.3,79,16.16,69,3.9,298.3,345.5,301.2
1000.0,125,25.2,21.3,79,16.15,69,3.9,298.3,345.4,301.2
999.9,125,25.1,21.3,79,16.15,69,4.0,298.3,345.4,301.2
999.3,130,25.1,21.2,79,16.10,69,4.0,298.3,345.3,301.2
998.8,136,25.1,21.2,79,16.06,69,4.0,298.3,345.2,301.2
998.2,140,25.0,21.1,79,16.00,69,4.0,298.3,345.0,301.2
997.7,145,25.0,21.1,79,15.96,70,4.1,298.3,344.9,301.2
997.2,149,24.9,21.0,79,15.94,70,4.1,298.3,344.8,301.2
996.7,154,24.9,21.1,79,15.96,70,4.1,298.3,344.9,301.2
996.2,158,24.9,21.1,80,16.00,70,4.1,298.3,345.0,301.2
995.7,162,24.8,21.1,80,16.06,70,4.1,298.3,345.2,301.2
995.2,167,24.8,21.2,80,16.10,71,4.1,298.3,345.3,301.2
994.7,171,24.7,21.2,81,16.15,71,4.1,298.3,345.5,301.2
994.2,176,24.7,21.3,81,16.20,71,4.1,298.3,345.6,301.2
993.6,181,24.6,21.3,82,16.24,71,4.1,298.3,345.7,301.2
993.0,186,24.6,21.3,82,16.26,71,4.1,298.3,345.8,301.2
992.4,192,24.5,21.3,82,16.24,71,4.1,298.3,345.7,301.2
991.8,197,24.5,21.2,82,16.20,71,4.1,298.3,345.6,301.2
991.1,203,24.4,21.1,82,16.14,71,4.1,298.3,345.4,301.2
990.5,209,24.4,21.1,82,16.11,71,4.2,298.3,345.3,301.2
989.8,215,24.3,21.1,82,16.09,71,4.2,298.3,345.3,301.2
989.2,220,24.2,21.1,82,16.09,71,4.2,298.3,345.3,301.2
988.5,226,24.2,21.1,83,16.10,71,4.2,298.3,345.3,301.2
987.9,232,24.1,21.1,83,16.11,71,4.2,298.3,345.3,301.2
987.3,237,24.1,21.1,83,16.12,71,4.2,298.3,345.3,301.2
986.7,243,24.0,21.0,83,16.09,71,4.2,298.3,345.3,301.2
986.1,248,24.0,21.0,83,16.08,71,4.3,298.3,345.2,301.2
985.6,252,23.9,21.0,84,16.10,71,4.3,298.3,345.3,301.2
985.1,257,23.9,21.0,84,16.12,71,4.3,298.3,345.4,301.2
984.5,262,23.9,21.0,84,16.12,71,4.3,298.3,345.4,301.2
984.0,266,23.8,21.0,84,16.11,71,4.3,298.4,345.4,301.2
983.5,271,23.8,21.0,84,16.12,71,4.3,298.3,345.4,301.2
983.0,275,23.7,21.0,85,16.14,71,4.3,298.3,345.4,301.2
982.5,280,23.7,21.0,85,16.16,71,4.3,298.3,345.5,301.2
982.0,284,23.6,21.0,85,16.17,71,4.3,298.3,345.5,301.2
981.5,289,23.6,21.0,85,16.16,71,4.2,298.3,345.5,301.2
981.0,293,23.6,21.0,85,16.14,71,4.2,298.3,345.4,301.2
980.5,298,23.5,21.0,86,16.13,71,4.2,298.3,345.4,301.2
980.0,302,23.5,21.0,86,16.14,72,4.2,298.3,345.4,301.2
979.5,307,23.4,21.0,86,16.15,72,4.1,298.3,345.5,301.2
979.0,312,23.4,21.0,86,16.16,72,4.1,298.3,345.5,301.2
978.4,317,23.3,21.0,86,16.16,72,4.1,298.3,345.5,301.2
977.9,321,23.3,20.9,87,16.15,72,4.0,298.3,345.5,301.2
977.3,326,23.2,20.9,87,16.13,73,4.0,298.3,345.4,301.2
976.7,332,23.2,20.9,87,16.11,73,3.9,298.3,345.4,301.2
976.2,337,23.1,20.9,87,16.10,73,3.9,298.3,345.3,301.2
975.6,342,23.1,20.8,87,16.09,73,3.9,298.3,345.3,301.2
975.0,347,23.0,20.8,87,16.08,73,3.8,298.3,345.3,301.2
974.5,352,23.0,20.8,88,16.08,74,3.8,298.3,345.2,301.2
973.9,357,22.9,20.8,88,16.09,74,3.7,298.3,345.3,301.2
973.3,362,22.9,20.8,88,16.12,74,3.7,298.3,345.4,301.2
972.8,367,22.8,20.9,89,16.17,74,3.6,298.3,345.5,301.2
972.2,372,22.8,20.9,89,16.21,74,3.6,298.3,345.6,301.2
971.7,377,22.7,20.9,89,16.25,74,3.6,298.3,345.7,301.2
971.1,382,22.7,20.9,90,16.26,74,3.5,298.3,345.8,301.2
970.6,387,22.6,20.9,90,16.20,74,3.5,298.3,345.6,301.2
970.1,392,22.6,20.8,90,16.15,74,3.4,298.3,345.4,301.2
969.5,396,22.6,20.8,90,16.14,73,3.4,298.3,345.4,301.2
969.0,401,22.5,20.8,90,16.15,73,3.4,298.3,345.5,301.2
968.4,406,22.5,20.8,90,16.18,73,3.3,298.3,345.5,301.2
967.9,411,22.4,20.8,91,16.19,72,3.3,298.3,345.6,301.2
967.3,416,22.4,20.8,91,16.19,72,3.3,298.3,345.6,301.2
966.8,421,22.3,20.8,91,16.18,71,3.2,298.3,345.5,301.2
966.2,426,22.3,20.8,91,16.18,71,3.2,298.3,345.5,301.2
965.7,431,22.2,20.7,91,16.16,70,3.2,298.3,345.5,301.2
965.1,436,22.2,20.7,91,16.15,69,3.2,298.3,345.5,301.2
964.6,441,22.1,20.7,92,16.14,69,3.2,298.3,345.4,301.2
964.0,446,22.1,20.7,92,16.15,68,3.1,298.3,345.5,301.2
963.5,451,22.0,20.7,92,16.18,67,3.1,298.3,345.5,301.2
962.9,456,22.0,20.7,93,16.20,67,3.1,298.3,345.6,301.2
962.4,461,21.9,20.7,93,16.18,66,3.1,298.3,345.5,301.2
961.8,466,21.9,20.7,93,16.15,65,3.1,298.3,345.4,301.2
961.3,471,21.8,20.6,93,16.11,64,3.1,298.3,345.3,301.2
960.8,475,21.8,20.6,93,16.09,64,3.1,298.3,345.2,301.2
960.3,480,21.7,20.6,93,16.09,63,3.1,298.3,345.3,301.2
959.8,485,21.7,20.6,94,16.15,62,3.0,298.3,345.5,301.2
959.3,489,21.7,20.7,94,16.21,61,3.0,298.3,345.6,301.2
958.7,494,21.6,20.7,95,16.26,61,3.0,298.4,345.8,301.3
958.2,499,21.6,20.7,95,16.26,60,3.0,298.3,345.8,301.2
957.7,504,21.5,20.7,95,16.24,59,3.0,298.3,345.7,301.2
957.2,508,21.5,20.6,95,16.18,58,3.0,298.3,345.5,301.2
956.6,513,21.4,20.6,95,16.13,57,3.0,298.3,345.4,301.2
956.1,518,21.4,20.5,95,16.09,56,3.0,298.4,345.3,301.2
955.6,523,21.4,20.5,95,16.07,55,3.0,298.4,345.3,301.2
955.1,527,21.3,20.5,95,16.07,54,3.0,298.4,345.3,301.2
954.5,532,21.3,20.4,95,16.05,53,3.0,298.4,345.2,301.2
954.0,537,21.2,20.4,95,15.98,52,3.0,298.4,345.0,301.2
953.5,541,21.2,20.2,94,15.87,51,3.0,298.4,344.7,301.2
953.0,546,21.2,20.1,93,15.73,50,3.0,298.4,344.3,301.2
952.5,551,21.2,20.0,93,15.60,49,3.0,298.5,344.0,301.2
951.9,556,21.2,19.8,92,15.47,48,3.0,298.5,343.7,301.3
951.4,561,21.2,19.6,91,15.26,47,3.0,298.6,343.1,301.3
950.8,566,21.2,19.3,89,15.00,46,3.0,298.6,342.5,301.3
950.3,571,21.2,19.1,88,14.84,45,3.0,298.7,342.1,301.4
949.7,577,21.2,19.2,88,14.89,44,3.0,298.7,342.3,301.4
949.1,582,21.1,19.2,89,14.92,44,3.0,298.7,342.3,301.4
948.5,587,21.1,19.0,88,14.73,43,3.0,298.7,341.8,301.3
947.9,593,21.1,18.7,86,14.45,42,3.0,298.8,341.0,301.3
947.3,598,21.1,18.2,84,14.06,42,3.0,298.8,340.0,301.4
946.7,604,21.2,17.7,81,13.62,41,3.0,299.0,338.9,301.4
946.1,610,21.2,17.5,79,13.40,41,3.1,299.1,338.3,301.5
945.5,615,21.2,17.5,79,13.42,41,3.1,299.1,338.5,301.5
944.8,621,21.2,17.5,80,13.48,41,3.1,299.1,338.6,301.6
944.2,627,21.1,17.5,80,13.47,41,3.1,299.1,338.6,301.6
943.7,632,21.1,17.5,80,13.41,42,3.1,299.1,338.5,301.5
943.1,637,21.0,17.4,80,13.39,42,3.1,299.1,338.4,301.5
942.6,642,21.0,17.4,80,13.38,43,3.1,299.2,338.4,301.6
942.1,646,21.0,17.4,80,13.38,44,3.1,299.2,338.4,301.6
941.6,651,21.0,17.4,80,13.39,45,3.1,299.2,338.5,301.6
941.1,655,20.9,17.4,80,13.39,46,3.1,299.2,338.5,301.6
940.6,660,20.9,17.4,80,13.43,47,3.1,299.3,338.7,301.7
940.1,665,20.9,17.5,81,13.47,49,3.2,299.3,338.8,301.7
939.6,669,20.9,17.5,81,13.52,50,3.2,299.3,338.9,301.7
939.0,674,20.8,17.5,81,13.54,52,3.2,299.3,339.0,301.7
938.5,680,20.8,17.5,81,13.52,53,3.2,299.3,339.0,301.7
937.9,685,20.8,17.4,81,13.47,54,3.3,299.3,338.9,301.8
937.3,691,20.7,17.4,81,13.46,56,3.3,299.4,338.9,301.8
936.7,696,20.7,17.5,82,13.52,57,3.3,299.4,339.0,301.8
936.1,701,20.6,17.5,82,13.57,59,3.4,299.4,339.2,301.8
935.6,707,20.6,17.5,82,13.58,60,3.4,299.4,339.3,301.8
935.0,712,20.6,17.5,83,13.58,61,3.4,299.4,339.3,301.9
934.5,716,20.5,17.4,82,13.54,62,3.5,299.4,339.2,301.9
934.0,721,20.5,17.4,82,13.51,63,3.5,299.4,339.1,301.9
933.5,726,20.5,17.4,82,13.50,64,3.5,299.5,339.1,301.9
933.0,731,20.5,17.4,82,13.49,65,3.6,299.5,339.1,301.9
932.4,736,20.4,17.3,82,13.47,66,3.6,299.5,339.1,301.9
931.9,740,20.4,17.2,82,13.36,67,3.6,299.6,338.8,302.0
931.4,745,20.5,17.0,80,13.20,68,3.6,299.6,338.5,302.0
930.9,750,20.5,16.8,80,13.08,68,3.6,299.7,338.2,302.1
930.4,755,20.5,16.8,79,13.02,69,3.7,299.8,338.0,302.1
929.8,760,20.5,16.7,79,13.00,70,3.7,299.8,338.0,302.1
929.3,764,20.5,16.7,79,12.99,70,3.7,299.8,338.0,302.2
928.8,769,20.4,16.7,79,12.96,71,3.7,299.8,338.0,302.2
928.3,774,20.4,16.6,79,12.90,72,3.7,299.9,337.8,302.2
927.8,779,20.4,16.5,78,12.80,73,3.7,299.9,337.5,302.2
927.3,784,20.4,16.3,78,12.68,73,3.7,299.9,337.2,302.2
926.8,788,20.4,16.2,77,12.61,74,3.7,299.9,337.1,302.2
926.3,793,20.3,16.2,77,12.57,75,3.7,300.0,337.0,302.2
925.7,798,20.3,16.1,77,12.56,76,3.7,300.0,337.0,302.3
925.2,803,20.3,16.1,77,12.55,77,3.7,300.0,337.0,302.3
925.0,805,20.3,16.1,77,12.54,78,3.7,300.0,337.0,302.3
924.7,808,20.2,16.1,77,12.55,78,3.7,300.0,337.0,302.3
924.2,813,20.2,16.1,77,12.54,79,3.8,300.0,337.0,302.3
923.7,817,20.2,16.0,77,12.50,81,3.8,300.0,336.9,302.3
923.1,822,20.2,16.0,77,12.46,82,3.8,300.1,336.8,302.3
922.6,827,20.2,15.9,76,12.39,83,3.9,300.1,336.7,302.4
922.0,833,20.2,15.8,76,12.35,84,3.9,300.2,336.6,302.4
921.5,838,20.1,15.8,76,12.32,86,4.0,300.2,336.5,302.4
920.9,843,20.1,15.7,76,12.28,87,4.1,300.2,336.5,302.5
920.4,848,20.1,15.6,75,12.23,88,4.2,300.3,336.4,302.5
919.8,853,20.1,15.5,75,12.12,89,4.3,300.3,336.1,302.5
919.3,859,20.1,15.4,74,12.02,90,4.4,300.4,335.9,302.6
918.7,864,20.2,15.3,73,11.95,91,4.5,300.5,335.8,302.6
918.2,869,20.2,15.2,73,11.91,91,4.6,300.5,335.7,302.7
917.6,874,20.2,15.1,73,11.86,92,4.7,300.6,335.7,302.7
917.1,879,20.2,15.1,72,11.81,93,4.8,300.6,335.6,302.8
916.6,884,20.1,15.0,72,11.77,93,5.0,300.7,335.5,302.8
916.0,889,20.1,14.9,72,11.74,94,5.1,300.7,335.5,302.8
915.5,894,20.1,14.9,72,11.71,94,5.2,300.8,335.4,302.9
915.0,899,20.1,14.9,72,11.70,95,5.3,300.8,335.4,302.9
914.5,904,20.1,14.9,72,11.71,95,5.4,300.8,335.4,302.9
914.0,908,20.0,14.9,72,11.71,95,5.5,300.8,335.5,302.9
913.5,913,20.0,14.9,72,11.71,96,5.6,300.8,335.5,303.0
913.0,918,20.0,14.9,72,11.72,96,5.7,300.9,335.5,303.0
912.6,922,20.0,14.8,72,11.71,96,5.8,300.9,335.5,303.0
912.1,926,19.9,14.8,72,11.70,96,5.9,300.9,335.5,303.0
911.6,931,19.9,14.8,72,11.69,96,6.0,300.9,335.5,303.0
911.1,935,19.9,14.8,73,11.72,97,6.0,300.9,335.6,303.0
910.7,940,19.8,14.9,73,11.75,97,6.1,300.9,335.7,303.0
910.2,945,19.8,14.9,73,11.79,97,6.2,300.9,335.8,303.0
909.7,950,19.7,14.9,74,11.80,97,6.2,300.9,335.8,303.0
909.1,955,19.7,14.9,74,11.77,98,6.2,300.9,335.8,303.0
908.6,960,19.6,14.8,74,11.76,98,6.3,300.9,335.7,303.0
908.1,965,19.6,14.9,74,11.78,98,6.3,300.9,335.8,303.0
907.5,970,19.5,14.9,74,11.79,99,6.3,300.9,335.8,303.0
907.0,975,19.5,14.9,75,11.81,99,6.4,300.9,335.9,303.0
906.5,979,19.5,14.9,75,11.81,99,6.4,300.9,335.9,303.1
906.0,984,19.4,14.9,75,11.82,100,6.4,300.9,335.9,303.1
905.5,989,19.4,14.9,75,11.83,100,6.4,300.9,336.0,303.1
905.1,993,19.3,14.9,75,11.83,101,6.4,300.9,336.0,303.1
904.6,998,19.3,14.9,76,11.86,101,6.5,300.9,336.0,303.1
904.1,1002,19.3,14.9,76,11.89,102,6.5,301.0,336.2,303.1
903.7,1006,19.2,15.0,76,11.94,102,6.5,301.0,336.3,303.1
903.2,1011,19.2,15.0,77,11.97,103,6.5,301.0,336.4,303.1
902.7,1015,19.2,15.0,77,11.97,103,6.6,301.0,336.4,303.1
902.3,1020,19.1,15.0,77,11.98,104,6.6,301.0,336.4,303.1
901.7,1025,19.1,15.0,77,11.99,104,6.6,301.0,336.5,303.2
901.2,1030,19.1,15.0,77,12.00,104,6.6,301.0,336.6,303.2
900.6,1035,19.0,15.0,78,12.02,105,6.7,301.1,336.6,303.2
900.0,1041,19.0,15.0,78,12.01,105,6.7,301.1,336.6,303.2
899.4,1047,19.0,14.9,77,11.94,105,6.8,301.1,336.4,303.2
898.8,1053,18.9,14.7,77,11.81,106,6.8,301.1,336.1,303.3
898.2,1059,18.9,14.6,76,11.68,106,6.8,301.2,335.8,303.3
897.5,1065,18.9,14.5,75,11.63,106,6.9,301.2,335.7,303.3
896.9,1071,18.9,14.5,76,11.63,106,6.9,301.3,335.7,303.4
896.3,1077,18.8,14.5,76,11.63,107,7.0,301.3,335.8,303.4
895.7,1083,18.8,14.5,76,11.64,107,7.0,301.3,335.8,303.4
895.1,1088,18.8,14.4,76,11.63,107,7.0,301.3,335.8,303.4
894.6,1093,18.7,14.4,76,11.57,107,7.1,301.3,335.6,303.4
894.0,1099,18.7,14.2,75,11.50,107,7.1,301.3,335.4,303.4
893.5,1104,18.7,14.1,75,11.43,108,7.2,301.4,335.3,303.4
893.0,1109,18.7,14.1,75,11.37,108,7.2,301.4,335.1,303.4
892.4,1114,18.6,14.0,74,11.32,108,7.2,301.4,335.1,303.5
891.9,1119,18.6,13.9,74,11.28,108,7.3,301.5,335.0,303.5
891.4,1124,18.6,13.8,74,11.23,108,7.3,301.5,334.9,303.5
891.0,1128,18.6,13.8,74,11.20,109,7.3,301.5,334.8,303.6
890.5,1133,18.6,13.8,74,11.20,109,7.3,301.6,334.9,303.6
890.0,1138,18.6,13.8,74,11.23,109,7.4,301.6,335.0,303.7
889.4,1143,18.6,13.8,74,11.26,109,7.4,301.7,335.1,303.7
888.9,1148,18.5,13.9,74,11.28,110,7.4,301.7,335.2,303.7
888.3,1154,18.5,13.9,75,11.28,110,7.4,301.6,335.2,303.7
887.8,1159,18.4,13.8,75,11.25,110,7.4,301.6,335.1,303.7
887.2,1165,18.4,13.7,74,11.21,111,7.4,301.6,335.0,303.7
886.7,1170,18.3,13.7,74,11.16,111,7.4,301.6,334.8,303.7
886.2,1175,18.3,13.6,74,11.15,111,7.4,301.6,334.8,303.7
885.6,1180,18.2,13.6,75,11.16,112,7.4,301.7,334.8,303.7
885.1,1185,18.2,13.7,75,11.18,112,7.4,301.7,334.9,303.7
884.6,1189,18.2,13.7,75,11.19,112,7.4,301.7,335.0,303.7
884.1,1194,18.1,13.6,75,11.17,113,7.4,301.7,334.9,303.7
883.6,1199,18.1,13.6,75,11.13,113,7.4,301.7,334.8,303.7
883.1,1204,18.1,13.5,75,11.11,113,7.4,301.7,334.8,303.8
882.6,1209,18.0,13.5,75,11.08,113,7.4,301.8,334.7,303.8
882.1,1214,18.0,13.4,75,11.05,113,7.4,301.8,334.6,303.8
881.6,1219,18.0,13.3,74,10.99,114,7.4,301.8,334.5,303.8
881.1,1224,17.9,13.3,74,10.94,114,7.4,301.8,334.4,303.8
880.6,1229,17.9,13.2,74,10.92,114,7.4,301.8,334.3,303.8
880.1,1234,17.9,13.2,74,10.90,114,7.4,301.8,334.3,303.8
879.6,1239,17.9,13.2,74,10.89,114,7.4,301.9,334.3,303.8
879.1,1244,17.8,13.2,74,10.88,114,7.4,301.9,334.3,303.9
878.5,1249,17.8,13.2,74,10.90,114,7.4,301.9,334.4,303.9
878.0,1254,17.7,13.2,75,10.92,114,7.4,301.9,334.4,303.9
877.4,1260,17.7,13.1,75,10.88,114,7.4,301.9,334.3,303.9
876.8,1266,17.6,13.0,74,10.81,114,7.4,301.9,334.1,303.9
876.2,1271,17.6,12.9,74,10.74,114,7.4,301.9,333.9,303.9
875.7,1277,17.6,12.8,74,10.69,114,7.5,301.9,333.8,303.9
875.1,1282,17.5,12.8,74,10.66,114,7.5,302.0,333.7,303.9
874.6,1288,17.5,12.7,74,10.64,114,7.5,302.0,333.7,303.9
874.0,1293,17.4,12.7,74,10.64,114,7.6,302.0,333.7,303.9
873.5,1298,17.4,12.7,74,10.62,114,7.6,302.0,333.6,303.9
873.0,1303,17.3,12.7,74,10.61,114,7.7,302.0,333.6,303.9
872.5,1308,17.3,12.6,74,10.59,114,7.7,302.0,333.6,303.9
871.9,1314,17.3,12.6,74,10.56,114,7.8,302.0,333.5,303.9
871.4,1319,17.2,12.5,74,10.50,114,7.8,302.0,333.3,303.9
870.9,1324,17.2,12.4,73,10.43,114,7.9,302.0,333.2,303.9
870.4,1329,17.2,12.4,73,10.44,114,8.0,302.1,333.2,304.0
869.8,1334,17.1,12.5,74,10.54,113,8.1,302.1,333.5,304.0
869.3,1339,17.1,12.6,75,10.61,113,8.1,302.0,333.7,304.0
868.8,1345,17.0,12.6,75,10.59,113,8.2,302.0,333.6,304.0
868.3,1349,16.9,12.5,75,10.56,113,8.3,302.0,333.5,304.0
867.8,1354,16.9,12.4,75,10.51,113,8.4,302.0,333.4,304.0
867.4,1359,16.9,12.4,75,10.46,113,8.5,302.1,333.2,304.0
866.9,1363,16.9,12.3,75,10.45,112,8.5,302.1,333.3,304.0
866.5,1367,16.8,12.4,75,10.50,112,8.6,302.1,333.4,304.0
866.1,1371,16.8,12.5,76,10.57,112,8.7,302.1,333.6,304.0
865.7,1374,16.8,12.7,77,10.69,112,8.7,302.1,334.0,304.0
865.3,1378,16.7,12.9,78,10.85,112,8.8,302.1,334.4,304.1
864.9,1383,16.7,13.1,79,11.00,111,8.8,302.1,334.8,304.1
864.5,1387,16.6,13.1,80,11.06,111,8.9,302.1,335.0,304.1
864.0,1392,16.6,13.1,80,11.03,111,8.9,302.1,335.0,304.1
863.5,1396,16.6,12.9,79,10.91,111,9.0,302.1,334.6,304.1
863.0,1401,16.6,12.7,78,10.73,110,9.0,302.2,334.2,304.1
862.5,1406,16.6,12.4,76,10.53,110,9.0,302.2,333.6,304.1
862.0,1412,16.6,12.1,75,10.36,110,9.0,302.3,333.2,304.2
861.5,1417,16.6,11.9,74,10.24,110,9.0,302.3,332.9,304.2
861.0,1422,16.6,11.8,73,10.13,110,9.0,302.4,332.6,304.2
860.4,1427,16.5,11.6,72,9.99,110,9.0,302.4,332.3,304.2
859.9,1432,16.5,11.2,71,9.77,110,8.9,302.5,331.7,304.2
859.4,1437,16.6,10.7,68,9.44,110,8.9,302.5,330.8,304.2
858.9,1442,16.6,10.2,66,9.16,110,8.8,302.6,330.1,304.3
858.4,1447,16.6,10.1,65,9.06,110,8.8,302.7,329.8,304.3
858.0,1451,16.6,10.3,66,9.23,110,8.7,302.7,330.4,304.4
857.5,1456,16.5,10.9,69,9.59,110,8.7,302.7,331.4,304.4
857.1,1460,16.5,11.4,72,9.94,110,8.6,302.7,332.4,304.5
856.6,1465,16.4,11.7,74,10.15,110,8.5,302.7,333.0,304.5
856.2,1469,16.4,11.8,75,10.24,110,8.4,302.6,333.3,304.5
855.7,1474,16.3,11.9,75,10.31,111,8.4,302.6,333.5,304.5
855.3,1478,16.3,12.1,76,10.42,111,8.3,302.6,333.8,304.5
854.8,1483,16.2,12.3,78,10.58,111,8.2,302.6,334.2,304.5
854.3,1488,16.1,12.5,79,10.71,111,8.1,302.6,334.6,304.6
853.8,1493,16.1,12.5,79,10.70,111,8.1,302.6,334.6,304.5
853.3,1498,16.0,12.3,79,10.61,111,8.0,302.6,334.3,304.5
852.8,1503,16.0,12.2,78,10.55,112,7.9,302.6,334.1,304.5
852.3,1508,16.0,12.2,78,10.55,112,7.9,302.6,334.2,304.5
851.7,1513,15.9,12.3,79,10.58,112,7.8,302.7,334.3,304.6
851.2,1519,15.9,12.3,79,10.61,112,7.8,302.7,334.4,304.6
850.7,1524,15.9,12.3,79,10.64,112,7.7,302.7,334.5,304.6
850.2,1529,15.8,12.4,80,10.67,112,7.7,302.7,334.6,304.6
850.0,1531,15.8,12.4,80,10.68,112,7.7,302.7,334.6,304.6
849.6,1534,15.8,12.4,80,10.70,112,7.7,302.7,334.7,304.6
849.1,1540,15.7,12.5,81,10.76,112,7.7,302.7,334.9,304.7
848.6,1545,15.7,12.6,82,10.84,112,7.7,302.7,335.1,304.7
848.1,1550,15.7,12.6,82,10.91,112,7.7,302.7,335.3,304.7
847.6,1555,15.6,12.7,82,10.92,112,7.7,302.7,335.4,304.7
847.1,1560,15.6,12.5,82,10.81,112,7.7,302.8,335.1,304.7
846.6,1566,15.6,12.0,79,10.48,112,7.7,302.8,334.2,304.7
846.0,1571,15.6,11.1,74,9.86,112,7.7,302.9,332.4,304.7
845.4,1577,15.7,10.0,69,9.15,112,7.7,303.0,330.5,304.7
844.9,1583,15.8,9.2,65,8.66,112,7.8,303.2,329.2,304.7
844.3,1588,15.8,8.6,62,8.35,112,7.8,303.3,328.5,304.8
843.7,1594,15.8,8.2,61,8.13,111,7.8,303.3,327.9,304.8
843.2,1600,15.8,8.1,60,8.04,111,7.9,303.4,327.7,304.9
842.6,1605,15.8,8.0,60,8.03,111,7.9,303.4,327.7,304.9
842.1,1611,15.7,7.9,60,7.98,111,8.0,303.4,327.5,304.9
841.5,1616,15.7,7.8,59,7.91,112,8.0,303.4,327.4,304.9
841.0,1622,15.7,7.6,59,7.81,112,8.0,303.5,327.1,304.9
840.5,1627,15.7,7.5,58,7.75,112,8.0,303.5,327.0,305.0
840.0,1632,15.7,7.7,59,7.85,112,8.1,303.6,327.4,305.0
839.5,1637,15.7,8.1,61,8.10,112,8.1,303.6,328.1,305.1
839.0,1641,15.6,8.5,63,8.35,112,8.1,303.6,328.9,305.2
838.6,1646,15.6,8.8,64,8.50,112,8.2,303.6,329.3,305.2
838.1,1651,15.5,8.8,64,8.54,112,8.2,303.6,329.4,305.2
837.7,1655,15.5,8.8,64,8.51,112,8.2,303.6,329.3,305.2
837.2,1660,15.5,8.7,64,8.47,112,8.2,303.7,329.2,305.2
836.8,1664,15.5,8.6,64,8.42,113,8.3,303.7,329.1,305.2
836.3,1669,15.4,8.5,63,8.34,113,8.3,303.7,328.9,305.2
835.9,1674,15.4,8.2,62,8.19,113,8.3,303.7,328.5,305.2
835.4,1678,15.4,7.9,61,8.04,113,8.3,303.7,328.1,305.2
834.9,1683,15.4,7.7,60,7.92,113,8.4,303.8,327.8,305.2
834.5,1688,15.4,7.6,60,7.90,114,8.4,303.8,327.7,305.3
834.0,1692,15.4,7.7,60,7.96,114,8.4,303.9,328.0,305.3
833.6,1697,15.3,7.8,61,8.01,114,8.5,303.9,328.1,305.3
833.1,1702,15.3,7.8,61,7.99,114,8.5,303.9,328.1,305.4
832.6,1706,15.3,7.6,60,7.89,114,8.5,304.0,327.9,305.4
832.2,1711,15.3,7.2,58,7.67,115,8.6,304.0,327.3,305.4
831.8,1715,15.4,6.5,55,7.31,115,8.6,304.1,326.3,305.4
831.3,1720,15.4,5.8,53,6.95,115,8.7,304.2,325.4,305.5
830.9,1724,15.4,5.4,51,6.79,115,8.7,304.3,325.0,305.5
830.4,1729,15.4,5.5,52,6.83,116,8.7,304.3,325.2,305.6
830.0,1733,15.4,5.7,52,6.93,116,8.8,304.3,325.5,305.6
829.5,1738,15.4,5.9,53,7.05,116,8.8,304.4,325.9,305.7
829.0,1743,15.4,6.3,55,7.26,116,8.8,304.4,326.5,305.7
828.5,1749,15.3,6.8,57,7.53,117,8.8,304.4,327.3,305.8
828.0,1754,15.3,7.3,59,7.78,117,8.9,304.4,328.0,305.8
827.5,1759,15.2,7.7,61,7.98,117,8.9,304.4,328.6,305.9
826.9,1765,15.2,8.0,62,8.18,117,8.9,304.4,329.2,305.9
826.4,1770,15.2,8.5,64,8.44,118,8.8,304.5,330.1,306.0
826.0,1775,15.1,8.9,67,8.73,118,8.8,304.4,330.9,306.0
825.5,1779,15.1,9.4,69,8.99,118,8.8,304.4,331.6,306.1
825.1,1784,15.0,9.7,71,9.20,119,8.7,304.4,332.2,306.1
824.6,1788,14.9,10.0,72,9.38,119,8.7,304.4,332.7,306.1
824.2,1793,14.9,10.3,74,9.57,119,8.6,304.4,333.3,306.1
823.8,1797,14.8,10.6,76,9.82,120,8.5,304.4,334.0,306.2
823.4,1801,14.8,11.1,79,10.12,120,8.4,304.3,334.8,306.2
823.0,1805,14.7,11.5,81,10.41,120,8.3,304.3,335.7,306.2
822.6,1809,14.7,11.7,82,10.54,121,8.2,304.3,336.1,306.3
822.2,1813,14.6,11.6,82,10.50,121,8.0,304.3,335.9,306.3
821.8,1818,14.6,11.4,81,10.33,121,7.9,304.4,335.5,306.2
821.3,1822,14.6,11.0,79,10.10,122,7.8,304.4,334.9,306.3
