PRES,HGHT,TEMP,DWPT,RELH,MIXR,DRCT,SPED,THTA,THTE,THTV
1014.5,31,27.6,21.2,68,15.81,41,4.6,299.5,345.9,302.3
1013.8,37,27.4,21.9,72,16.51,22,2.7,299.3,347.8,302.3
1013.2,42,26.3,21.8,76,16.40,15,2.4,298.4,346.2,301.3
1012.9,45,25.9,21.7,78,16.30,13,2.5,297.9,345.4,300.8
1012.2,51,25.7,21.5,78,16.14,15,2.6,297.8,344.8,300.6
1011.4,57,25.5,21.3,77,15.93,18,2.8,297.7,344.1,300.5
1010.8,63,25.4,21.1,77,15.74,20,3.0,297.6,343.5,300.4
1010.2,68,25.4,20.9,76,15.61,22,3.2,297.6,343.1,300.4
1009.6,74,25.4,20.8,76,15.54,24,3.3,297.7,342.9,300.5
1008.9,79,25.4,20.8,76,15.47,25,3.4,297.8,342.8,300.5
1008.3,85,25.4,20.7,75,15.46,27,3.5,297.9,342.9,300.6
1007.6,90,25.6,20.7,75,15.48,29,3.7,298.1,343.2,300.8
1007.0,96,25.7,20.8,74,15.50,31,3.8,298.3,343.5,301.0
1006.4,101,25.7,20.8,74,15.53,32,3.9,298.3,343.7,301.1
1005.8,107,25.5,20.7,75,15.48,34,4.0,298.1,343.3,300.9
1005.2,112,25.2,20.7,76,15.43,36,4.1,297.9,342.8,300.6
1004.6,117,24.9,20.6,77,15.43,38,4.2,297.7,342.6,300.4
1004.1,122,24.8,20.7,78,15.45,39,4.4,297.6,342.6,300.4
1003.5,127,24.8,20.7,78,15.45,41,4.5,297.6,342.6,300.4
1002.9,132,24.7,20.6,78,15.43,42,4.6,297.6,342.5,300.4
1002.3,137,24.7,20.6,78,15.41,44,4.7,297.6,342.5,300.4
1001.8,142,24.7,20.6,78,15.41,45,4.8,297.7,342.6,300.5
1001.2,147,24.8,20.6,77,15.43,46,4.9,297.9,342.8,300.6
1000.7,152,24.9,20.6,77,15.46,47,5.0,298.0,343.0,300.7
1000.1,157,24.8,20.7,78,15.51,48,5.1,298.0,343.2,300.7
1000.0,158,24.8,20.6,78,15.50,49,5.2,298.0,343.1,300.7
999.5,162,24.7,20.6,78,15.49,49,5.2,297.8,343.0,300.6
999.0,167,24.5,20.6,79,15.47,50,5.3,297.7,342.8,300.5
998.4,172,24.4,20.6,79,15.46,50,5.4,297.7,342.7,300.4
997.8,177,24.3,20.6,80,15.45,51,5.5,297.6,342.6,300.4
997.2,182,24.2,20.6,80,15.50,51,5.6,297.6,342.7,300.4
996.6,188,24.2,20.6,81,15.55,51,5.7,297.6,342.9,300.4
995.9,193,24.1,20.7,81,15.57,52,5.8,297.6,342.9,300.4
995.3,199,24.1,20.7,81,15.58,52,5.9,297.6,343.0,300.4
994.6,205,24.0,20.6,81,15.57,52,5.9,297.6,343.0,300.4
993.9,211,24.0,20.6,81,15.56,52,6.0,297.6,342.9,300.4
993.3,217,23.9,20.6,82,15.56,52,6.1,297.6,342.9,300.4
992.6,223,23.8,20.6,82,15.58,52,6.1,297.6,342.9,300.4
991.9,229,23.8,20.6,82,15.56,52,6.2,297.6,342.9,300.4
991.3,235,23.7,20.5,82,15.50,53,6.2,297.6,342.7,300.4
990.6,240,23.7,20.5,82,15.49,53,6.3,297.6,342.7,300.4
990.0,245,23.6,20.5,83,15.56,53,6.3,297.6,342.9,300.4
989.5,250,23.6,20.6,83,15.61,53,6.4,297.6,343.0,300.4
988.9,255,23.5,20.6,83,15.60,53,6.4,297.6,343.0,300.4
988.4,260,23.5,20.5,84,15.58,53,6.4,297.6,342.9,300.4
987.9,265,23.4,20.5,84,15.58,54,6.4,297.6,343.0,300.4
987.3,269,23.4,20.6,84,15.61,54,6.4,297.6,343.1,300.4
986.8,274,23.3,20.6,84,15.63,54,6.4,297.6,343.1,300.4
986.3,279,23.3,20.6,85,15.64,54,6.4,297.6,343.1,300.4
985.7,284,23.3,20.6,85,15.65,55,6.4,297.6,343.2,300.4
985.2,289,23.2,20.6,85,15.65,55,6.4,297.6,343.2,300.4
984.6,294,23.2,20.5,85,15.61,55,6.3,297.6,343.0,300.4
984.0,299,23.1,20.4,85,15.56,56,6.3,297.6,342.9,300.4
983.4,304,23.1,20.4,85,15.54,56,6.3,297.6,342.8,300.4
982.8,309,23.0,20.4,85,15.53,57,6.3,297.6,342.8,300.4
982.2,315,23.0,20.4,86,15.54,57,6.2,297.6,342.8,300.4
981.6,320,22.9,20.4,86,15.56,57,6.2,297.6,342.9,300.4
981.0,325,22.9,20.4,86,15.58,58,6.2,297.6,343.0,300.4
980.4,331,22.8,20.4,86,15.55,58,6.1,297.6,342.9,300.4
979.8,336,22.7,20.3,86,15.52,58,6.1,297.6,342.8,300.4
979.2,342,22.7,20.3,86,15.50,58,6.1,297.6,342.7,300.4
978.6,347,22.6,20.3,87,15.51,58,6.1,297.6,342.7,300.4
978.0,352,22.6,20.3,87,15.51,58,6.1,297.6,342.7,300.4
977.4,358,22.5,20.3,87,15.52,58,6.1,297.6,342.8,300.4
976.9,363,22.5,20.3,87,15.52,58,6.1,297.6,342.8,300.4
976.3,367,22.4,20.3,88,15.52,58,6.1,297.6,342.8,300.4
975.8,372,22.4,20.3,88,15.53,58,6.1,297.6,342.8,300.4
975.3,377,22.4,20.3,88,15.58,58,6.1,297.6,343.0,300.4
974.7,382,22.3,20.3,89,15.61,57,6.1,297.6,343.1,300.4
974.2,387,22.3,20.4,89,15.63,57,6.1,297.6,343.1,300.4
973.6,391,22.2,20.3,89,15.63,57,6.1,297.6,343.1,300.4
973.1,396,22.2,20.3,89,15.60,57,6.1,297.6,343.0,300.4
972.5,401,22.1,20.3,89,15.59,57,6.1,297.6,343.0,300.4
972.0,407,22.1,20.3,89,15.59,56,6.1,297.6,343.0,300.4
971.4,412,22.0,20.3,90,15.58,56,6.1,297.6,343.0,300.4
970.8,417,22.0,20.2,90,15.57,56,6.1,297.6,342.9,300.4
970.3,422,21.9,20.2,90,15.56,56,6.1,297.6,342.9,300.4
969.7,427,21.9,20.2,90,15.55,56,6.2,297.6,342.9,300.4
969.1,432,21.8,20.2,90,15.54,56,6.2,297.6,342.8,300.4
968.5,438,21.8,20.2,91,15.55,56,6.2,297.6,342.9,300.4
967.9,443,21.7,20.2,91,15.57,56,6.2,297.6,342.9,300.4
967.4,448,21.7,20.1,91,15.53,56,6.2,297.6,342.8,300.4
966.8,453,21.6,20.1,91,15.47,56,6.2,297.6,342.6,300.4
966.3,458,21.6,20.0,91,15.44,57,6.2,297.6,342.6,300.4
965.7,463,21.5,20.0,91,15.46,57,6.2,297.6,342.6,300.4
965.2,467,21.5,20.1,92,15.51,57,6.2,297.6,342.8,300.4
964.7,472,21.4,20.1,92,15.55,58,6.2,297.6,342.9,300.4
964.2,476,21.4,20.1,92,15.55,58,6.3,297.6,342.9,300.4
963.7,481,21.4,20.1,92,15.52,58,6.3,297.6,342.8,300.4
963.2,485,21.3,20.0,92,15.49,59,6.3,297.6,342.7,300.4
962.7,490,21.3,20.0,92,15.47,59,6.3,297.6,342.6,300.4
962.2,494,21.2,20.0,93,15.46,59,6.3,297.6,342.6,300.4
961.8,499,21.2,20.0,93,15.46,59,6.3,297.6,342.6,300.4
961.3,503,21.2,20.0,93,15.48,60,6.3,297.6,342.7,300.4
960.8,507,21.1,20.0,93,15.50,60,6.4,297.6,342.7,300.4
960.3,511,21.1,20.0,93,15.49,60,6.4,297.6,342.7,300.4
959.9,516,21.0,20.0,94,15.49,60,6.4,297.6,342.7,300.4
959.4,520,21.0,20.0,94,15.49,60,6.4,297.6,342.7,300.4
958.9,525,20.9,19.9,94,15.48,60,6.4,297.6,342.7,300.4
958.3,529,20.9,19.9,94,15.46,60,6.4,297.6,342.6,300.4
957.8,534,20.8,19.9,94,15.46,60,6.4,297.6,342.6,300.4
957.3,539,20.8,19.9,95,15.45,60,6.4,297.6,342.6,300.4
956.7,544,20.7,19.9,95,15.45,60,6.4,297.6,342.6,300.4
956.1,550,20.7,19.9,95,15.45,60,6.4,297.6,342.6,300.4
955.5,555,20.6,19.9,95,15.47,60,6.4,297.6,342.7,300.4
954.9,561,20.6,19.9,96,15.48,60,6.4,297.6,342.7,300.4
954.3,566,20.5,19.9,96,15.47,59,6.4,297.6,342.6,300.4
953.6,572,20.5,19.8,96,15.46,59,6.4,297.6,342.6,300.4
953.0,578,20.4,19.8,96,15.43,59,6.4,297.6,342.5,300.4
952.4,583,20.4,19.8,96,15.42,59,6.4,297.6,342.5,300.4
951.8,589,20.3,19.8,97,15.43,58,6.4,297.6,342.5,300.4
951.2,594,20.3,19.8,97,15.45,58,6.3,297.6,342.6,300.4
950.6,600,20.2,19.8,97,15.47,58,6.3,297.6,342.6,300.4
950.0,605,20.2,19.8,98,15.47,58,6.3,297.6,342.6,300.4
949.4,611,20.1,19.8,98,15.47,57,6.3,297.6,342.6,300.4
948.8,616,20.1,19.8,98,15.49,57,6.2,297.6,342.7,300.4
948.2,621,20.0,19.8,99,15.50,57,6.2,297.6,342.7,300.4
947.6,627,20.0,19.8,99,15.49,57,6.2,297.6,342.7,300.4
947.1,632,19.9,19.7,99,15.48,57,6.2,297.6,342.7,300.4
946.5,637,19.9,19.7,99,15.46,57,6.1,297.6,342.6,300.4
945.9,643,19.8,19.7,99,15.46,57,6.1,297.7,342.6,300.4
945.3,648,19.8,19.7,100,15.48,56,6.1,297.7,342.7,300.4
944.8,653,19.7,19.7,100,15.50,56,6.1,297.7,342.8,300.4
944.2,659,19.7,19.7,100,15.50,56,6.0,297.7,342.8,300.5
943.6,664,19.7,19.7,100,15.49,56,6.0,297.7,342.8,300.5
943.0,669,19.7,19.7,100,15.48,56,6.0,297.8,342.8,300.5
942.4,675,19.6,19.6,100,15.46,56,6.0,297.8,342.8,300.6
941.8,680,19.6,19.6,100,15.43,56,6.0,297.8,342.7,300.6
941.3,685,19.6,19.6,100,15.40,56,6.0,297.8,342.7,300.6
940.7,691,19.5,19.5,100,15.38,56,6.0,297.8,342.6,300.6
940.1,696,19.5,19.5,100,15.36,56,6.0,297.9,342.6,300.6
939.5,702,19.5,19.5,100,15.34,56,6.0,297.9,342.5,300.6
938.9,707,19.5,19.5,100,15.33,56,6.0,297.9,342.6,300.7
938.3,713,19.4,19.4,100,15.32,55,6.0,298.0,342.6,300.7
937.7,718,19.4,19.4,100,15.31,55,6.0,298.0,342.6,300.7
937.1,724,19.4,19.4,100,15.30,55,6.0,298.0,342.6,300.8
936.5,730,19.4,19.4,100,15.29,55,6.0,298.1,342.6,300.8
935.9,735,19.4,19.3,100,15.25,55,6.0,298.1,342.5,300.8
935.3,740,19.3,19.3,99,15.19,55,6.0,298.1,342.4,300.8
934.8,745,19.3,19.2,99,15.17,55,6.0,298.2,342.4,300.9
934.2,750,19.3,19.2,100,15.19,54,6.0,298.2,342.5,300.9
933.7,755,19.3,19.3,100,15.23,54,6.0,298.2,342.6,300.9
933.1,761,19.3,19.3,100,15.24,54,6.0,298.3,342.7,301.0
932.5,766,19.2,19.2,100,15.23,54,6.0,298.3,342.7,301.0
931.9,772,19.2,19.2,100,15.22,54,6.0,298.3,342.7,301.0
931.3,778,19.2,19.2,100,15.21,54,6.0,298.4,342.7,301.1
930.6,783,19.2,19.2,100,15.21,54,6.0,298.4,342.8,301.1
930.0,789,19.2,19.2,100,15.19,54,6.0,298.4,342.7,301.1
929.3,796,19.1,19.1,100,15.18,54,6.0,298.5,342.8,301.2
928.7,802,19.1,19.1,100,15.17,54,6.0,298.5,342.8,301.2
928.0,808,19.1,19.1,100,15.17,54,5.9,298.6,342.9,301.3
927.3,814,19.1,19.1,100,15.17,54,5.9,298.6,342.9,301.3
926.7,820,19.1,19.1,100,15.15,53,5.9,298.7,342.9,301.4
926.0,826,19.1,19.0,100,15.13,53,5.9,298.7,342.9,301.4
925.4,832,19.0,19.0,100,15.11,53,5.8,298.7,342.9,301.4
925.0,836,19.0,19.0,100,15.12,53,5.8,298.8,342.9,301.5
924.7,838,19.0,19.0,100,15.12,53,5.8,298.8,343.0,301.5
924.1,844,19.0,19.0,100,15.13,53,5.7,298.8,343.0,301.5
923.5,850,19.0,19.0,100,15.12,53,5.7,298.8,343.1,301.5
922.9,856,19.0,19.0,100,15.11,53,5.6,298.9,343.1,301.6
922.2,862,18.9,18.9,100,15.10,53,5.6,298.9,343.1,301.6
921.6,868,18.9,18.9,100,15.09,53,5.5,298.9,343.1,301.6
920.9,874,18.9,18.9,100,15.07,53,5.4,299.0,343.1,301.7
920.3,880,18.8,18.8,100,15.04,53,5.4,299.0,343.0,301.7
919.6,886,18.8,18.8,100,15.02,52,5.3,299.0,343.0,301.7
919.0,892,18.8,18.8,100,14.99,52,5.2,299.1,342.9,301.7
918.3,898,18.8,18.7,100,14.97,52,5.2,299.1,342.9,301.8
917.6,905,18.7,18.7,100,14.94,51,5.1,299.1,342.8,301.8
916.9,911,18.6,18.6,100,14.90,51,5.0,299.1,342.7,301.8
916.3,918,18.6,18.6,100,14.89,51,4.9,299.1,342.7,301.8
915.5,924,18.6,18.6,100,14.90,50,4.8,299.2,342.8,301.9
914.8,931,18.6,18.6,100,14.92,49,4.7,299.3,343.0,302.0
914.1,938,18.6,18.6,100,14.91,49,4.6,299.3,343.0,302.0
913.4,945,18.6,18.6,100,14.90,48,4.5,299.4,343.0,302.0
912.7,952,18.5,18.5,100,14.88,47,4.4,299.4,343.0,302.1
911.9,958,18.5,18.5,100,14.86,47,4.3,299.4,343.0,302.1
911.2,965,18.5,18.5,100,14.86,46,4.2,299.5,343.0,302.1
910.6,971,18.5,18.5,100,14.85,45,4.1,299.5,343.1,302.2
909.9,978,18.4,18.4,100,14.83,44,4.0,299.6,343.1,302.2
909.2,984,18.4,18.4,100,14.82,43,3.9,299.6,343.1,302.3
908.6,990,18.4,18.4,100,14.80,42,3.9,299.7,343.1,302.3
907.9,996,18.4,18.3,100,14.78,40,3.8,299.7,343.1,302.3
907.3,1002,18.3,18.3,100,14.74,39,3.7,299.7,343.0,302.3
906.6,1009,18.2,18.2,100,14.65,38,3.6,299.6,342.6,302.3
906.0,1015,18.0,17.9,100,14.43,37,3.6,299.4,341.8,302.0
905.4,1021,17.7,17.7,100,14.24,36,3.5,299.3,341.0,301.8
904.8,1026,17.7,17.7,100,14.25,35,3.5,299.3,341.1,301.9
904.2,1032,17.9,17.9,100,14.43,34,3.4,299.5,341.9,302.1
903.6,1037,18.1,18.1,100,14.59,33,3.4,299.8,342.6,302.4
903.1,1042,18.1,18.1,100,14.66,32,3.3,299.9,343.0,302.5
902.6,1047,18.1,18.1,100,14.61,32,3.3,299.9,342.8,302.5
902.0,1053,18.0,17.8,99,14.41,31,3.2,299.9,342.2,302.4
901.5,1058,17.9,17.3,96,13.89,30,3.2,299.8,340.6,302.3
900.9,1063,17.7,16.1,90,12.87,30,3.2,299.7,337.5,302.0
900.3,1069,17.6,13.9,79,11.18,30,3.1,299.6,332.6,301.6
899.8,1074,17.5,11.9,70,9.79,30,3.1,299.6,328.5,301.3
899.2,1080,17.4,11.5,68,9.49,30,3.1,299.5,327.5,301.2
898.6,1085,17.2,11.8,70,9.72,30,3.1,299.4,328.1,301.1
898.0,1091,17.1,12.0,72,9.84,31,3.1,299.3,328.4,301.1
897.4,1096,17.0,12.0,72,9.85,31,3.0,299.3,328.3,301.0
896.9,1101,16.9,11.9,72,9.83,32,3.0,299.2,328.3,301.0
896.3,1107,16.9,11.9,73,9.84,33,3.0,299.3,328.3,301.0
895.8,1112,16.9,12.0,73,9.87,33,3.0,299.3,328.4,301.1
895.2,1117,16.9,12.1,73,9.93,34,3.0,299.4,328.7,301.2
894.7,1122,16.9,12.2,74,10.02,35,3.0,299.4,329.0,301.2
894.2,1127,16.9,12.3,74,10.12,36,2.9,299.5,329.3,301.3
893.6,1133,16.9,12.5,75,10.22,36,2.9,299.5,329.7,301.4
893.1,1138,16.9,12.6,75,10.30,37,2.9,299.6,330.0,301.5
892.5,1143,17.0,12.6,75,10.32,38,2.9,299.7,330.2,301.5
891.9,1149,17.0,12.5,75,10.28,38,2.9,299.7,330.1,301.6
891.4,1154,16.9,12.4,75,10.22,39,2.9,299.8,330.0,301.6
890.8,1159,16.9,12.4,74,10.18,39,2.8,299.8,329.9,301.6
890.3,1164,16.9,12.3,74,10.18,39,2.8,299.9,329.9,301.7
889.7,1170,16.9,12.4,74,10.19,39,2.8,299.9,330.0,301.7
889.2,1175,16.9,12.4,75,10.22,39,2.8,300.0,330.2,301.8
888.6,1180,16.9,12.4,75,10.24,39,2.7,300.0,330.3,301.9
888.0,1186,16.9,12.4,75,10.24,38,2.7,300.1,330.3,301.9
887.5,1192,16.9,12.3,74,10.21,38,2.7,300.1,330.3,302.0
886.9,1197,16.9,12.3,74,10.17,37,2.6,300.2,330.3,302.0
886.3,1203,16.9,12.2,74,10.13,36,2.6,300.2,330.2,302.0
885.7,1208,16.9,12.2,74,10.10,36,2.6,300.3,330.2,302.1
885.1,1214,16.9,12.1,74,10.09,35,2.5,300.3,330.2,302.1
884.6,1220,16.8,12.1,74,10.10,33,2.5,300.3,330.2,302.1
884.0,1225,16.8,12.2,74,10.13,32,2.4,300.4,330.4,302.2
883.4,1231,16.8,12.2,74,10.17,31,2.4,300.4,330.5,302.3
882.7,1237,16.8,12.2,75,10.19,30,2.3,300.5,330.7,302.3
882.1,1243,16.8,12.2,75,10.18,29,2.3,300.5,330.6,302.3
881.5,1249,16.7,12.1,74,10.14,27,2.2,300.5,330.6,302.3
881.0,1254,16.7,12.1,74,10.09,26,2.1,300.5,330.4,302.4
880.4,1260,16.7,12.0,74,10.04,25,2.1,300.6,330.4,302.4
879.9,1265,16.7,11.9,73,10.00,24,2.0,300.6,330.3,302.4
879.4,1270,16.7,11.8,73,9.96,23,1.9,300.7,330.2,302.5
878.9,1274,16.7,11.8,73,9.92,22,1.8,300.7,330.2,302.5
878.4,1279,16.7,11.7,72,9.87,21,1.8,300.8,330.1,302.6
878.0,1283,16.7,11.6,72,9.84,21,1.7,300.8,330.0,302.6
877.6,1287,16.7,11.6,72,9.81,20,1.6,300.8,330.0,302.6
877.2,1291,16.7,11.6,72,9.82,20,1.5,300.9,330.0,302.6
876.8,1295,16.7,11.6,72,9.84,20,1.4,300.9,330.1,302.7
876.4,1299,16.6,11.6,72,9.85,20,1.3,300.9,330.2,302.7
875.9,1304,16.6,11.6,73,9.87,20,1.2,300.9,330.3,302.7
875.4,1308,16.6,11.6,73,9.88,20,1.2,300.9,330.3,302.7
875.0,1313,16.5,11.6,73,9.86,21,1.1,300.9,330.2,302.7
874.5,1317,16.5,11.6,73,9.84,22,1.0,300.9,330.2,302.7
874.0,1322,16.5,11.5,73,9.81,23,1.0,301.0,330.1,302.7
873.5,1327,16.4,11.5,73,9.81,24,0.9,301.0,330.1,302.7
873.0,1332,16.4,11.5,73,9.82,25,0.9,301.0,330.2,302.8
872.6,1336,16.3,11.5,73,9.80,26,0.8,301.0,330.1,302.8
872.1,1341,16.3,11.4,73,9.75,26,0.8,301.0,330.0,302.8
871.6,1345,16.3,11.3,72,9.68,27,0.8,301.0,329.8,302.8
871.1,1350,16.3,11.2,72,9.63,27,0.7,301.1,329.7,302.8
870.7,1355,16.3,11.1,72,9.59,28,0.7,301.1,329.6,302.8
870.2,1360,16.2,11.1,71,9.57,27,0.7,301.1,329.6,302.9
869.7,1365,16.2,11.1,72,9.56,27,0.7,301.1,329.6,302.9
869.1,1370,16.2,11.0,71,9.54,26,0.7,301.2,329.6,302.9
868.6,1375,16.2,11.0,71,9.52,24,0.7,301.2,329.6,302.9
868.0,1380,16.2,11.0,71,9.52,23,0.7,301.3,329.6,303.0
867.5,1386,16.1,11.0,72,9.54,21,0.7,301.2,329.7,303.0
867.0,1391,16.1,11.0,72,9.55,19,0.7,301.3,329.7,303.0
866.4,1396,16.1,11.0,72,9.54,17,0.7,301.3,329.7,303.0
865.9,1401,16.0,10.9,72,9.52,15,0.7,301.3,329.7,303.0
865.4,1406,16.0,10.9,72,9.50,12,0.7,301.4,329.7,303.1
864.9,1411,16.0,10.8,71,9.42,10,0.7,301.4,329.5,303.1
864.4,1416,16.0,10.6,70,9.30,7,0.7,301.5,329.2,303.2
863.9,1421,16.1,10.4,69,9.18,5,0.7,301.6,329.0,303.2
863.4,1426,16.1,10.2,68,9.11,2,0.7,301.6,328.9,303.3
863.0,1430,16.1,10.2,68,9.11,360,0.7,301.7,328.9,303.3
862.5,1435,16.0,10.2,68,9.12,358,0.7,301.7,328.9,303.3
862.0,1440,16.0,10.2,68,9.11,355,0.6,301.7,328.9,303.3
861.5,1445,16.0,10.2,68,9.10,353,0.6,301.7,328.9,303.4
861.0,1450,15.9,10.2,69,9.12,351,0.6,301.7,329.0,303.4
860.5,1455,15.9,10.3,69,9.15,350,0.5,301.7,329.1,303.4
859.9,1460,15.9,10.3,70,9.21,349,0.5,301.7,329.3,303.4
859.4,1466,15.8,10.5,70,9.29,349,0.5,301.7,329.5,303.4
858.8,1472,15.7,10.6,71,9.36,350,0.4,301.7,329.7,303.4
858.1,1478,15.7,10.6,72,9.42,352,0.4,301.8,329.9,303.5
857.5,1485,15.7,10.7,72,9.48,357,0.4,301.8,330.1,303.5
856.8,1491,15.7,10.8,73,9.53,3,0.4,301.8,330.3,303.6
856.2,1497,15.6,10.8,73,9.55,10,0.4,301.9,330.4,303.6
855.6,1503,15.6,10.8,73,9.56,19,0.4,301.9,330.4,303.6
855.0,1509,15.5,10.8,74,9.58,28,0.4,301.9,330.5,303.6
854.4,1515,15.5,10.8,74,9.57,35,0.5,301.9,330.5,303.7
853.9,1520,15.5,10.7,73,9.48,42,0.5,302.0,330.3,303.7
853.4,1526,15.5,10.4,71,9.32,47,0.6,302.0,329.9,303.7
852.8,1531,15.6,10.1,70,9.15,51,0.7,302.2,329.6,303.8
852.3,1536,15.6,9.9,69,9.04,53,0.8,302.3,329.3,303.9
851.8,1541,15.6,9.8,68,8.99,56,0.9,302.3,329.2,303.9
851.2,1547,15.6,9.8,68,8.95,57,1.0,302.3,329.2,304.0
850.7,1552,15.6,9.6,68,8.86,59,1.1,302.4,328.9,304.0
850.1,1558,15.6,9.4,67,8.73,60,1.2,302.4,328.6,304.0
850.0,1559,15.6,9.3,66,8.70,61,1.3,302.4,328.5,304.0
849.6,1563,15.5,9.2,66,8.62,61,1.3,302.4,328.3,304.0
849.0,1569,15.5,9.1,66,8.57,63,1.4,302.5,328.2,304.0
848.5,1574,15.5,9.0,65,8.53,64,1.5,302.5,328.1,304.0
848.0,1579,15.4,8.9,65,8.48,65,1.6,302.5,328.0,304.0
847.6,1583,15.4,8.8,65,8.43,67,1.6,302.5,327.8,304.0
847.1,1588,15.4,8.8,65,8.40,68,1.7,302.5,327.8,304.1
846.7,1592,15.3,8.8,65,8.42,70,1.8,302.5,327.9,304.1
846.2,1597,15.3,8.9,65,8.46,71,1.8,302.6,328.0,304.1
845.8,1601,15.3,8.9,66,8.48,73,1.8,302.6,328.0,304.1
845.3,1606,15.2,8.8,66,8.46,75,1.9,302.6,328.0,304.1
844.9,1610,15.2,8.7,65,8.41,77,1.9,302.6,327.8,304.1
844.4,1615,15.2,8.6,65,8.33,79,1.9,302.6,327.6,304.1
843.9,1620,15.1,8.4,64,8.23,82,1.9,302.6,327.4,304.1
843.4,1626,15.1,8.2,63,8.09,84,1.9,302.6,327.0,304.1
842.9,1631,15.1,7.7,61,7.87,87,1.9,302.6,326.4,304.1
842.4,1636,15.1,7.3,60,7.65,90,1.9,302.7,325.8,304.1
841.9,1641,15.1,7.2,59,7.57,92,1.9,302.8,325.6,304.1
841.4,1645,15.1,7.2,59,7.57,95,1.9,302.8,325.6,304.2
840.9,1650,15.0,7.1,59,7.54,98,1.9,302.8,325.6,304.2
840.4,1655,15.0,6.9,58,7.42,101,1.9,302.8,325.2,304.2
840.0,1660,15.0,6.6,57,7.32,104,1.8,302.8,325.0,304.2
839.5,1665,14.9,6.6,57,7.29,106,1.8,302.8,324.9,304.2
839.0,1670,14.9,6.6,57,7.28,108,1.8,302.9,324.9,304.2
838.5,1674,14.9,6.5,57,7.24,110,1.8,302.9,324.8,304.2
838.1,1679,14.8,6.3,57,7.16,112,1.8,302.9,324.5,304.2
837.6,1683,14.8,6.2,56,7.10,114,1.8,302.9,324.4,304.2
837.2,1687,14.8,6.2,56,7.10,115,1.8,302.9,324.4,304.2
836.8,1692,14.7,6.2,57,7.12,116,1.8,302.9,324.5,304.2
836.4,1696,14.7,6.2,57,7.14,117,1.8,302.9,324.5,304.2
836.0,1700,14.6,6.2,57,7.15,117,1.8,302.9,324.5,304.2
835.5,1704,14.6,6.2,57,7.14,117,1.8,302.9,324.5,304.2
835.1,1709,14.6,6.2,57,7.13,117,1.8,302.9,324.5,304.2
834.7,1713,14.5,6.2,57,7.14,116,1.8,302.9,324.5,304.2
834.2,1718,14.5,6.3,58,7.21,115,1.8,302.9,324.8,304.3
833.7,1723,14.5,6.5,59,7.29,114,1.8,302.9,325.0,304.3
833.3,1728,14.4,6.6,59,7.33,113,1.8,302.9,325.1,304.3
832.8,1732,14.4,6.5,59,7.32,111,1.8,302.9,325.1,304.3
832.3,1737,14.3,6.4,59,7.28,110,1.8,302.9,325.0,304.3
831.8,1742,14.3,6.3,59,7.22,108,1.9,302.9,324.8,304.3
831.3,1748,14.3,6.0,58,7.08,106,1.9,303.0,324.4,304.3
830.7,1753,14.3,5.6,56,6.87,105,1.9,303.1,323.9,304.3
830.2,1759,14.3,5.2,54,6.68,103,2.0,303.2,323.5,304.4
829.6,1764,14.3,5.0,53,6.58,102,2.0,303.2,323.3,304.4
829.1,1770,14.3,4.8,53,6.53,100,2.0,303.3,323.1,304.5
828.6,1775,14.3,4.7,53,6.50,99,2.1,303.3,323.1,304.5
828.1,1781,14.3,4.6,52,6.45,98,2.1,303.3,323.0,304.5
827.6,1786,14.2,4.6,52,6.42,97,2.2,303.3,322.9,304.5
827.1,1791,14.2,4.4,52,6.37,96,2.2,303.4,322.8,304.5
826.6,1795,14.2,4.2,51,6.26,96,2.3,303.4,322.5,304.6
826.1,1800,14.2,3.9,50,6.14,95,2.3,303.5,322.2,304.6
825.7,1805,14.2,3.7,49,6.04,95,2.4,303.6,322.0,304.7
825.2,1809,14.3,3.5,48,5.98,95,2.4,303.6,321.9,304.7
824.8,1814,14.3,3.5,48,5.96,94,2.5,303.7,321.9,304.8
824.3,1818,14.2,3.4,48,5.95,94,2.5,303.7,321.9,304.8
823.9,1823,14.2,3.5,48,5.96,94,2.5,303.7,322.0,304.8
823.5,1828,14.2,3.5,49,5.98,94,2.6,303.7,322.0,304.8
823.0,1832,14.2,3.5,49,6.01,94,2.6,303.7,322.1,304.8
822.5,1837,14.1,3.6,49,6.03,94,2.7,303.8,322.2,304.9
822.0,1843,14.1,3.7,50,6.07,95,2.7,303.7,322.3,304.9
821.5,1848,14.0,3.8,50,6.12,95,2.7,303.7,322.5,304.9
821.0,1853,13.9,3.9,51,6.17,95,2.7,303.7,322.6,304.9
820.5,1858,13.9,3.9,51,6.18,95,2.8,303.7,322.6,304.9
820.0,1863,13.9,3.8,51,6.16,95,2.8,303.8,322.6,304.9
819.5,1868,13.8,3.8,51,6.12,95,2.8,303.8,322.5,304.9
819.1,1873,13.8,3.7,50,6.10,96,2.8,303.8,322.4,304.9
818.6,1878,13.7,3.7,51,6.09,96,2.8,303.8,322.4,304.9
818.1,1882,13.7,3.6,51,6.07,96,2.8,303.8,322.3,304.9
817.6,1887,13.7,3.6,50,6.06,96,2.8,303.8,322.3,304.9
817.2,1892,13.6,3.6,51,6.08,97,2.8,303.8,322.4,304.9
816.7,1897,13.6,3.7,51,6.10,97,2.7,303.8,322.5,304.9
816.2,1902,13.5,3.7,51,6.12,97,2.7,303.8,322.5,304.9
815.8,1907,13.5,3.7,52,6.13,98,2.7,303.8,322.5,304.9
815.3,1912,13.4,3.7,52,6.13,98,2.6,303.8,322.5,304.9
814.8,1917,13.4,3.7,52,6.12,99,2.6,303.8,322.5,304.9
814.3,1922,13.4,3.7,52,6.12,100,2.5,303.8,322.5,305.0
813.8,1927,13.3,3.8,52,6.17,101,2.5,303.8,322.7,305.0
813.3,1932,13.3,4.0,53,6.27,102,2.4,303.9,323.0,305.0
812.8,1937,13.2,4.1,54,6.34,103,2.4,303.9,323.2,305.0
