PRES,HGHT,TEMP,DWPT,RELH,MIXR,DRCT,SPED,THTA,THTE,THTV
1008.8,31,30.5,21.9,60,16.62,170,6.9,302.9,352.4,305.9
1008.7,31,30.4,21.9,60,16.59,175,4.2,302.7,352.1,305.8
1008.3,35,29.1,21.6,64,16.36,179,3.3,301.6,350.0,304.5
1007.9,39,28.0,21.4,67,16.12,180,3.1,300.4,347.9,303.3
1007.4,43,27.0,21.3,71,16.04,180,3.3,299.5,346.6,302.4
1006.9,47,26.7,21.3,72,16.04,180,3.5,299.2,346.2,302.1
1006.3,53,26.6,21.1,72,15.83,180,3.7,299.2,345.6,302.0
1005.9,56,26.6,20.7,70,15.42,180,3.8,299.2,344.5,302.0
1005.5,59,26.7,20.2,67,14.96,180,3.9,299.4,343.2,302.0
1005.1,63,26.7,19.8,66,14.58,180,4.0,299.5,342.3,302.1
1004.8,66,26.8,19.6,65,14.46,179,4.0,299.5,341.9,302.1
1004.4,69,26.7,19.7,65,14.51,179,4.1,299.5,342.1,302.1
1004.1,72,26.8,19.5,64,14.33,179,4.1,299.5,341.6,302.1
1003.7,75,26.8,19.2,63,14.06,179,4.2,299.6,341.0,302.2
1003.4,78,26.8,19.0,62,13.90,179,4.2,299.7,340.5,302.2
1003.0,81,26.8,18.8,61,13.72,178,4.2,299.7,340.1,302.2
1002.7,84,26.8,18.7,61,13.64,178,4.2,299.7,339.8,302.2
1002.3,87,26.8,18.8,62,13.79,177,4.2,299.7,340.2,302.2
1002.0,90,26.7,19.0,63,13.94,177,4.2,299.7,340.7,302.2
1001.7,93,26.7,18.9,62,13.89,176,4.2,299.7,340.5,302.2
1001.4,96,26.7,18.8,62,13.79,176,4.2,299.7,340.2,302.2
1001.1,99,26.7,18.7,62,13.64,175,4.3,299.7,339.8,302.2
1000.7,102,26.6,18.4,61,13.44,175,4.3,299.7,339.2,302.1
1000.4,104,26.6,18.3,60,13.38,174,4.3,299.7,339.1,302.1
1000.1,107,26.6,18.3,60,13.36,173,4.3,299.7,339.0,302.1
1000.0,108,26.6,18.3,60,13.34,173,4.3,299.7,339.0,302.1
999.8,110,26.6,18.3,60,13.31,173,4.3,299.7,338.9,302.1
999.4,113,26.5,18.2,60,13.29,172,4.4,299.7,338.8,302.1
999.0,117,26.5,18.3,61,13.34,171,4.4,299.7,339.0,302.1
998.7,120,26.5,18.3,61,13.37,171,4.4,299.7,339.1,302.1
998.3,123,26.4,18.3,61,13.38,171,4.5,299.7,339.1,302.1
997.9,127,26.4,18.3,61,13.36,170,4.5,299.7,339.0,302.1
997.5,130,26.3,18.2,61,13.33,170,4.6,299.7,338.9,302.1
997.2,133,26.3,18.2,61,13.30,169,4.6,299.7,338.8,302.1
996.8,137,26.3,18.2,61,13.32,169,4.7,299.7,338.9,302.1
996.4,140,26.3,18.3,61,13.38,169,4.7,299.7,339.1,302.1
996.0,143,26.2,18.3,62,13.41,168,4.8,299.7,339.1,302.1
995.7,147,26.2,18.3,62,13.40,168,4.8,299.7,339.1,302.1
995.3,150,26.2,18.3,62,13.40,168,4.8,299.7,339.1,302.1
995.0,153,26.1,18.3,62,13.44,168,4.9,299.7,339.2,302.1
994.7,155,26.1,18.4,63,13.49,168,4.9,299.7,339.4,302.1
994.4,158,26.1,18.4,63,13.49,167,4.9,299.7,339.3,302.1
994.1,161,26.0,18.3,62,13.44,167,4.9,299.7,339.2,302.1
993.8,163,26.0,18.3,62,13.42,167,4.9,299.7,339.1,302.1
993.5,166,26.0,18.3,63,13.43,166,4.8,299.7,339.2,302.1
993.2,169,26.0,18.4,63,13.49,166,4.8,299.7,339.4,302.1
992.8,172,26.0,18.4,63,13.54,166,4.8,299.7,339.5,302.2
992.4,175,25.9,18.4,63,13.52,165,4.7,299.7,339.5,302.2
992.0,179,25.9,18.3,63,13.48,165,4.7,299.7,339.4,302.2
991.6,183,25.9,18.3,63,13.43,164,4.6,299.7,339.2,302.1
991.2,186,25.8,18.3,63,13.44,164,4.5,299.7,339.2,302.1
990.8,190,25.8,18.4,64,13.56,163,4.4,299.7,339.6,302.1
990.3,194,25.7,18.5,64,13.67,162,4.4,299.7,339.9,302.2
989.9,198,25.7,18.5,65,13.69,161,4.3,299.7,339.9,302.1
989.5,202,25.6,18.5,65,13.65,161,4.2,299.7,339.8,302.1
989.0,206,25.6,18.5,65,13.65,160,4.1,299.7,339.8,302.1
988.6,210,25.5,18.5,65,13.68,159,4.0,299.7,339.9,302.1
988.1,214,25.5,18.5,65,13.67,158,3.9,299.7,339.9,302.1
987.6,218,25.4,18.4,65,13.65,156,3.8,299.7,339.8,302.1
987.2,222,25.4,18.4,65,13.57,155,3.7,299.7,339.6,302.1
986.7,226,25.4,18.2,65,13.47,154,3.6,299.7,339.3,302.1
986.3,230,25.4,17.9,63,13.23,153,3.5,299.7,338.6,302.1
985.9,234,25.4,17.6,62,12.93,151,3.4,299.8,337.8,302.1
985.4,238,25.4,17.7,63,13.04,150,3.3,299.8,338.2,302.1
985.0,241,25.3,17.9,63,13.21,148,3.2,299.8,338.6,302.1
984.6,245,25.3,17.7,63,13.09,147,3.1,299.8,338.3,302.1
984.2,248,25.3,17.6,63,12.98,145,3.0,299.8,337.9,302.1
983.8,252,25.2,17.3,62,12.76,144,2.9,299.8,337.3,302.1
983.4,255,25.2,17.2,61,12.62,142,2.8,299.8,337.0,302.1
983.1,259,25.2,17.3,61,12.70,141,2.7,299.8,337.2,302.1
982.7,263,25.1,17.4,62,12.86,139,2.6,299.8,337.6,302.1
982.2,266,25.1,17.3,62,12.76,137,2.6,299.8,337.3,302.1
981.8,270,25.1,17.1,61,12.57,136,2.5,299.8,336.8,302.1
981.4,274,25.1,17.1,61,12.57,134,2.4,299.8,336.8,302.1
981.0,277,25.0,17.3,62,12.76,132,2.3,299.8,337.4,302.1
980.6,281,25.0,17.5,63,12.93,130,2.3,299.8,337.9,302.1
980.2,284,24.9,17.6,64,13.02,129,2.2,299.8,338.1,302.1
979.9,288,24.9,17.7,65,13.13,127,2.1,299.7,338.3,302.1
979.5,291,24.8,18.0,66,13.35,125,2.1,299.7,339.0,302.1
979.1,294,24.7,18.0,66,13.35,123,2.0,299.7,338.9,302.1
978.8,297,24.7,17.7,65,13.09,122,2.0,299.7,338.2,302.0
978.4,300,24.7,17.4,64,12.87,120,2.0,299.7,337.6,302.1
978.1,303,24.7,17.4,64,12.87,118,1.9,299.8,337.7,302.1
977.8,306,24.7,17.6,65,13.06,116,1.9,299.8,338.2,302.1
977.5,309,24.7,17.6,65,13.09,114,1.9,299.8,338.3,302.1
977.2,312,24.7,17.4,64,12.94,113,1.8,299.8,337.9,302.1
976.9,314,24.7,17.2,63,12.72,111,1.8,299.9,337.3,302.1
976.7,316,24.8,16.9,62,12.48,109,1.8,299.9,336.7,302.2
976.4,319,24.8,16.8,61,12.39,107,1.8,300.0,336.5,302.2
976.1,321,24.8,16.8,61,12.43,106,1.8,300.0,336.7,302.3
975.9,323,24.8,17.0,62,12.55,104,1.8,300.0,337.0,302.3
975.6,326,24.7,17.0,62,12.60,103,1.8,300.0,337.1,302.2
975.4,328,24.7,16.8,62,12.45,101,1.8,300.0,336.7,302.2
975.1,331,24.7,16.7,61,12.35,99,1.8,300.0,336.4,302.2
974.8,333,24.7,16.7,61,12.38,98,1.8,300.0,336.5,302.2
974.5,336,24.6,16.8,62,12.41,96,1.8,300.0,336.6,302.2
974.2,338,24.6,16.9,62,12.50,94,1.8,300.0,336.8,302.2
974.0,341,24.5,17.2,64,12.74,93,1.8,299.9,337.4,302.2
973.7,343,24.4,17.5,65,13.04,91,1.8,299.8,338.2,302.2
973.3,346,24.3,17.6,66,13.16,89,1.8,299.8,338.5,302.2
973.0,349,24.3,17.7,67,13.22,88,1.8,299.7,338.6,302.1
972.7,352,24.2,17.7,67,13.24,86,1.8,299.7,338.7,302.1
972.4,355,24.2,17.6,67,13.16,84,1.9,299.7,338.4,302.1
972.0,358,24.2,17.5,66,13.02,82,1.9,299.7,338.1,302.1
971.7,361,24.2,17.3,65,12.89,81,1.9,299.8,337.7,302.1
971.3,364,24.2,17.3,65,12.87,79,1.9,299.8,337.7,302.1
971.0,367,24.1,17.5,66,13.04,77,1.9,299.8,338.1,302.1
970.7,371,24.1,17.6,67,13.13,75,1.9,299.8,338.4,302.1
970.3,374,24.0,17.4,67,13.03,74,1.9,299.8,338.1,302.1
970.0,377,24.1,17.1,65,12.71,72,1.9,299.8,337.2,302.1
969.6,380,24.1,16.5,63,12.30,70,1.9,299.9,336.2,302.1
969.3,383,24.2,16.3,61,12.11,69,1.9,300.0,335.7,302.2
969.0,386,24.2,16.3,61,12.10,67,1.9,300.0,335.7,302.2
968.6,389,24.2,16.4,62,12.18,65,1.9,300.1,336.0,302.3
968.3,392,24.2,16.5,62,12.25,64,1.9,300.1,336.2,302.3
968.0,395,24.2,16.5,62,12.26,62,1.9,300.1,336.2,302.3
967.6,398,24.1,16.5,62,12.31,60,1.9,300.1,336.4,302.3
967.3,401,24.1,16.6,63,12.35,59,1.9,300.1,336.5,302.3
967.0,404,24.1,16.6,63,12.34,57,1.9,300.1,336.5,302.3
966.7,407,24.0,16.4,63,12.26,55,1.9,300.1,336.2,302.3
966.3,409,24.0,16.2,61,12.04,53,1.9,300.1,335.6,302.2
966.0,412,24.0,16.0,61,11.88,51,1.8,300.1,335.2,302.2
965.7,415,24.0,16.1,61,11.97,49,1.8,300.1,335.4,302.3
965.4,418,23.9,16.4,63,12.22,47,1.8,300.1,336.1,302.3
965.0,422,23.9,16.6,64,12.43,45,1.8,300.1,336.7,302.3
964.6,425,23.8,16.6,64,12.38,42,1.8,300.0,336.6,302.3
964.2,429,23.8,16.3,63,12.20,40,1.8,300.0,336.0,302.2
963.7,433,23.8,16.2,62,12.08,37,1.7,300.1,335.7,302.2
963.3,437,23.8,16.1,62,12.00,34,1.7,300.1,335.5,302.3
962.8,442,23.8,16.0,62,11.96,32,1.7,300.2,335.5,302.3
962.3,446,23.7,16.0,62,11.94,29,1.7,300.2,335.4,302.3
961.9,450,23.7,15.8,61,11.84,27,1.7,300.2,335.1,302.3
961.4,455,23.7,15.8,61,11.81,24,1.7,300.2,335.1,302.3
960.9,459,23.6,15.9,62,11.89,21,1.7,300.2,335.3,302.3
960.4,464,23.6,16.0,62,11.99,19,1.8,300.2,335.6,302.3
959.9,468,23.5,16.1,63,12.08,17,1.8,300.1,335.8,302.3
959.4,473,23.4,16.1,64,12.11,15,1.8,300.1,335.8,302.3
958.9,477,23.4,16.1,64,12.08,13,1.8,300.1,335.8,302.3
958.4,482,23.3,16.2,64,12.18,11,1.8,300.1,336.0,302.3
957.9,487,23.3,16.4,65,12.31,9,1.8,300.1,336.4,302.3
957.4,491,23.3,16.3,65,12.24,8,1.9,300.1,336.2,302.3
956.8,496,23.2,16.1,64,12.13,7,1.9,300.1,335.9,302.3
956.3,501,23.2,15.9,63,11.94,5,1.9,300.1,335.4,302.3
955.8,505,23.2,15.8,63,11.87,4,1.9,300.2,335.2,302.3
955.3,510,23.1,15.9,64,11.95,3,1.9,300.2,335.4,302.3
954.8,515,23.1,15.9,64,11.95,2,1.9,300.2,335.4,302.3
954.3,519,23.1,15.7,63,11.85,2,1.9,300.2,335.2,302.3
953.8,524,23.0,15.7,63,11.87,1,1.9,300.2,335.3,302.4
953.3,529,23.0,15.8,64,11.90,360,1.9,300.2,335.4,302.4
952.7,533,23.0,15.9,64,11.97,359,1.9,300.3,335.7,302.5
952.2,538,23.0,16.1,65,12.15,358,1.9,300.3,336.2,302.5
951.7,543,23.0,16.4,66,12.42,357,1.8,300.3,337.0,302.6
951.2,548,22.9,16.5,67,12.51,356,1.8,300.3,337.2,302.6
950.7,552,22.8,16.4,67,12.43,355,1.8,300.3,337.0,302.5
950.2,557,22.8,16.2,67,12.32,354,1.8,300.3,336.6,302.5
949.7,561,22.8,16.1,66,12.18,353,1.7,300.3,336.3,302.5
949.3,566,22.8,15.7,64,11.92,351,1.7,300.4,335.6,302.5
948.8,570,22.8,15.5,64,11.78,349,1.7,300.4,335.2,302.5
948.3,574,22.8,15.6,64,11.80,348,1.6,300.4,335.3,302.6
947.9,578,22.7,15.8,65,11.97,345,1.6,300.4,335.8,302.6
947.4,583,22.7,15.9,65,12.05,343,1.6,300.4,336.0,302.6
946.9,587,22.7,15.8,65,11.99,340,1.6,300.4,335.9,302.6
946.4,591,22.6,15.7,65,11.93,337,1.6,300.5,335.7,302.6
946.0,596,22.6,15.7,65,11.95,334,1.6,300.5,335.8,302.6
945.5,600,22.6,15.9,66,12.07,330,1.6,300.5,336.1,302.7
945.0,605,22.5,16.0,67,12.21,327,1.6,300.4,336.5,302.6
944.5,609,22.4,16.2,68,12.35,323,1.6,300.4,336.9,302.6
944.0,614,22.3,16.3,69,12.43,319,1.6,300.4,337.1,302.6
943.5,618,22.3,16.2,69,12.39,316,1.7,300.4,336.9,302.6
943.0,623,22.3,15.9,67,12.12,312,1.7,300.4,336.2,302.6
942.5,628,22.3,15.5,65,11.83,309,1.8,300.5,335.4,302.6
942.0,632,22.3,15.3,65,11.69,306,1.9,300.5,335.1,302.6
941.5,637,22.2,15.2,65,11.64,303,2.0,300.5,334.9,302.6
941.0,642,22.2,15.2,65,11.61,301,2.0,300.5,334.8,302.6
940.5,647,22.1,15.2,65,11.62,298,2.1,300.5,334.9,302.6
940.0,651,22.1,15.2,65,11.67,296,2.3,300.5,335.0,302.6
939.5,655,22.1,15.4,66,11.79,295,2.4,300.5,335.4,302.6
939.1,659,22.0,15.6,67,11.93,293,2.5,300.5,335.8,302.7
938.6,664,22.0,15.7,67,12.02,292,2.6,300.5,336.1,302.7
938.2,668,22.0,15.8,68,12.10,290,2.7,300.5,336.3,302.7
937.8,672,22.0,15.8,68,12.16,290,2.8,300.6,336.5,302.8
937.3,676,21.9,16.0,69,12.25,289,2.9,300.6,336.8,302.8
936.9,680,21.9,16.1,70,12.40,288,3.0,300.6,337.2,302.9
936.4,684,21.9,16.2,70,12.44,288,3.1,300.6,337.4,302.9
936.0,688,21.9,16.1,70,12.42,287,3.2,300.6,337.4,302.9
935.5,693,21.8,16.2,70,12.46,287,3.3,300.6,337.5,302.9
935.0,697,21.8,16.3,71,12.53,287,3.3,300.6,337.7,302.9
934.5,702,21.7,16.3,71,12.56,287,3.4,300.6,337.7,302.9
934.1,706,21.7,16.3,71,12.55,287,3.4,300.7,337.7,302.9
933.6,711,21.7,16.2,71,12.52,287,3.5,300.7,337.7,303.0
933.1,715,21.8,16.2,71,12.53,287,3.5,300.8,337.9,303.1
932.6,719,21.8,16.3,71,12.57,287,3.5,300.9,338.1,303.2
932.2,724,21.8,16.3,71,12.57,287,3.6,300.9,338.1,303.2
931.7,728,21.8,16.3,71,12.59,287,3.6,301.0,338.2,303.2
931.2,733,21.7,16.4,71,12.67,287,3.5,301.0,338.4,303.2
930.7,738,21.7,16.6,73,12.83,287,3.5,301.0,338.9,303.3
930.1,743,21.6,16.8,74,13.03,288,3.5,300.9,339.5,303.3
929.6,748,21.5,17.1,76,13.31,288,3.5,300.9,340.2,303.3
929.0,753,21.4,17.5,78,13.63,288,3.4,300.8,341.1,303.3
928.4,759,21.3,17.5,79,13.72,288,3.4,300.8,341.3,303.3
927.8,764,21.2,17.4,79,13.61,288,3.3,300.8,341.0,303.2
927.3,769,21.2,17.2,78,13.47,288,3.2,300.8,340.5,303.2
926.8,774,21.2,17.1,78,13.37,288,3.1,300.8,340.2,303.2
926.3,779,21.1,17.1,78,13.32,288,3.1,300.8,340.1,303.2
925.8,783,21.1,17.1,78,13.34,288,3.0,300.8,340.2,303.2
925.3,788,21.0,17.0,78,13.33,288,2.9,300.8,340.2,303.2
925.0,791,21.0,17.0,78,13.30,288,2.9,300.8,340.1,303.2
924.8,792,21.0,17.0,78,13.28,288,2.8,300.8,340.0,303.2
924.4,797,21.0,17.0,78,13.28,288,2.7,300.8,340.0,303.2
923.9,801,20.9,17.0,78,13.30,287,2.6,300.8,340.0,303.2
923.4,806,20.9,17.0,79,13.35,287,2.5,300.8,340.2,303.2
922.9,810,20.8,17.1,79,13.38,287,2.4,300.8,340.3,303.2
922.4,815,20.8,17.1,79,13.39,287,2.3,300.8,340.3,303.2
922.0,819,20.7,17.0,79,13.35,286,2.3,300.8,340.2,303.2
921.5,824,20.7,17.0,79,13.36,286,2.2,300.8,340.2,303.2
921.0,828,20.6,17.1,80,13.46,285,2.1,300.8,340.5,303.2
920.6,832,20.6,17.2,81,13.55,285,2.0,300.7,340.7,303.2
920.1,837,20.5,17.2,81,13.55,284,1.9,300.7,340.7,303.2
919.6,841,20.5,17.2,82,13.56,283,1.9,300.7,340.8,303.2
919.2,846,20.5,17.2,82,13.58,283,1.8,300.8,340.8,303.2
918.7,850,20.4,17.2,82,13.57,282,1.8,300.8,340.8,303.2
918.2,855,20.4,17.1,82,13.50,282,1.7,300.8,340.6,303.2
917.8,859,20.3,17.0,81,13.38,281,1.7,300.8,340.3,303.2
917.3,863,20.3,16.8,81,13.26,281,1.6,300.8,339.9,303.1
916.8,868,20.3,16.8,81,13.24,280,1.6,300.8,339.9,303.2
916.4,872,20.2,16.9,81,13.31,280,1.5,300.8,340.1,303.2
915.9,876,20.1,17.0,82,13.43,279,1.5,300.7,340.4,303.2
915.5,880,20.1,17.1,83,13.54,279,1.5,300.7,340.7,303.2
915.1,884,20.0,17.1,83,13.56,278,1.5,300.7,340.7,303.1
914.6,889,20.0,17.1,84,13.58,278,1.4,300.7,340.8,303.1
914.1,893,19.9,17.2,84,13.62,277,1.4,300.7,340.9,303.2
913.6,898,19.9,17.2,85,13.67,277,1.4,300.7,341.0,303.2
913.1,903,19.8,17.3,85,13.69,277,1.4,300.7,341.1,303.2
912.6,908,19.8,17.2,85,13.64,276,1.4,300.7,340.9,303.1
912.1,913,19.7,17.1,85,13.58,276,1.4,300.7,340.8,303.1
911.5,918,19.7,17.1,85,13.60,276,1.4,300.7,340.8,303.1
911.0,923,19.6,17.2,86,13.65,276,1.4,300.7,341.0,303.2
910.4,928,19.6,17.2,86,13.67,275,1.4,300.7,341.0,303.2
909.9,933,19.5,17.2,86,13.67,275,1.3,300.7,341.0,303.1
909.3,939,19.5,17.2,87,13.67,275,1.3,300.7,341.0,303.1
908.7,945,19.4,17.1,87,13.67,275,1.3,300.7,341.0,303.1
908.1,950,19.4,17.1,87,13.66,275,1.3,300.7,341.0,303.1
907.5,956,19.3,17.1,87,13.63,274,1.3,300.7,340.9,303.1
906.9,962,19.3,17.0,87,13.58,274,1.3,300.7,340.8,303.1
906.2,968,19.2,17.0,87,13.58,274,1.3,300.7,340.8,303.2
905.6,974,19.2,17.0,87,13.61,274,1.3,300.7,340.9,303.2
905.0,980,19.1,17.0,88,13.60,274,1.3,300.7,340.9,303.2
904.4,986,19.1,16.9,87,13.55,274,1.3,300.7,340.7,303.2
903.8,992,19.0,16.9,87,13.51,274,1.2,300.8,340.6,303.2
903.2,997,19.0,16.9,87,13.51,274,1.2,300.8,340.7,303.2
902.6,1003,19.0,16.9,88,13.54,273,1.2,300.8,340.7,303.2
902.0,1009,18.9,16.9,88,13.59,273,1.2,300.8,340.9,303.2
901.4,1014,18.8,17.0,89,13.63,273,1.1,300.8,341.0,303.2
900.8,1020,18.8,17.0,89,13.65,273,1.1,300.8,341.0,303.2
900.2,1025,18.7,17.0,89,13.63,273,1.1,300.8,341.0,303.2
899.6,1031,18.7,16.9,89,13.59,273,1.0,300.8,340.9,303.2
899.1,1037,18.6,16.9,89,13.57,273,1.0,300.8,340.9,303.2
898.5,1042,18.6,16.9,90,13.58,274,1.0,300.8,340.9,303.2
897.9,1047,18.5,16.9,90,13.60,274,0.9,300.8,340.9,303.2
897.4,1053,18.5,16.9,91,13.63,274,0.9,300.8,341.0,303.2
896.8,1058,18.4,16.9,91,13.64,274,0.8,300.8,341.0,303.2
896.2,1064,18.4,16.9,91,13.65,274,0.8,300.8,341.1,303.2
895.7,1069,18.3,16.9,91,13.65,274,0.7,300.8,341.1,303.3
895.1,1075,18.3,16.9,92,13.65,273,0.7,300.8,341.1,303.3
894.5,1080,18.2,16.8,92,13.62,273,0.7,300.8,341.0,303.3
894.0,1085,18.2,16.8,92,13.62,272,0.6,300.8,341.0,303.3
893.4,1091,18.2,16.9,92,13.66,271,0.6,300.9,341.2,303.3
892.9,1096,18.1,16.9,93,13.69,270,0.6,300.9,341.3,303.3
892.4,1101,18.1,16.8,92,13.63,268,0.6,300.9,341.1,303.3
891.8,1106,18.0,16.7,92,13.57,265,0.5,300.9,341.0,303.3
891.3,1111,18.0,16.7,92,13.57,262,0.5,300.9,341.0,303.3
890.8,1116,18.0,16.8,93,13.63,258,0.5,300.9,341.2,303.4
890.3,1121,17.9,16.9,94,13.72,254,0.6,300.9,341.4,303.4
889.8,1126,17.9,16.9,94,13.77,250,0.6,300.9,341.6,303.4
889.3,1130,17.9,16.9,94,13.75,247,0.6,300.9,341.5,303.4
888.8,1135,17.8,16.9,94,13.72,243,0.7,300.9,341.5,303.4
888.3,1140,17.8,16.8,94,13.71,240,0.7,300.9,341.4,303.4
887.8,1145,17.7,16.8,95,13.72,238,0.8,300.9,341.5,303.4
887.3,1150,17.7,16.8,95,13.73,235,0.8,300.9,341.5,303.4
886.8,1155,17.6,16.8,95,13.72,233,0.9,300.9,341.4,303.4
886.2,1160,17.6,16.9,96,13.77,231,1.0,300.9,341.6,303.4
885.7,1165,17.6,16.9,96,13.84,230,1.1,301.0,341.8,303.5
885.1,1171,17.5,16.9,96,13.86,229,1.2,301.0,341.9,303.5
884.5,1176,17.5,16.9,96,13.79,228,1.2,301.0,341.7,303.5
884.0,1182,17.4,16.8,96,13.70,227,1.3,301.0,341.5,303.5
883.4,1187,17.4,16.7,96,13.64,226,1.4,301.0,341.3,303.5
882.9,1193,17.4,16.7,96,13.63,225,1.5,301.0,341.3,303.5
882.3,1198,17.3,16.7,96,13.66,225,1.5,301.1,341.4,303.5
881.8,1203,17.3,16.7,96,13.69,225,1.6,301.1,341.5,303.6
881.2,1209,17.3,16.7,96,13.70,224,1.7,301.1,341.6,303.6
880.7,1214,17.2,16.7,97,13.71,224,1.7,301.1,341.6,303.6
880.1,1219,17.2,16.7,97,13.75,224,1.8,301.1,341.7,303.6
879.6,1225,17.2,16.7,97,13.76,224,1.8,301.2,341.8,303.6
879.0,1230,17.2,16.7,97,13.76,224,1.9,301.3,341.9,303.7
878.5,1236,17.3,16.8,97,13.81,224,1.9,301.4,342.2,303.9
877.9,1241,17.3,16.8,97,13.86,224,2.0,301.5,342.5,304.0
877.4,1246,17.3,16.8,97,13.87,224,2.0,301.6,342.6,304.1
876.9,1251,17.3,16.8,97,13.85,224,2.0,301.6,342.6,304.1
876.4,1256,17.3,16.7,97,13.82,225,2.1,301.6,342.5,304.1
875.9,1261,17.2,16.7,97,13.79,225,2.1,301.6,342.4,304.1
875.4,1266,17.2,16.7,97,13.82,226,2.1,301.6,342.5,304.1
874.9,1270,17.2,16.8,98,13.89,226,2.2,301.6,342.7,304.1
874.5,1275,17.1,16.8,98,13.94,227,2.2,301.6,342.9,304.1
874.0,1279,17.1,16.9,98,13.96,228,2.3,301.6,343.0,304.2
873.5,1284,17.1,16.8,98,13.93,228,2.3,301.7,342.9,304.2
873.1,1288,17.1,16.8,98,13.91,229,2.3,301.7,342.9,304.3
872.6,1293,17.1,16.7,98,13.88,230,2.4,301.8,342.9,304.3
872.1,1298,17.1,16.7,97,13.84,230,2.4,301.8,342.8,304.3
871.5,1303,17.1,16.7,98,13.85,231,2.5,301.8,342.9,304.3
871.0,1309,17.0,16.7,98,13.86,232,2.5,301.8,342.9,304.3
870.5,1314,17.0,16.7,98,13.83,232,2.5,301.8,342.8,304.3
869.9,1320,16.9,16.6,98,13.79,233,2.6,301.9,342.7,304.3
869.3,1325,16.9,16.6,98,13.76,233,2.6,301.9,342.7,304.4
868.8,1330,16.8,16.5,98,13.72,234,2.6,301.9,342.6,304.4
868.2,1336,16.8,16.5,98,13.69,235,2.6,301.9,342.5,304.4
867.7,1341,16.8,16.4,98,13.69,235,2.7,301.9,342.5,304.4
867.1,1347,16.7,16.5,98,13.72,236,2.7,301.9,342.6,304.4
866.6,1352,16.7,16.5,99,13.74,236,2.7,301.9,342.7,304.4
866.0,1358,16.6,16.5,99,13.75,237,2.7,301.9,342.7,304.4
865.5,1363,16.6,16.5,99,13.76,237,2.7,301.9,342.7,304.4
864.9,1369,16.5,16.5,100,13.77,238,2.7,302.0,342.8,304.4
864.3,1374,16.5,16.4,100,13.74,238,2.6,302.0,342.7,304.5
863.8,1380,16.5,16.4,99,13.69,239,2.6,302.0,342.6,304.5
863.2,1386,16.5,16.4,99,13.70,239,2.6,302.0,342.7,304.5
862.7,1391,16.4,16.4,100,13.73,240,2.6,302.0,342.8,304.5
862.1,1397,16.4,16.4,100,13.73,241,2.5,302.1,342.8,304.6
861.6,1402,16.4,16.3,100,13.70,242,2.5,302.1,342.7,304.6
861.0,1407,16.3,16.3,100,13.65,243,2.5,302.1,342.7,304.6
860.5,1412,16.3,16.2,100,13.63,244,2.5,302.1,342.6,304.6
860.0,1417,16.3,16.2,100,13.62,245,2.5,302.2,342.6,304.6
859.6,1422,16.2,16.2,99,13.57,246,2.5,302.2,342.5,304.6
859.1,1426,16.2,16.1,99,13.49,247,2.5,302.2,342.2,304.6
858.6,1431,16.2,15.9,98,13.38,248,2.5,302.2,341.9,304.6
858.2,1436,16.2,15.8,97,13.23,249,2.5,302.2,341.5,304.6
857.7,1441,16.2,15.6,97,13.13,250,2.5,302.3,341.3,304.7
857.2,1445,16.2,15.6,96,13.10,251,2.6,302.4,341.3,304.7
856.7,1450,16.2,15.6,96,13.11,252,2.6,302.4,341.4,304.8
856.2,1455,16.2,15.5,96,13.06,253,2.6,302.5,341.3,304.8
855.7,1460,16.2,15.3,95,12.92,253,2.7,302.5,341.0,304.9
855.2,1465,16.2,15.1,93,12.76,254,2.8,302.6,340.6,304.9
854.7,1471,16.3,15.0,92,12.64,255,2.8,302.7,340.4,305.0
854.1,1476,16.3,14.9,91,12.58,256,2.9,302.8,340.3,305.1
853.6,1481,16.3,14.8,91,12.54,256,3.0,302.9,340.2,305.1
853.1,1486,16.3,14.8,91,12.48,257,3.1,302.9,340.1,305.2
852.6,1492,16.3,14.7,91,12.46,258,3.2,302.9,340.1,305.2
852.0,1497,16.2,14.8,91,12.49,258,3.2,302.9,340.2,305.2
851.5,1502,16.2,14.7,91,12.47,259,3.3,302.9,340.1,305.2
850.9,1508,16.2,14.6,90,12.39,259,3.4,303.0,339.9,305.2
850.4,1513,16.2,14.5,90,12.31,260,3.5,303.0,339.7,305.3
850.0,1517,16.2,14.4,89,12.26,260,3.5,303.1,339.6,305.3
849.9,1519,16.2,14.4,89,12.23,260,3.5,303.1,339.6,305.3
849.3,1524,16.2,14.3,89,12.18,261,3.6,303.1,339.5,305.4
848.8,1530,16.1,14.3,89,12.17,262,3.6,303.2,339.5,305.4
848.2,1535,16.1,14.2,89,12.13,262,3.7,303.2,339.4,305.4
847.7,1540,16.1,14.1,88,12.05,263,3.7,303.2,339.2,305.4
847.2,1546,16.1,14.1,88,12.00,264,3.7,303.3,339.1,305.4
846.6,1551,16.1,14.0,88,11.99,264,3.7,303.3,339.1,305.5
846.1,1557,16.0,14.0,88,11.98,265,3.7,303.3,339.1,305.5
845.5,1562,16.0,13.9,87,11.93,266,3.7,303.4,339.0,305.5
844.9,1568,16.0,13.8,87,11.85,267,3.7,303.4,338.9,305.6
844.3,1575,16.0,13.8,87,11.83,268,3.7,303.5,338.9,305.7
