PRES,HGHT,TEMP,DWPT,RELH,MIXR,DRCT,SPED,THTA,THTE,THTV
1016.5,31,25.8,22.1,80,16.71,47,8.1,297.6,346.2,300.5
1015.8,36,25.8,22.3,81,16.92,52,4.9,297.6,346.9,300.6
1015.2,42,25.8,22.3,81,16.91,55,4.3,297.6,346.8,300.6
1014.6,47,25.8,22.3,81,16.90,56,4.4,297.7,346.9,300.7
1014.1,52,25.8,22.2,81,16.83,56,4.7,297.7,346.7,300.7
1013.4,57,25.7,22.1,80,16.73,55,5.1,297.7,346.4,300.7
1012.8,63,25.7,22.0,80,16.65,55,5.5,297.7,346.2,300.7
1012.2,68,25.6,22.0,80,16.65,54,5.7,297.7,346.2,300.7
1011.6,73,25.6,22.0,81,16.68,54,6.0,297.7,346.3,300.7
1011.0,78,25.5,22.0,81,16.69,54,6.3,297.7,346.4,300.7
1010.4,83,25.5,22.0,81,16.68,54,6.6,297.7,346.3,300.7
1009.9,88,25.4,22.0,81,16.68,54,6.8,297.7,346.3,300.7
1009.3,93,25.4,21.9,81,16.66,53,7.0,297.8,346.3,300.7
1008.8,98,25.4,21.9,81,16.64,53,7.2,297.8,346.2,300.7
1008.3,102,25.3,21.9,81,16.59,53,7.4,297.7,346.1,300.7
1007.8,106,25.3,21.8,81,16.57,53,7.6,297.7,346.0,300.7
1007.4,110,25.2,21.9,82,16.60,53,7.8,297.7,346.1,300.7
1006.9,114,25.2,21.9,82,16.63,53,7.9,297.7,346.2,300.7
1006.4,119,25.1,21.9,82,16.63,53,8.1,297.7,346.1,300.7
1005.9,123,25.1,21.9,82,16.67,53,8.2,297.7,346.3,300.7
1005.4,127,25.1,21.9,83,16.72,53,8.3,297.8,346.4,300.7
1004.9,132,25.0,21.9,83,16.74,52,8.4,297.8,346.5,300.7
1004.3,137,25.0,21.9,83,16.71,52,8.5,297.8,346.4,300.7
1003.6,143,24.9,21.9,83,16.75,52,8.5,297.8,346.5,300.7
1003.0,149,24.9,22.0,84,16.83,53,8.6,297.8,346.8,300.8
1002.3,155,24.8,22.0,84,16.83,53,8.6,297.8,346.8,300.8
1001.6,161,24.7,21.9,84,16.75,53,8.7,297.7,346.5,300.7
1000.9,167,24.7,21.8,84,16.70,53,8.7,297.7,346.4,300.7
1000.3,173,24.6,21.8,84,16.67,53,8.7,297.7,346.3,300.7
1000.0,175,24.6,21.8,84,16.65,53,8.8,297.7,346.2,300.7
999.6,179,24.6,21.8,84,16.63,53,8.8,297.7,346.1,300.7
998.9,184,24.5,21.7,85,16.61,53,8.8,297.7,346.1,300.7
998.3,190,24.5,21.7,85,16.59,53,8.8,297.7,346.0,300.7
997.6,196,24.4,21.7,85,16.60,53,8.8,297.7,346.1,300.7
997.0,201,24.3,21.7,85,16.61,53,8.8,297.7,346.1,300.7
996.4,207,24.3,21.7,86,16.62,54,8.8,297.7,346.1,300.7
995.7,212,24.2,21.7,86,16.63,54,8.8,297.7,346.1,300.7
995.1,218,24.2,21.7,86,16.67,54,8.8,297.7,346.3,300.7
994.5,224,24.1,21.8,87,16.73,54,8.8,297.7,346.4,300.7
993.8,229,24.1,21.8,87,16.76,54,8.8,297.8,346.5,300.7
993.2,235,24.0,21.8,87,16.76,54,8.8,297.7,346.5,300.7
992.6,240,24.0,21.8,87,16.75,54,8.9,297.8,346.5,300.7
992.0,246,23.9,21.7,88,16.75,54,8.9,297.8,346.5,300.7
991.4,251,23.9,21.8,88,16.77,54,8.9,297.8,346.6,300.7
990.9,256,23.8,21.8,88,16.79,54,8.9,297.7,346.6,300.7
990.3,260,23.8,21.8,88,16.80,54,9.0,297.8,346.7,300.8
989.8,265,23.8,21.7,89,16.79,54,9.0,297.8,346.6,300.8
989.3,269,23.7,21.7,89,16.76,54,9.0,297.8,346.6,300.8
988.8,274,23.7,21.7,89,16.73,54,9.1,297.8,346.5,300.8
988.2,279,23.6,21.6,88,16.65,54,9.1,297.8,346.2,300.7
987.7,284,23.6,21.4,88,16.51,54,9.2,297.8,345.8,300.7
987.1,289,23.5,21.3,87,16.35,54,9.3,297.8,345.4,300.7
986.5,295,23.5,21.2,87,16.24,54,9.3,297.8,345.1,300.7
985.8,300,23.5,21.2,87,16.24,54,9.4,297.8,345.1,300.7
985.2,306,23.4,21.1,87,16.22,54,9.5,297.8,345.0,300.7
984.5,312,23.3,21.0,87,16.13,54,9.6,297.8,344.8,300.7
983.9,317,23.3,20.9,87,16.03,54,9.7,297.8,344.5,300.7
983.3,323,23.2,20.9,87,15.99,54,9.7,297.8,344.4,300.7
982.7,328,23.2,20.8,87,15.98,54,9.8,297.8,344.3,300.6
982.2,333,23.1,20.8,87,15.97,54,9.9,297.8,344.3,300.6
981.6,338,23.1,20.8,87,15.95,54,10.0,297.8,344.2,300.7
981.1,342,23.1,20.8,87,15.92,55,10.1,297.8,344.2,300.7
980.6,346,23.0,20.8,87,15.93,55,10.2,297.8,344.2,300.7
980.2,351,23.0,20.8,87,15.97,55,10.2,297.8,344.3,300.7
979.7,355,23.0,20.8,88,16.02,55,10.3,297.9,344.5,300.7
979.2,360,22.9,20.9,88,16.05,55,10.3,297.9,344.6,300.7
978.7,364,22.9,20.8,88,16.05,56,10.4,297.8,344.6,300.7
978.1,369,22.8,20.8,89,16.06,56,10.4,297.8,344.6,300.7
977.6,374,22.8,20.8,89,16.05,56,10.5,297.8,344.6,300.7
977.0,379,22.7,20.8,89,16.04,56,10.5,297.8,344.5,300.7
976.5,384,22.7,20.8,89,16.02,56,10.6,297.8,344.5,300.7
975.9,389,22.6,20.8,89,16.00,56,10.6,297.8,344.4,300.7
975.3,394,22.6,20.7,89,15.97,57,10.6,297.8,344.3,300.7
974.7,399,22.5,20.7,89,15.94,57,10.7,297.8,344.2,300.7
974.2,404,22.5,20.7,89,15.93,57,10.7,297.8,344.2,300.7
973.6,409,22.4,20.6,90,15.93,57,10.7,297.8,344.2,300.7
973.0,415,22.4,20.6,90,15.92,57,10.8,297.8,344.2,300.7
972.5,420,22.3,20.6,90,15.90,57,10.8,297.8,344.1,300.7
971.9,425,22.3,20.6,90,15.91,58,10.8,297.8,344.2,300.7
971.4,429,22.2,20.6,91,15.94,58,10.8,297.8,344.2,300.7
970.8,434,22.2,20.6,91,15.97,58,10.9,297.9,344.3,300.7
970.3,439,22.1,20.6,91,15.95,58,10.9,297.8,344.3,300.7
969.7,444,22.1,20.6,91,15.90,58,10.9,297.9,344.2,300.7
969.1,450,22.1,20.5,91,15.85,59,11.0,297.9,344.0,300.7
968.5,455,22.0,20.5,91,15.82,59,11.0,297.9,343.9,300.7
967.9,461,22.0,20.4,91,15.81,59,11.0,297.9,343.9,300.7
967.3,466,21.9,20.4,91,15.81,59,11.0,297.9,343.9,300.7
966.6,472,21.9,20.4,91,15.82,60,11.1,297.9,343.9,300.7
965.9,479,21.8,20.4,92,15.83,60,11.1,297.9,344.0,300.7
965.2,485,21.8,20.4,92,15.83,60,11.1,297.9,344.0,300.7
964.5,492,21.7,20.4,92,15.84,61,11.2,297.9,344.0,300.7
963.7,498,21.6,20.4,92,15.81,61,11.2,297.9,344.0,300.7
963.0,505,21.6,20.3,92,15.73,62,11.2,297.9,343.7,300.7
962.2,512,21.5,20.1,92,15.58,62,11.2,297.9,343.3,300.7
961.4,519,21.5,19.9,91,15.37,63,11.2,298.0,342.7,300.7
960.7,526,21.5,19.7,89,15.17,63,11.2,298.0,342.2,300.7
959.9,533,21.4,19.6,89,15.12,64,11.2,298.0,342.1,300.7
959.1,540,21.4,19.6,90,15.14,64,11.2,298.1,342.2,300.8
958.4,547,21.3,19.6,90,15.18,65,11.2,298.1,342.3,300.8
957.7,553,21.3,19.7,91,15.28,65,11.2,298.1,342.6,300.8
956.9,560,21.2,19.9,92,15.44,66,11.2,298.1,343.1,300.8
956.2,567,21.1,20.0,94,15.60,66,11.2,298.0,343.5,300.8
955.5,573,21.0,20.1,94,15.65,67,11.2,298.0,343.6,300.8
954.8,579,20.9,20.0,94,15.59,67,11.2,298.0,343.4,300.8
954.1,585,20.9,19.9,94,15.54,68,11.2,298.0,343.3,300.8
953.5,591,20.8,19.9,95,15.57,68,11.2,298.0,343.4,300.8
952.8,597,20.8,20.0,95,15.63,69,11.2,298.0,343.5,300.8
952.2,603,20.7,20.0,96,15.64,70,11.2,298.0,343.5,300.8
951.6,609,20.6,20.0,96,15.63,70,11.2,298.0,343.5,300.8
950.9,615,20.6,20.0,96,15.63,71,11.2,298.0,343.5,300.8
950.3,620,20.5,20.0,97,15.65,71,11.2,297.9,343.5,300.7
949.7,626,20.4,20.0,97,15.68,72,11.2,297.9,343.6,300.7
949.1,631,20.4,20.0,98,15.74,72,11.2,297.9,343.8,300.7
948.6,636,20.3,20.1,98,15.76,72,11.2,297.9,343.8,300.7
948.0,641,20.3,20.0,98,15.73,73,11.2,297.9,343.7,300.7
947.6,645,20.2,20.0,98,15.70,73,11.2,297.9,343.6,300.7
947.1,650,20.2,19.9,98,15.68,74,11.2,297.9,343.6,300.7
946.7,654,20.2,20.0,99,15.69,74,11.2,298.0,343.7,300.8
946.2,658,20.2,20.0,99,15.76,74,11.2,298.0,343.9,300.8
945.8,661,20.2,20.1,99,15.81,74,11.2,298.0,344.1,300.8
945.4,665,20.1,20.0,99,15.80,75,11.3,298.0,344.1,300.8
945.0,669,20.1,20.0,100,15.79,75,11.3,298.0,344.0,300.8
944.5,673,20.1,20.0,100,15.80,75,11.3,298.0,344.1,300.9
944.0,678,20.1,20.0,100,15.78,75,11.4,298.1,344.0,300.9
943.5,682,20.0,19.9,100,15.68,75,11.4,298.0,343.7,300.8
943.0,687,19.9,19.8,99,15.58,75,11.5,298.0,343.4,300.8
942.5,692,19.8,19.7,99,15.50,75,11.5,298.0,343.2,300.8
942.0,696,19.8,19.6,99,15.44,76,11.6,298.0,343.0,300.8
941.5,701,19.8,19.6,99,15.42,76,11.7,298.0,343.0,300.8
941.0,706,19.8,19.6,99,15.42,75,11.7,298.1,343.0,300.8
940.5,711,19.7,19.5,99,15.39,75,11.8,298.1,342.9,300.8
939.9,715,19.7,19.5,99,15.31,75,11.9,298.1,342.7,300.8
939.4,720,19.6,19.4,98,15.23,75,12.0,298.1,342.5,300.8
938.9,725,19.6,19.3,98,15.16,75,12.1,298.1,342.3,300.8
938.4,729,19.6,19.2,98,15.08,75,12.2,298.1,342.0,300.8
938.0,734,19.5,19.1,97,14.96,75,12.3,298.1,341.7,300.8
937.5,738,19.5,18.9,96,14.80,74,12.3,298.1,341.3,300.7
937.1,742,19.5,18.6,95,14.57,74,12.4,298.1,340.6,300.7
936.6,746,19.5,18.3,93,14.30,74,12.5,298.1,339.8,300.7
936.1,751,19.5,18.1,92,14.14,74,12.6,298.2,339.4,300.7
935.6,755,19.5,18.2,92,14.16,73,12.7,298.3,339.6,300.8
935.2,759,19.5,18.2,92,14.24,73,12.7,298.3,339.9,300.9
934.7,764,19.5,18.2,92,14.23,73,12.8,298.4,339.9,300.9
934.2,768,19.5,18.1,92,14.11,72,12.9,298.4,339.6,300.9
933.8,772,19.5,17.9,91,13.98,72,12.9,298.4,339.3,300.9
933.4,776,19.5,17.8,90,13.88,72,12.9,298.5,339.0,301.0
933.0,780,19.5,17.7,89,13.78,71,13.0,298.5,338.8,301.0
932.6,783,19.6,17.6,88,13.66,71,13.0,298.6,338.6,301.1
932.2,787,19.7,17.5,87,13.58,71,13.0,298.8,338.5,301.2
931.7,791,19.7,17.4,87,13.57,70,13.0,298.8,338.5,301.3
931.3,795,19.7,17.5,87,13.61,70,13.0,298.8,338.7,301.3
930.8,799,19.6,17.5,88,13.66,70,13.0,298.8,338.8,301.3
930.4,804,19.6,17.5,88,13.68,69,13.0,298.8,338.9,301.3
929.8,809,19.6,17.5,88,13.69,69,13.0,298.9,338.9,301.3
929.3,814,19.5,17.5,88,13.71,69,13.0,298.9,339.0,301.3
928.8,818,19.5,17.6,89,13.72,68,13.0,298.9,339.1,301.3
928.3,823,19.4,17.5,88,13.67,68,13.0,298.9,338.9,301.3
927.8,828,19.4,17.4,88,13.58,67,12.9,298.9,338.7,301.3
927.3,832,19.4,17.3,87,13.51,67,12.9,298.9,338.5,301.4
926.9,836,19.4,17.3,88,13.50,67,12.9,298.9,338.4,301.3
926.5,840,19.3,17.2,88,13.48,66,12.9,298.9,338.4,301.3
926.0,844,19.3,17.2,88,13.42,66,12.9,298.9,338.2,301.3
925.6,848,19.3,17.0,87,13.32,66,12.9,299.0,338.0,301.3
925.2,852,19.3,16.9,86,13.21,65,12.9,299.0,337.7,301.4
925.0,854,19.3,16.9,86,13.17,65,12.9,299.1,337.7,301.4
924.8,855,19.4,16.8,85,13.14,65,12.9,299.1,337.6,301.5
924.4,859,19.4,16.8,85,13.12,65,12.9,299.2,337.7,301.5
924.0,863,19.4,16.8,85,13.12,65,12.9,299.2,337.7,301.6
923.6,866,19.4,16.8,85,13.10,64,12.9,299.2,337.7,301.6
923.2,870,19.3,16.7,85,13.09,64,12.9,299.2,337.6,301.6
922.9,874,19.3,16.7,85,13.07,64,12.9,299.2,337.6,301.6
922.4,878,19.3,16.6,85,13.02,64,12.9,299.2,337.5,301.6
922.0,881,19.3,16.6,84,12.96,64,12.9,299.3,337.3,301.6
921.6,885,19.3,16.5,84,12.94,64,12.9,299.3,337.3,301.6
921.2,889,19.2,16.5,84,12.95,64,12.9,299.3,337.3,301.6
920.7,894,19.2,16.5,85,12.96,63,12.9,299.3,337.4,301.7
920.3,898,19.1,16.5,85,12.94,63,12.9,299.3,337.3,301.6
919.8,902,19.1,16.4,84,12.86,63,12.9,299.3,337.1,301.6
919.4,907,19.1,16.2,83,12.74,63,12.9,299.4,336.8,301.7
918.9,911,19.1,16.1,83,12.64,63,12.9,299.4,336.6,301.7
918.4,915,19.1,16.1,82,12.61,63,12.9,299.5,336.5,301.7
917.9,920,19.1,16.1,83,12.62,63,12.9,299.5,336.6,301.8
917.4,925,19.1,16.1,83,12.62,63,12.8,299.5,336.6,301.8
916.9,929,19.0,16.1,83,12.63,63,12.8,299.5,336.6,301.8
916.4,934,19.0,16.1,83,12.64,64,12.8,299.5,336.6,301.8
915.9,939,18.9,16.1,84,12.66,64,12.8,299.5,336.7,301.8
915.4,943,18.9,16.2,84,12.72,64,12.7,299.5,336.9,301.8
914.9,948,18.9,16.3,85,12.81,64,12.7,299.5,337.2,301.8
914.4,953,18.9,16.3,85,12.88,64,12.7,299.6,337.4,301.9
913.9,958,18.8,16.4,86,12.94,64,12.6,299.6,337.6,301.9
913.4,963,18.8,16.4,86,12.96,64,12.6,299.6,337.7,302.0
912.9,967,18.8,16.4,86,12.95,64,12.6,299.7,337.7,302.0
912.4,972,18.8,16.4,86,12.93,64,12.6,299.7,337.7,302.0
911.8,977,18.7,16.3,86,12.90,64,12.5,299.7,337.6,302.0
911.3,982,18.7,16.3,86,12.87,64,12.5,299.7,337.5,302.0
910.8,987,18.7,16.2,86,12.84,65,12.5,299.7,337.5,302.0
910.3,992,18.6,16.2,86,12.80,65,12.5,299.7,337.4,302.0
909.8,996,18.6,16.1,86,12.78,65,12.5,299.7,337.3,302.0
909.3,1001,18.6,16.1,86,12.77,65,12.4,299.7,337.3,302.0
908.8,1006,18.5,16.1,86,12.78,65,12.4,299.7,337.3,302.0
908.3,1010,18.5,16.1,86,12.80,65,12.4,299.8,337.4,302.1
907.8,1015,18.4,16.1,86,12.79,65,12.4,299.8,337.4,302.1
907.3,1020,18.4,16.0,86,12.73,65,12.4,299.8,337.2,302.0
906.8,1025,18.4,15.9,86,12.63,65,12.4,299.8,336.9,302.0
906.2,1030,18.3,15.8,85,12.56,65,12.4,299.8,336.7,302.0
905.7,1035,18.3,15.8,85,12.55,65,12.4,299.8,336.7,302.1
905.2,1040,18.3,15.8,86,12.57,65,12.4,299.8,336.8,302.1
904.8,1044,18.2,15.8,86,12.59,64,12.4,299.8,336.9,302.1
904.3,1049,18.2,15.9,86,12.64,64,12.3,299.8,337.0,302.1
903.8,1053,18.2,15.9,87,12.69,64,12.3,299.8,337.2,302.1
903.4,1058,18.1,16.0,87,12.73,64,12.3,299.8,337.3,302.1
902.9,1062,18.1,16.0,88,12.77,64,12.3,299.9,337.4,302.2
902.5,1066,18.1,16.0,88,12.80,64,12.3,299.9,337.5,302.2
902.0,1070,18.0,16.0,88,12.80,64,12.3,299.9,337.5,302.2
901.6,1075,18.0,16.0,88,12.78,64,12.3,299.9,337.5,302.2
901.1,1079,18.0,16.0,88,12.76,64,12.3,299.9,337.4,302.2
900.7,1083,17.9,15.9,88,12.75,64,12.3,299.9,337.4,302.2
900.2,1088,17.9,15.9,88,12.76,64,12.3,299.9,337.5,302.2
899.7,1092,17.9,15.9,88,12.74,64,12.3,299.9,337.4,302.2
899.2,1097,17.8,15.9,88,12.70,64,12.3,299.9,337.3,302.2
898.8,1101,17.8,15.8,88,12.67,64,12.3,299.9,337.2,302.2
898.3,1106,17.8,15.8,88,12.66,64,12.3,300.0,337.2,302.2
897.8,1110,17.7,15.8,89,12.69,64,12.2,300.0,337.3,302.3
897.4,1115,17.7,15.9,89,12.73,64,12.2,300.0,337.4,302.3
896.9,1119,17.6,15.9,89,12.74,65,12.2,300.0,337.5,302.3
896.4,1124,17.6,15.8,89,12.72,65,12.2,300.0,337.4,302.3
896.0,1128,17.6,15.8,89,12.71,65,12.2,300.0,337.4,302.3
895.6,1132,17.5,15.8,90,12.72,65,12.2,300.0,337.4,302.3
895.1,1136,17.5,15.8,90,12.74,65,12.2,300.0,337.5,302.3
894.7,1141,17.4,15.8,90,12.74,66,12.2,300.0,337.5,302.3
894.2,1145,17.4,15.9,91,12.77,66,12.2,300.0,337.6,302.3
893.7,1150,17.4,15.9,91,12.82,66,12.2,300.0,337.7,302.3
893.2,1154,17.3,15.9,92,12.86,66,12.2,300.0,337.9,302.3
892.7,1159,17.3,15.9,92,12.86,67,12.2,300.0,337.8,302.3
892.3,1164,17.2,15.9,92,12.82,67,12.2,300.0,337.7,302.3
891.8,1168,17.2,15.8,92,12.77,67,12.2,300.0,337.6,302.3
891.3,1173,17.1,15.8,92,12.74,67,12.3,300.0,337.5,302.3
890.9,1177,17.1,15.8,92,12.75,67,12.3,300.0,337.5,302.3
890.5,1181,17.1,15.8,92,12.76,67,12.3,300.0,337.6,302.3
890.1,1185,17.0,15.8,92,12.78,67,12.4,300.0,337.6,302.3
889.7,1189,17.0,15.8,93,12.81,67,12.4,300.0,337.7,302.3
889.2,1193,17.0,15.9,93,12.86,67,12.5,300.0,337.9,302.3
888.7,1198,16.9,15.9,94,12.90,67,12.5,300.0,338.0,302.3
888.2,1202,16.9,15.9,94,12.89,67,12.6,300.0,338.0,302.4
887.7,1208,16.9,15.8,94,12.86,67,12.7,300.0,337.9,302.4
887.2,1213,16.8,15.8,94,12.83,67,12.8,300.0,337.8,302.4
886.6,1218,16.8,15.7,94,12.79,67,12.8,300.1,337.7,302.4
886.1,1223,16.7,15.7,93,12.73,67,12.9,300.1,337.6,302.4
885.6,1228,16.7,15.6,93,12.65,67,13.0,300.1,337.3,302.4
885.1,1233,16.7,15.5,93,12.61,67,13.1,300.1,337.3,302.4
884.6,1237,16.7,15.5,93,12.60,67,13.2,300.1,337.2,302.4
884.2,1242,16.6,15.5,93,12.62,67,13.3,300.1,337.3,302.4
883.7,1246,16.6,15.5,93,12.66,67,13.4,300.2,337.5,302.4
883.3,1251,16.6,15.6,94,12.68,67,13.4,300.2,337.5,302.4
882.8,1255,16.5,15.6,94,12.69,67,13.5,300.2,337.6,302.5
882.4,1259,16.5,15.6,94,12.70,67,13.6,300.2,337.6,302.5
881.9,1263,16.5,15.6,94,12.70,67,13.7,300.2,337.6,302.5
881.5,1267,16.4,15.5,94,12.70,67,13.7,300.2,337.6,302.5
881.1,1271,16.4,15.5,95,12.68,67,13.8,300.2,337.6,302.5
880.7,1275,16.4,15.4,94,12.61,67,13.8,300.2,337.4,302.5
880.4,1279,16.3,15.3,93,12.50,67,13.9,300.2,337.1,302.5
880.0,1282,16.3,15.1,93,12.38,68,13.9,300.2,336.7,302.5
879.6,1286,16.3,15.0,92,12.30,68,14.0,300.3,336.5,302.5
879.1,1290,16.3,15.0,92,12.29,68,14.0,300.3,336.6,302.6
878.7,1295,16.3,15.0,92,12.30,69,14.0,300.4,336.6,302.6
878.3,1299,16.3,15.0,92,12.31,69,14.0,300.4,336.7,302.6
877.8,1304,16.3,15.0,92,12.27,69,14.0,300.4,336.6,302.6
877.3,1308,16.3,14.9,91,12.22,70,14.0,300.5,336.5,302.7
876.8,1313,16.3,14.8,91,12.17,70,14.0,300.5,336.5,302.7
876.3,1318,16.3,14.8,91,12.16,70,14.0,300.5,336.4,302.7
875.7,1324,16.2,14.8,91,12.15,71,14.0,300.6,336.4,302.8
875.2,1329,16.2,14.8,91,12.15,71,13.9,300.6,336.5,302.8
874.6,1334,16.1,14.8,91,12.16,71,13.9,300.6,336.5,302.8
874.1,1339,16.1,14.7,92,12.15,72,13.9,300.6,336.5,302.8
873.6,1345,16.0,14.7,92,12.12,72,13.8,300.6,336.4,302.8
873.0,1350,16.0,14.6,92,12.07,72,13.8,300.6,336.2,302.7
872.5,1355,15.9,14.6,92,12.04,72,13.7,300.6,336.1,302.8
872.0,1360,15.9,14.6,92,12.03,72,13.7,300.6,336.1,302.8
871.6,1364,15.9,14.6,92,12.06,73,13.6,300.6,336.2,302.8
871.1,1369,15.8,14.6,92,12.09,73,13.6,300.6,336.3,302.8
870.6,1374,15.8,14.6,93,12.12,73,13.5,300.6,336.4,302.8
870.1,1379,15.8,14.7,93,12.14,73,13.5,300.6,336.5,302.8
869.6,1384,15.7,14.7,93,12.16,72,13.4,300.6,336.5,302.8
869.0,1389,15.7,14.6,94,12.15,72,13.4,300.6,336.5,302.8
868.5,1394,15.6,14.6,94,12.14,72,13.3,300.6,336.5,302.8
868.0,1399,15.6,14.6,94,12.12,72,13.3,300.6,336.5,302.8
867.5,1404,15.5,14.6,94,12.12,72,13.3,300.6,336.4,302.8
867.0,1409,15.5,14.6,94,12.13,72,13.2,300.6,336.5,302.8
866.5,1414,15.4,14.6,95,12.13,71,13.2,300.6,336.5,302.8
866.0,1419,15.4,14.6,95,12.14,71,13.1,300.6,336.5,302.8
865.5,1423,15.4,14.6,95,12.16,71,13.1,300.7,336.6,302.9
865.0,1428,15.3,14.6,96,12.19,71,13.1,300.7,336.7,302.9
864.5,1433,15.3,14.6,96,12.21,70,13.0,300.7,336.7,302.9
864.0,1438,15.2,14.6,96,12.20,70,13.0,300.7,336.7,302.9
863.5,1444,15.2,14.6,96,12.16,70,13.0,300.7,336.6,302.9
863.0,1449,15.1,14.5,96,12.11,70,12.9,300.7,336.4,302.8
862.4,1454,15.1,14.5,96,12.10,70,12.9,300.7,336.4,302.8
861.9,1459,15.0,14.5,97,12.12,70,12.9,300.7,336.5,302.9
861.4,1464,15.0,14.5,97,12.15,69,12.8,300.7,336.5,302.9
860.9,1469,14.9,14.5,97,12.15,69,12.8,300.7,336.5,302.9
860.4,1474,14.9,14.5,97,12.13,69,12.8,300.7,336.5,302.9
859.9,1479,14.8,14.4,97,12.10,69,12.7,300.7,336.4,302.9
859.4,1483,14.8,14.4,97,12.07,69,12.7,300.7,336.3,302.9
859.0,1488,14.8,14.3,97,12.04,69,12.6,300.7,336.2,302.9
858.5,1493,14.7,14.3,97,12.01,69,12.6,300.7,336.2,302.9
858.0,1498,14.7,14.2,97,11.98,69,12.5,300.7,336.1,302.9
857.5,1503,14.6,14.2,97,11.96,69,12.4,300.7,336.0,302.9
856.9,1508,14.6,14.2,97,11.93,69,12.4,300.7,336.0,302.9
856.4,1513,14.6,14.1,97,11.90,69,12.3,300.7,335.9,302.9
855.9,1518,14.5,14.1,97,11.88,69,12.3,300.8,335.9,302.9
855.4,1524,14.5,14.0,97,11.87,69,12.2,300.8,335.9,302.9
854.9,1529,14.5,14.0,97,11.86,69,12.1,300.8,335.8,302.9
854.3,1534,14.4,14.0,97,11.84,70,12.1,300.8,335.8,302.9
853.8,1539,14.4,14.0,97,11.83,70,12.0,300.8,335.8,302.9
853.3,1544,14.3,14.0,98,11.83,70,12.0,300.8,335.8,302.9
852.8,1550,14.3,13.9,98,11.83,70,11.9,300.8,335.8,302.9
852.2,1555,14.2,13.9,98,11.81,70,11.9,300.8,335.7,303.0
851.7,1560,14.2,13.9,98,11.79,70,11.8,300.8,335.7,303.0
851.2,1565,14.2,13.9,98,11.79,70,11.8,300.8,335.7,303.0
850.7,1570,14.1,13.9,98,11.78,70,11.7,300.8,335.7,303.0
850.2,1575,14.1,13.8,98,11.77,70,11.7,300.9,335.7,303.0
850.0,1577,14.1,13.8,98,11.76,70,11.7,300.9,335.7,303.0
849.6,1581,14.0,13.8,98,11.75,70,11.7,300.9,335.6,303.0
849.1,1586,14.0,13.7,98,11.72,70,11.7,300.9,335.6,303.0
848.5,1591,14.0,13.7,98,11.70,70,11.6,301.0,335.6,303.1
848.0,1597,14.0,13.6,98,11.65,70,11.6,301.0,335.5,303.1
847.5,1602,14.0,13.6,98,11.62,70,11.6,301.0,335.4,303.1
847.0,1607,13.9,13.6,98,11.60,70,11.7,301.0,335.4,303.1
846.5,1612,13.9,13.5,98,11.60,70,11.7,301.0,335.4,303.1
845.9,1617,13.9,13.5,98,11.61,70,11.7,301.1,335.4,303.2
845.4,1623,13.8,13.5,98,11.60,70,11.7,301.1,335.5,303.2
844.9,1628,13.8,13.5,98,11.57,70,11.8,301.1,335.4,303.2
844.4,1633,13.8,13.4,97,11.53,70,11.8,301.2,335.3,303.3
843.9,1638,13.8,13.3,97,11.46,70,11.9,301.2,335.2,303.3
843.4,1643,13.8,13.1,95,11.31,70,11.9,301.3,334.8,303.3
842.9,1648,13.9,12.8,93,11.11,70,12.0,301.4,334.4,303.4
842.4,1653,14.0,12.6,91,10.92,70,12.1,301.6,334.0,303.6
841.9,1658,14.1,12.4,89,10.80,70,12.2,301.8,333.9,303.7
841.4,1663,14.2,12.3,88,10.73,70,12.3,301.8,333.8,303.8
841.0,1667,14.2,12.1,88,10.64,70,12.3,301.9,333.6,303.8
840.5,1672,14.2,12.0,87,10.54,70,12.4,302.0,333.4,303.9
840.1,1676,14.2,11.9,86,10.47,70,12.5,302.1,333.3,304.0
839.7,1681,14.3,11.8,85,10.44,69,12.6,302.1,333.3,304.0
839.2,1685,14.3,11.8,85,10.44,69,12.7,302.2,333.4,304.1
838.7,1690,14.3,11.9,86,10.48,69,12.8,302.2,333.5,304.1
838.2,1695,14.2,11.9,86,10.51,69,12.9,302.2,333.6,304.1
837.7,1700,14.2,11.9,86,10.49,69,12.9,302.2,333.5,304.1
837.2,1705,14.1,11.7,85,10.37,69,13.0,302.2,333.2,304.1
836.7,1711,14.1,11.4,84,10.20,69,13.1,302.3,332.8,304.2
836.1,1716,14.2,11.2,82,10.06,69,13.1,302.4,332.5,304.3
835.6,1722,14.2,11.1,81,9.98,69,13.2,302.5,332.4,304.3
835.1,1727,14.2,11.1,81,9.96,69,13.2,302.5,332.3,304.3
834.6,1732,14.1,11.1,82,9.97,69,13.2,302.5,332.3,304.3
834.1,1737,14.1,11.1,82,9.98,69,13.3,302.5,332.4,304.3
833.6,1741,14.1,11.0,82,9.96,69,13.3,302.5,332.3,304.4
833.2,1746,14.0,11.0,82,9.94,69,13.3,302.6,332.3,304.4
832.7,1751,14.0,10.9,82,9.91,69,13.3,302.6,332.2,304.4
832.3,1755,14.0,10.9,81,9.87,69,13.3,302.6,332.2,304.4
831.8,1760,14.0,10.8,81,9.85,68,13.3,302.6,332.1,304.4
831.4,1764,13.9,10.8,82,9.86,68,13.3,302.6,332.2,304.4
