PRES,HGHT,TEMP,DWPT,RELH,MIXR,DRCT,SPED,THTA,THTE,THTV
1011.1,31,24.1,20.5,80,15.14,91,4.0,296.3,340.1,299.0
1010.6,35,24.5,20.1,76,14.84,84,2.8,296.8,339.8,299.4
1009.9,41,24.8,20.1,75,14.78,79,2.4,297.1,340.0,299.7
1009.3,46,24.9,20.0,74,14.70,78,2.5,297.3,340.0,299.9
1008.7,51,24.9,19.9,74,14.63,79,2.6,297.3,339.8,299.9
1008.2,56,24.9,19.8,74,14.58,79,2.8,297.3,339.7,299.9
1007.4,63,24.8,19.8,74,14.56,80,3.0,297.3,339.6,299.9
1006.8,68,24.8,19.8,74,14.55,81,3.1,297.3,339.6,299.9
1006.2,73,24.7,19.7,74,14.53,81,3.3,297.3,339.6,299.9
1005.6,79,24.6,19.7,74,14.51,81,3.4,297.3,339.5,299.9
1005.0,84,24.6,19.7,74,14.48,82,3.5,297.3,339.4,299.9
1004.5,88,24.5,19.6,74,14.45,82,3.7,297.3,339.3,299.9
1003.9,93,24.5,19.6,74,14.46,83,3.8,297.3,339.4,299.9
1003.4,98,24.5,19.6,74,14.48,83,3.9,297.3,339.4,299.9
1002.9,102,24.4,19.6,75,14.48,84,4.0,297.3,339.4,299.9
1002.4,107,24.4,19.6,75,14.46,84,4.0,297.3,339.4,299.9
1001.9,111,24.3,19.6,75,14.45,85,4.1,297.3,339.3,299.9
1001.3,116,24.3,19.6,75,14.47,85,4.2,297.3,339.4,299.9
1000.8,121,24.3,19.6,75,14.50,85,4.2,297.3,339.5,299.9
1000.3,125,24.2,19.6,76,14.54,86,4.3,297.3,339.6,299.9
1000.0,128,24.2,19.6,76,14.55,86,4.3,297.3,339.6,299.9
999.7,130,24.2,19.6,76,14.55,86,4.3,297.3,339.6,299.9
999.2,135,24.1,19.6,76,14.53,87,4.4,297.3,339.6,299.9
998.6,140,24.1,19.6,76,14.53,87,4.4,297.3,339.6,299.9
998.1,145,24.0,19.6,76,14.57,87,4.4,297.3,339.7,299.9
997.5,149,24.0,19.7,77,14.60,87,4.4,297.3,339.8,299.9
996.9,155,23.9,19.7,77,14.64,88,4.4,297.3,339.9,299.9
996.4,160,23.9,19.7,77,14.64,88,4.4,297.3,339.9,299.9
995.8,165,23.8,19.7,77,14.62,88,4.4,297.3,339.8,299.9
995.2,170,23.8,19.6,78,14.62,88,4.4,297.3,339.8,299.9
994.6,175,23.7,19.6,78,14.61,88,4.4,297.3,339.8,299.9
994.0,181,23.7,19.6,78,14.60,88,4.4,297.3,339.8,299.9
993.3,186,23.6,19.6,78,14.58,87,4.3,297.3,339.7,299.9
992.7,192,23.6,19.5,78,14.56,87,4.3,297.3,339.7,299.9
992.1,197,23.5,19.5,78,14.56,87,4.3,297.3,339.7,299.9
991.4,203,23.5,19.5,79,14.58,86,4.2,297.3,339.7,299.9
990.8,209,23.4,19.5,79,14.57,86,4.2,297.3,339.7,299.9
990.2,214,23.3,19.5,79,14.54,85,4.1,297.3,339.6,299.9
989.5,220,23.3,19.5,79,14.55,85,4.1,297.3,339.6,299.9
989.0,225,23.3,19.5,79,14.57,84,4.1,297.3,339.7,299.9
988.4,230,23.2,19.5,80,14.60,83,4.0,297.3,339.8,299.9
987.8,235,23.1,19.5,80,14.63,83,4.0,297.3,339.9,299.9
987.3,240,23.1,19.5,80,14.63,82,3.9,297.3,339.9,299.9
986.7,245,23.1,19.6,81,14.70,81,3.9,297.4,340.1,300.0
986.2,250,23.0,19.8,82,14.87,80,3.9,297.3,340.6,300.0
985.6,255,23.0,19.9,83,14.96,80,3.8,297.3,340.8,300.0
985.0,260,22.9,19.8,83,14.92,79,3.8,297.3,340.7,300.0
984.5,265,22.8,19.7,83,14.83,78,3.8,297.3,340.4,299.9
983.9,270,22.8,19.5,82,14.68,77,3.8,297.3,340.0,299.9
983.3,275,22.8,19.4,81,14.54,76,3.7,297.3,339.6,299.9
982.8,280,22.7,19.3,81,14.51,76,3.7,297.3,339.5,299.9
982.2,285,22.7,19.4,82,14.58,75,3.7,297.4,339.7,299.9
981.6,290,22.6,19.6,83,14.74,74,3.7,297.3,340.2,300.0
981.0,295,22.6,19.6,84,14.83,74,3.7,297.3,340.5,300.0
980.4,301,22.5,19.7,84,14.85,73,3.8,297.3,340.5,300.0
979.8,306,22.4,19.6,84,14.84,72,3.8,297.3,340.5,300.0
979.2,312,22.4,19.6,84,14.78,71,3.8,297.3,340.3,299.9
978.5,318,22.3,19.5,84,14.71,71,3.8,297.3,340.1,299.9
977.8,324,22.3,19.4,84,14.65,70,3.9,297.3,339.9,300.0
977.2,330,22.2,19.4,84,14.64,69,3.9,297.3,339.9,300.0
976.5,336,22.2,19.4,84,14.65,68,4.0,297.3,339.9,300.0
975.9,341,22.1,19.3,84,14.59,68,4.0,297.3,339.8,299.9
975.2,347,22.1,19.2,84,14.53,67,4.0,297.3,339.6,299.9
974.6,353,22.0,19.2,84,14.51,66,4.1,297.3,339.5,299.9
974.0,358,22.0,19.2,84,14.54,65,4.1,297.3,339.6,299.9
973.4,363,21.9,19.2,85,14.54,64,4.2,297.4,339.6,299.9
972.8,368,21.9,19.1,84,14.49,63,4.3,297.4,339.5,299.9
972.3,373,21.8,19.1,85,14.46,62,4.3,297.3,339.4,299.9
971.8,378,21.8,19.1,85,14.47,61,4.4,297.3,339.4,299.9
971.3,382,21.7,19.1,85,14.43,60,4.4,297.3,339.3,299.9
970.8,387,21.7,19.0,85,14.38,59,4.5,297.4,339.2,299.9
970.3,391,21.7,19.0,85,14.40,59,4.5,297.4,339.2,299.9
969.9,395,21.6,19.1,85,14.47,58,4.6,297.4,339.4,299.9
969.5,399,21.6,19.2,86,14.57,57,4.6,297.4,339.7,300.0
969.0,402,21.5,19.2,87,14.61,56,4.7,297.4,339.8,300.0
968.6,406,21.5,19.2,86,14.57,56,4.7,297.3,339.7,299.9
968.2,410,21.5,19.1,86,14.49,55,4.8,297.4,339.5,299.9
967.8,414,21.4,19.0,86,14.45,55,4.8,297.4,339.4,299.9
967.4,418,21.4,19.0,86,14.44,55,4.8,297.4,339.3,299.9
966.9,421,21.4,19.0,86,14.44,54,4.8,297.4,339.3,299.9
966.5,425,21.3,19.0,86,14.43,54,4.9,297.4,339.3,299.9
966.0,429,21.3,19.0,87,14.47,54,4.9,297.4,339.4,300.0
965.6,433,21.3,19.0,87,14.50,55,4.9,297.4,339.5,300.0
965.1,438,21.2,19.1,88,14.57,55,4.9,297.4,339.7,300.0
964.7,442,21.2,19.2,88,14.66,56,4.9,297.4,340.0,300.0
964.2,446,21.1,19.2,89,14.72,56,4.9,297.4,340.2,300.0
963.7,451,21.1,19.2,89,14.73,57,4.9,297.4,340.2,300.0
963.1,456,21.0,19.1,89,14.64,58,4.8,297.4,339.9,300.0
962.6,460,21.0,19.0,89,14.56,58,4.8,297.4,339.7,300.0
962.0,465,21.0,19.1,89,14.58,59,4.8,297.4,339.7,300.0
961.5,470,20.9,19.1,90,14.67,60,4.8,297.4,340.0,300.0
960.9,476,20.9,19.2,90,14.74,62,4.8,297.4,340.2,300.0
960.3,481,20.8,19.2,91,14.78,63,4.8,297.4,340.3,300.0
959.8,486,20.7,19.3,91,14.81,64,4.8,297.3,340.4,300.0
959.2,491,20.7,19.3,92,14.81,65,4.7,297.3,340.4,300.0
958.6,497,20.6,19.2,92,14.77,66,4.7,297.3,340.3,300.0
958.0,502,20.6,19.1,91,14.69,67,4.7,297.3,340.0,300.0
957.4,507,20.5,19.0,91,14.62,68,4.7,297.3,339.8,299.9
956.8,513,20.5,19.0,91,14.60,69,4.7,297.4,339.8,300.0
956.2,518,20.4,19.0,91,14.61,71,4.7,297.4,339.8,300.0
955.6,523,20.4,19.0,92,14.64,71,4.8,297.4,339.9,300.0
955.0,529,20.3,19.0,92,14.68,72,4.8,297.4,340.0,300.0
954.4,534,20.3,19.0,93,14.69,73,4.8,297.4,340.1,300.0
953.8,540,20.2,19.0,93,14.69,74,4.8,297.4,340.1,300.0
953.2,545,20.2,19.0,93,14.69,75,4.8,297.4,340.1,300.0
952.6,551,20.1,19.0,93,14.70,75,4.8,297.4,340.1,300.0
952.0,557,20.1,19.0,94,14.69,76,4.9,297.4,340.1,300.0
951.4,562,20.0,19.0,94,14.67,76,4.9,297.4,340.0,300.0
950.7,568,20.0,19.0,94,14.66,77,4.9,297.4,340.0,300.0
950.1,574,19.9,18.9,94,14.63,77,5.0,297.4,339.9,300.0
949.5,579,19.8,18.8,94,14.53,78,5.0,297.4,339.6,299.9
948.9,585,19.8,18.7,93,14.43,78,5.0,297.4,339.3,299.9
948.3,590,19.8,18.7,93,14.43,78,5.1,297.4,339.3,300.0
947.7,596,19.7,18.7,94,14.47,78,5.1,297.4,339.5,300.0
947.1,601,19.7,18.7,94,14.50,79,5.2,297.4,339.6,300.0
946.5,607,19.6,18.7,94,14.46,79,5.2,297.4,339.4,300.0
945.9,612,19.6,18.6,94,14.36,79,5.2,297.4,339.2,300.0
945.3,618,19.5,18.5,94,14.29,79,5.3,297.4,339.0,300.0
944.7,623,19.5,18.4,94,14.27,79,5.3,297.4,338.9,300.0
944.1,629,19.5,18.4,93,14.22,80,5.4,297.4,338.8,300.0
943.5,634,19.4,18.3,93,14.18,80,5.4,297.5,338.7,300.0
942.8,640,19.4,18.2,93,14.13,80,5.4,297.5,338.6,300.0
942.3,645,19.3,18.1,93,14.03,80,5.5,297.5,338.3,300.0
941.7,651,19.3,17.9,92,13.85,80,5.5,297.5,337.7,299.9
941.1,656,19.2,17.7,91,13.68,80,5.5,297.5,337.3,299.9
940.6,661,19.2,17.6,90,13.57,81,5.6,297.5,337.0,299.9
940.0,666,19.2,17.5,90,13.52,81,5.6,297.6,336.9,300.0
939.5,671,19.2,17.5,90,13.47,81,5.6,297.6,336.8,300.0
938.9,676,19.2,17.3,89,13.35,81,5.7,297.6,336.5,300.0
938.4,681,19.2,17.1,88,13.16,82,5.7,297.7,336.0,300.0
937.8,686,19.2,16.8,86,12.93,82,5.7,297.8,335.4,300.1
937.3,691,19.2,16.6,85,12.74,82,5.8,297.8,335.0,300.1
936.7,696,19.2,16.4,84,12.60,82,5.8,297.9,334.6,300.1
936.2,701,19.2,16.2,83,12.46,83,5.8,297.9,334.3,300.1
935.6,707,19.2,16.1,82,12.41,83,5.8,298.0,334.2,300.2
935.0,712,19.2,16.1,82,12.40,83,5.8,298.0,334.2,300.2
934.4,717,19.2,16.1,82,12.40,83,5.9,298.1,334.3,300.3
933.8,723,19.2,16.1,82,12.41,83,5.9,298.1,334.3,300.3
933.2,729,19.1,16.1,83,12.43,84,5.9,298.1,334.4,300.3
932.6,735,19.1,16.1,83,12.45,84,5.9,298.1,334.5,300.4
931.9,741,19.1,16.1,83,12.43,84,5.9,298.1,334.5,300.4
931.3,747,19.0,16.0,83,12.41,84,5.9,298.2,334.4,300.4
930.6,753,19.0,16.0,83,12.39,84,5.9,298.2,334.4,300.4
930.0,759,18.9,15.9,83,12.33,84,5.8,298.2,334.2,300.4
929.3,764,18.9,15.8,82,12.25,84,5.8,298.2,334.1,300.4
928.7,770,18.9,15.6,81,12.12,84,5.8,298.3,333.7,300.4
928.1,776,18.9,15.5,80,11.98,85,5.8,298.3,333.4,300.5
927.5,781,18.9,15.3,80,11.86,85,5.7,298.4,333.1,300.5
927.0,787,18.9,15.2,79,11.83,84,5.7,298.4,333.1,300.6
926.4,792,18.9,15.3,79,11.85,84,5.7,298.5,333.2,300.6
925.9,797,18.9,15.3,79,11.85,84,5.6,298.5,333.3,300.7
925.3,802,18.9,15.2,79,11.84,84,5.6,298.6,333.3,300.7
925.0,805,18.9,15.2,79,11.83,84,5.6,298.6,333.2,300.7
924.8,806,18.8,15.2,79,11.81,84,5.5,298.6,333.2,300.7
924.3,811,18.8,15.1,79,11.78,84,5.4,298.6,333.1,300.7
923.8,816,18.8,15.1,79,11.75,84,5.4,298.6,333.1,300.7
923.2,821,18.8,15.0,79,11.70,84,5.3,298.6,333.0,300.7
922.7,826,18.7,15.0,79,11.67,84,5.3,298.7,332.9,300.8
922.2,831,18.7,14.9,79,11.65,84,5.2,298.7,332.9,300.8
921.7,835,18.7,14.9,79,11.63,84,5.2,298.7,332.8,300.8
921.2,840,18.6,14.9,79,11.62,84,5.1,298.7,332.8,300.8
920.7,845,18.6,14.9,79,11.61,84,5.1,298.7,332.8,300.8
920.1,850,18.6,14.8,79,11.61,84,5.0,298.7,332.8,300.8
919.6,855,18.5,14.8,79,11.60,84,5.0,298.7,332.7,300.8
919.1,860,18.5,14.8,79,11.60,84,4.9,298.7,332.8,300.8
918.5,865,18.4,14.8,79,11.62,84,4.9,298.8,332.8,300.8
917.9,871,18.4,14.9,80,11.66,84,4.9,298.8,333.0,300.9
917.4,876,18.4,15.0,80,11.74,84,4.9,298.9,333.3,301.0
916.8,882,18.4,15.1,81,11.85,84,4.8,298.9,333.7,301.0
916.1,887,18.4,15.1,81,11.90,85,4.8,298.9,333.8,301.1
915.5,893,18.3,15.2,82,11.91,85,4.8,298.9,333.9,301.1
914.9,899,18.3,15.2,82,11.94,85,4.8,298.9,334.0,301.1
914.3,904,18.2,15.2,82,11.95,85,4.8,298.9,334.0,301.1
913.7,910,18.2,15.2,83,11.97,85,4.8,299.0,334.1,301.1
913.2,915,18.2,15.2,83,11.97,85,4.8,299.0,334.1,301.1
912.6,921,18.1,15.2,83,11.96,85,4.8,299.0,334.1,301.1
912.0,926,18.1,15.2,83,11.96,85,4.8,299.0,334.1,301.2
911.5,931,18.1,15.1,83,11.95,85,4.8,299.0,334.1,301.2
911.0,936,18.0,15.1,83,11.93,84,4.8,299.0,334.0,301.2
910.4,941,18.0,15.1,83,11.92,84,4.8,299.0,334.0,301.2
909.9,946,17.9,15.1,83,11.92,84,4.8,299.0,334.0,301.2
909.4,951,17.9,15.1,84,11.96,84,4.8,299.0,334.1,301.2
908.9,956,17.8,15.1,84,11.97,83,4.8,299.0,334.2,301.2
908.4,961,17.8,15.1,84,11.95,83,4.9,299.0,334.1,301.2
907.9,965,17.8,15.1,84,11.94,82,4.9,299.0,334.1,301.2
907.3,970,17.7,15.1,84,11.94,82,4.9,299.0,334.1,301.2
906.8,975,17.7,15.1,85,11.97,81,4.9,299.0,334.2,301.2
906.3,980,17.6,15.1,85,11.99,81,4.9,299.0,334.2,301.2
905.7,985,17.6,15.1,85,11.99,80,5.0,299.1,334.2,301.2
905.2,990,17.5,15.1,86,11.98,80,5.0,299.1,334.2,301.2
904.7,996,17.5,15.0,86,11.96,79,5.0,299.1,334.2,301.2
904.1,1001,17.4,14.9,85,11.88,79,5.1,299.1,333.9,301.2
903.6,1006,17.4,14.8,85,11.82,78,5.1,299.1,333.8,301.2
903.1,1011,17.4,14.8,85,11.81,78,5.2,299.1,333.8,301.2
902.5,1016,17.3,14.8,85,11.82,78,5.2,299.1,333.8,301.2
902.0,1021,17.3,14.8,85,11.80,77,5.3,299.1,333.8,301.2
901.5,1026,17.2,14.8,85,11.80,77,5.3,299.1,333.8,301.2
900.9,1031,17.2,14.8,86,11.82,77,5.4,299.1,333.8,301.2
900.4,1036,17.1,14.8,86,11.83,77,5.4,299.1,333.9,301.2
899.8,1042,17.1,14.8,86,11.84,76,5.5,299.1,333.9,301.2
899.2,1048,17.0,14.8,87,11.86,76,5.5,299.1,333.9,301.3
898.6,1053,17.0,14.8,87,11.87,76,5.5,299.1,334.0,301.3
898.0,1059,16.9,14.8,87,11.87,76,5.6,299.1,334.0,301.3
897.4,1065,16.9,14.8,88,11.88,76,5.6,299.1,334.0,301.3
896.7,1071,16.8,14.8,88,11.87,77,5.7,299.1,334.0,301.3
896.1,1077,16.8,14.7,88,11.84,77,5.7,299.1,333.9,301.3
895.5,1083,16.7,14.7,88,11.84,77,5.7,299.2,333.9,301.3
894.8,1089,16.7,14.7,88,11.86,77,5.7,299.2,334.0,301.3
894.2,1095,16.6,14.7,88,11.85,77,5.7,299.2,334.0,301.3
893.6,1101,16.6,14.7,89,11.82,77,5.7,299.2,333.9,301.3
893.0,1107,16.5,14.7,89,11.84,78,5.7,299.2,334.0,301.3
892.4,1113,16.5,14.7,89,11.85,78,5.7,299.2,334.0,301.3
891.8,1118,16.4,14.7,89,11.84,78,5.7,299.2,334.0,301.3
891.2,1124,16.4,14.6,89,11.83,78,5.7,299.2,334.0,301.3
890.7,1129,16.3,14.6,90,11.84,79,5.7,299.2,334.0,301.3
890.1,1134,16.3,14.6,90,11.85,79,5.7,299.2,334.0,301.3
889.6,1139,16.2,14.6,90,11.86,79,5.7,299.2,334.0,301.3
889.1,1144,16.2,14.7,91,11.88,79,5.7,299.2,334.1,301.3
888.5,1150,16.1,14.6,91,11.88,80,5.7,299.2,334.1,301.3
888.0,1155,16.1,14.6,91,11.88,80,5.7,299.2,334.1,301.3
887.4,1160,16.0,14.6,91,11.88,80,5.7,299.2,334.1,301.3
886.8,1166,16.0,14.6,92,11.88,80,5.6,299.2,334.1,301.4
886.3,1171,15.9,14.6,92,11.88,81,5.6,299.2,334.1,301.3
885.7,1177,15.9,14.6,92,11.87,81,5.6,299.2,334.1,301.4
885.1,1182,15.8,14.6,92,11.85,81,5.6,299.2,334.0,301.4
884.6,1188,15.8,14.5,92,11.84,81,5.6,299.2,334.0,301.3
884.0,1193,15.7,14.5,93,11.85,82,5.6,299.2,334.0,301.4
883.5,1198,15.7,14.5,93,11.84,82,5.6,299.2,334.0,301.4
882.9,1204,15.6,14.5,93,11.82,82,5.7,299.2,334.0,301.4
882.4,1209,15.6,14.5,93,11.82,82,5.7,299.2,334.0,301.4
881.9,1214,15.5,14.5,93,11.84,82,5.7,299.2,334.0,301.4
881.3,1219,15.5,14.5,94,11.85,82,5.7,299.2,334.1,301.4
880.8,1224,15.4,14.4,94,11.83,82,5.8,299.2,334.0,301.4
880.3,1229,15.4,14.4,94,11.80,82,5.8,299.2,333.9,301.4
879.8,1234,15.4,14.4,94,11.79,82,5.9,299.3,333.9,301.4
879.2,1239,15.3,14.4,94,11.82,82,6.0,299.3,334.0,301.4
878.7,1244,15.3,14.4,95,11.84,82,6.0,299.3,334.1,301.4
878.1,1250,15.2,14.5,95,11.88,82,6.1,299.3,334.2,301.4
877.6,1255,15.2,14.5,95,11.89,82,6.2,299.3,334.3,301.5
877.1,1260,15.2,14.4,95,11.87,82,6.3,299.4,334.2,301.5
876.5,1265,15.2,14.4,95,11.82,81,6.4,299.4,334.1,301.5
876.0,1270,15.2,14.3,95,11.78,81,6.5,299.4,334.1,301.5
875.5,1275,15.1,14.3,95,11.78,81,6.6,299.5,334.1,301.6
875.0,1280,15.1,14.3,95,11.80,80,6.7,299.5,334.2,301.6
874.5,1285,15.1,14.3,95,11.83,80,6.8,299.5,334.3,301.6
874.0,1290,15.1,14.3,96,11.84,80,6.9,299.5,334.3,301.6
873.4,1295,15.0,14.3,96,11.82,79,7.0,299.5,334.3,301.6
872.9,1301,15.0,14.2,95,11.78,79,7.1,299.5,334.2,301.6
872.3,1306,14.9,14.2,95,11.73,78,7.2,299.5,334.0,301.7
871.8,1311,14.9,14.1,95,11.66,78,7.3,299.6,333.9,301.7
871.2,1317,14.9,14.0,94,11.60,78,7.4,299.6,333.7,301.7
870.7,1322,14.9,13.9,94,11.57,77,7.4,299.6,333.7,301.7
870.1,1327,14.9,13.9,94,11.58,77,7.5,299.7,333.8,301.8
869.6,1333,14.8,13.9,94,11.58,77,7.5,299.7,333.8,301.8
869.0,1338,14.8,13.9,94,11.57,76,7.6,299.7,333.8,301.8
868.5,1344,14.8,13.9,94,11.56,76,7.6,299.8,333.8,301.8
867.9,1349,14.7,13.9,95,11.59,76,7.6,299.8,333.9,301.9
867.4,1354,14.7,13.9,95,11.60,76,7.7,299.8,334.0,301.9
866.9,1359,14.7,13.9,95,11.59,76,7.6,299.8,333.9,301.9
866.3,1365,14.6,13.8,95,11.55,76,7.6,299.8,333.8,301.9
865.8,1370,14.6,13.7,95,11.49,76,7.6,299.8,333.7,301.9
865.3,1374,14.5,13.7,95,11.47,76,7.5,299.8,333.6,301.9
864.8,1379,14.5,13.7,95,11.48,76,7.5,299.8,333.7,301.9
864.3,1384,14.5,13.7,95,11.49,76,7.4,299.9,333.7,301.9
863.8,1389,14.4,13.7,95,11.46,76,7.3,299.9,333.6,301.9
863.3,1395,14.4,13.5,94,11.37,76,7.2,299.9,333.4,301.9
862.7,1400,14.4,13.4,93,11.25,77,7.1,299.9,333.1,302.0
862.2,1405,14.4,13.2,93,11.16,77,7.0,300.0,332.9,302.0
861.7,1410,14.4,13.2,92,11.11,77,6.9,300.0,332.8,302.0
861.2,1415,14.4,13.2,92,11.11,78,6.8,300.1,332.9,302.1
860.7,1420,14.4,13.2,93,11.18,78,6.7,300.1,333.1,302.1
860.2,1425,14.3,13.3,94,11.25,79,6.5,300.1,333.3,302.2
859.6,1430,14.3,13.4,94,11.29,79,6.4,300.2,333.5,302.2
859.1,1435,14.3,13.4,94,11.29,80,6.3,300.2,333.5,302.2
858.6,1441,14.2,13.3,94,11.28,80,6.2,300.2,333.5,302.2
858.1,1446,14.2,13.3,94,11.26,80,6.1,300.2,333.4,302.2
857.6,1451,14.2,13.2,94,11.21,81,5.9,300.2,333.3,302.2
857.0,1456,14.1,13.2,94,11.17,81,5.8,300.2,333.2,302.2
856.5,1461,14.1,13.1,94,11.16,81,5.8,300.2,333.2,302.3
856.0,1466,14.1,13.2,94,11.19,81,5.7,300.3,333.3,302.3
855.4,1472,14.0,13.2,95,11.23,81,5.6,300.3,333.5,302.3
854.9,1477,14.0,13.2,95,11.26,81,5.5,300.3,333.6,302.3
854.3,1483,13.9,13.2,95,11.25,81,5.4,300.3,333.5,302.3
853.7,1489,13.9,13.1,95,11.18,81,5.4,300.3,333.3,302.3
853.1,1495,13.9,13.1,95,11.15,80,5.3,300.3,333.3,302.4
852.5,1500,13.8,13.1,95,11.20,80,5.3,300.4,333.5,302.4
852.0,1506,13.8,13.2,96,11.28,79,5.2,300.4,333.7,302.5
851.4,1512,13.8,13.2,96,11.31,79,5.2,300.5,333.9,302.5
850.9,1517,13.8,13.2,96,11.26,78,5.2,300.5,333.8,302.5
850.3,1523,13.8,13.1,96,11.20,78,5.1,300.5,333.6,302.5
850.0,1526,13.7,13.1,96,11.18,78,5.1,300.5,333.6,302.5
849.8,1528,13.7,13.0,96,11.17,77,5.1,300.5,333.6,302.5
849.2,1534,13.7,13.0,95,11.12,76,5.1,300.5,333.4,302.6
848.7,1539,13.7,12.9,95,11.05,76,5.1,300.6,333.3,302.6
848.1,1545,13.6,12.7,94,10.97,75,5.1,300.6,333.1,302.6
847.5,1551,13.6,12.5,94,10.84,75,5.1,300.6,332.7,302.5
846.9,1557,13.5,12.4,93,10.77,74,5.1,300.6,332.5,302.6
846.3,1562,13.5,12.4,93,10.74,74,5.1,300.6,332.4,302.6
845.8,1568,13.4,12.3,93,10.69,73,5.1,300.6,332.3,302.6
845.2,1573,13.4,12.2,93,10.64,73,5.1,300.6,332.1,302.6
844.7,1579,13.4,12.2,93,10.61,72,5.1,300.7,332.1,302.6
844.2,1584,13.3,12.2,93,10.63,72,5.2,300.7,332.1,302.6
843.7,1589,13.3,12.2,93,10.64,72,5.2,300.7,332.2,302.6
843.2,1594,13.2,12.2,93,10.64,72,5.2,300.7,332.2,302.6
842.7,1599,13.2,12.2,93,10.63,71,5.2,300.7,332.2,302.6
842.2,1603,13.2,12.1,93,10.59,71,5.2,300.7,332.1,302.6
841.8,1608,13.1,12.0,93,10.55,71,5.3,300.7,332.0,302.6
841.3,1613,13.1,12.0,93,10.52,71,5.3,300.7,331.9,302.6
840.8,1617,13.1,12.0,93,10.51,71,5.3,300.7,331.9,302.6
840.4,1622,13.0,11.9,93,10.48,71,5.4,300.7,331.8,302.6
839.9,1626,13.0,11.9,93,10.46,71,5.4,300.8,331.8,302.7
839.5,1631,13.0,11.8,93,10.43,71,5.5,300.8,331.7,302.7
839.0,1636,13.0,11.7,92,10.38,71,5.5,300.8,331.6,302.7
838.5,1641,12.9,11.6,92,10.31,72,5.6,300.8,331.4,302.7
838.0,1646,12.9,11.6,92,10.26,72,5.7,300.9,331.3,302.7
837.5,1651,12.9,11.5,92,10.26,72,5.8,300.9,331.4,302.8
837.0,1656,12.9,11.7,92,10.37,72,5.8,300.9,331.7,302.8
836.4,1662,12.9,11.9,94,10.50,72,5.9,301.0,332.1,302.9
835.9,1667,12.8,11.9,94,10.53,72,6.0,301.0,332.2,302.9
835.3,1673,12.8,11.8,93,10.44,72,6.1,301.0,332.0,302.9
834.8,1678,12.8,11.4,91,10.19,72,6.2,301.0,331.3,302.9
834.2,1684,12.8,11.2,90,10.04,72,6.2,301.1,330.9,302.9
833.7,1689,12.7,11.1,90,10.00,72,6.3,301.1,330.9,302.9
833.1,1695,12.7,11.0,90,9.98,72,6.4,301.2,330.8,303.0
832.5,1701,12.7,11.0,89,9.92,72,6.5,301.2,330.7,303.0
831.9,1707,12.6,10.9,89,9.92,72,6.5,301.2,330.7,303.0
831.4,1713,12.6,11.1,90,10.03,72,6.6,301.2,331.1,303.1
830.8,1719,12.6,11.3,92,10.20,72,6.6,301.3,331.6,303.1
830.2,1724,12.5,11.5,93,10.31,72,6.7,301.3,331.9,303.1
829.7,1730,12.5,11.6,94,10.37,71,6.7,301.3,332.1,303.1
829.1,1735,12.4,11.6,95,10.43,71,6.7,301.3,332.3,303.2
828.6,1740,12.4,11.6,95,10.44,71,6.7,301.3,332.3,303.2
828.1,1745,12.4,11.6,95,10.44,71,6.7,301.3,332.3,303.2
827.6,1751,12.3,11.7,96,10.47,71,6.7,301.3,332.4,303.2
827.1,1756,12.3,11.7,96,10.51,71,6.7,301.3,332.6,303.3
826.6,1761,12.3,11.6,96,10.45,70,6.7,301.4,332.4,303.3
826.1,1766,12.2,11.4,94,10.28,70,6.7,301.4,332.0,303.3
825.5,1772,12.2,11.1,93,10.10,70,6.7,301.4,331.5,303.3
825.0,1778,12.2,10.9,92,9.99,70,6.7,301.5,331.2,303.3
824.4,1783,12.2,10.9,92,10.02,69,6.7,301.5,331.4,303.4
823.9,1789,12.2,11.1,93,10.16,69,6.7,301.6,331.8,303.5
823.4,1794,12.2,11.4,94,10.33,68,6.7,301.7,332.4,303.6
822.9,1799,12.2,11.5,95,10.39,68,6.7,301.7,332.7,303.6
822.4,1804,12.3,11.4,94,10.34,68,6.7,301.8,332.6,303.7
822.0,1808,12.3,11.2,93,10.21,67,6.7,301.8,332.3,303.7
821.5,1813,12.3,10.9,92,10.05,67,6.8,301.9,331.9,303.7
821.0,1818,12.2,10.7,90,9.89,66,6.8,301.9,331.4,303.7
820.5,1823,12.3,10.5,89,9.79,66,6.8,302.0,331.2,303.8
820.1,1828,12.3,10.5,89,9.76,65,6.9,302.0,331.2,303.8
819.6,1833,12.2,10.5,89,9.77,65,6.9,302.1,331.3,303.9
819.1,1837,12.2,10.5,89,9.79,64,7.0,302.1,331.3,303.9
818.6,1842,12.2,10.5,89,9.80,64,7.0,302.2,331.4,303.9
818.2,1847,12.2,10.5,89,9.79,64,7.1,302.2,331.4,304.0
817.7,1852,12.2,10.5,89,9.80,63,7.2,302.3,331.6,304.0
817.2,1857,12.3,10.5,89,9.82,63,7.2,302.4,331.7,304.2
816.7,1862,12.3,10.5,89,9.84,62,7.3,302.5,331.9,304.2
816.2,1867,12.3,10.5,89,9.83,62,7.3,302.5,331.9,304.3
815.7,1872,12.3,10.5,89,9.85,61,7.4,302.6,332.0,304.4
815.3,1877,12.3,10.6,89,9.88,61,7.4,302.6,332.2,304.4
814.8,1881,12.3,10.6,89,9.89,61,7.5,302.6,332.2,304.4
814.4,1886,12.2,10.6,90,9.90,60,7.5,302.6,332.2,304.4
813.9,1891,12.2,10.6,90,9.94,60,7.5,302.6,332.3,304.4
813.5,1895,12.2,10.7,91,9.98,60,7.5,302.6,332.5,304.4
813.1,1900,12.1,10.7,91,10.02,59,7.5,302.6,332.6,304.5
812.6,1904,12.1,10.7,91,10.02,59,7.5,302.7,332.6,304.5
812.2,1909,12.1,10.7,91,10.01,59,7.4,302.7,332.6,304.5
