PRES,HGHT,TEMP,DWPT,RELH,MIXR,DRCT,SPED,THTA,THTE,THTV
1015.0,31,22.8,18.2,75,13.03,32,4.9,294.7,332.2,297.0
1014.3,36,22.9,18.2,75,13.03,44,3.5,294.8,332.3,297.1
1013.8,40,22.9,18.1,74,13.02,48,3.4,294.9,332.4,297.2
1013.0,48,22.9,18.0,74,12.96,49,3.6,294.9,332.3,297.2
1012.3,54,22.9,18.0,74,12.90,49,3.8,295.0,332.1,297.3
1011.7,59,22.8,17.9,74,12.85,49,4.1,295.0,332.0,297.3
1011.0,65,22.8,17.8,74,12.80,49,4.4,295.0,331.9,297.2
1010.3,71,22.7,17.8,74,12.76,49,4.6,295.0,331.7,297.2
1009.6,77,22.6,17.8,74,12.77,48,4.9,295.0,331.8,297.2
1008.8,84,22.6,17.8,74,12.81,48,5.1,295.0,331.9,297.3
1008.1,90,22.6,17.9,75,12.87,48,5.3,295.0,332.1,297.3
1007.4,96,22.5,17.9,75,12.89,47,5.5,295.0,332.2,297.3
1006.7,103,22.4,17.9,75,12.88,47,5.7,295.0,332.2,297.3
1005.9,109,22.4,17.9,76,12.92,46,5.9,295.0,332.3,297.3
1005.3,115,22.4,17.9,76,12.95,46,6.1,295.1,332.4,297.3
1004.6,121,22.3,17.8,76,12.89,45,6.2,295.1,332.2,297.3
1003.9,127,22.2,17.7,76,12.80,44,6.4,295.1,331.9,297.3
1003.2,132,22.2,17.7,76,12.77,43,6.5,295.0,331.8,297.3
1002.5,138,22.1,17.7,76,12.82,43,6.7,295.0,332.0,297.3
1001.8,144,22.0,17.8,77,12.94,42,6.8,295.0,332.3,297.3
1001.2,150,22.0,17.9,77,12.96,41,6.9,295.0,332.4,297.3
1000.5,156,21.9,17.6,77,12.79,40,7.0,295.0,331.9,297.3
1000.0,160,21.9,17.4,76,12.62,40,7.0,295.0,331.4,297.2
999.8,162,21.8,17.3,76,12.55,39,7.2,295.0,331.2,297.2
999.1,168,21.8,17.3,76,12.54,38,7.3,295.0,331.2,297.2
998.5,174,21.7,17.4,76,12.61,37,7.4,295.0,331.3,297.2
997.8,180,21.6,17.3,76,12.57,36,7.5,295.0,331.2,297.2
997.1,185,21.6,17.3,77,12.55,35,7.6,295.0,331.2,297.2
996.5,191,21.5,17.3,77,12.56,34,7.7,295.0,331.2,297.2
995.8,197,21.5,17.3,77,12.56,33,7.8,295.0,331.2,297.2
995.2,202,21.4,17.1,76,12.41,32,7.9,295.0,330.8,297.2
994.6,208,21.3,17.0,76,12.33,32,8.0,294.9,330.5,297.1
993.9,213,21.3,17.1,77,12.42,31,8.1,295.0,330.8,297.2
993.3,219,21.3,17.2,78,12.52,31,8.2,295.0,331.1,297.2
992.6,225,21.2,17.2,78,12.50,30,8.3,295.0,331.0,297.2
991.9,231,21.1,17.0,77,12.42,30,8.4,295.0,330.8,297.2
991.2,237,21.1,17.0,77,12.36,30,8.5,295.0,330.6,297.2
990.5,243,21.0,17.0,78,12.38,30,8.6,295.0,330.6,297.1
989.8,249,20.9,17.0,78,12.40,30,8.7,294.9,330.7,297.1
989.1,256,20.9,17.0,78,12.40,30,8.8,294.9,330.7,297.1
988.4,262,20.8,17.0,79,12.40,30,8.8,294.9,330.7,297.1
987.7,268,20.8,17.0,79,12.40,30,8.9,294.9,330.7,297.1
987.0,274,20.7,16.9,79,12.37,30,9.0,294.9,330.6,297.1
986.4,279,20.6,16.9,79,12.35,31,9.0,294.9,330.5,297.1
985.8,285,20.6,16.9,79,12.35,31,9.1,294.9,330.5,297.1
985.1,290,20.5,16.9,80,12.37,31,9.1,294.9,330.6,297.1
984.5,296,20.5,16.9,80,12.42,32,9.1,294.9,330.7,297.1
983.8,302,20.4,16.9,80,12.44,32,9.2,294.9,330.8,297.1
983.2,307,20.4,16.9,81,12.41,33,9.2,294.9,330.7,297.1
982.6,313,20.3,16.9,81,12.40,33,9.2,294.9,330.7,297.1
981.9,319,20.3,16.8,81,12.38,34,9.2,294.9,330.6,297.1
981.2,325,20.2,16.8,81,12.38,34,9.2,294.9,330.6,297.1
980.5,331,20.1,16.8,81,12.39,35,9.2,294.9,330.6,297.1
979.8,337,20.1,16.8,82,12.39,35,9.2,294.9,330.7,297.1
979.1,343,20.0,16.8,82,12.39,36,9.2,294.9,330.6,297.1
978.4,350,20.0,16.8,82,12.38,37,9.2,294.9,330.6,297.1
977.6,357,19.9,16.8,82,12.39,37,9.1,295.0,330.7,297.1
976.9,363,19.8,16.8,83,12.41,38,9.1,295.0,330.7,297.2
976.1,370,19.8,16.8,83,12.42,38,9.1,295.0,330.7,297.2
975.3,377,19.7,16.8,83,12.41,38,9.1,295.0,330.7,297.1
974.5,385,19.6,16.8,84,12.42,39,9.1,294.9,330.7,297.1
973.7,392,19.5,16.8,84,12.42,39,9.0,294.9,330.7,297.1
972.9,399,19.5,16.8,84,12.44,40,9.0,294.9,330.8,297.1
972.1,406,19.4,16.7,85,12.43,40,9.0,294.9,330.7,297.1
971.3,413,19.3,16.7,85,12.42,40,8.9,294.9,330.7,297.1
970.5,420,19.3,16.7,85,12.40,40,8.9,294.9,330.7,297.1
969.7,427,19.2,16.7,85,12.41,41,8.9,294.9,330.7,297.1
968.9,434,19.1,16.7,86,12.44,41,8.9,294.9,330.8,297.1
968.2,440,19.1,16.7,86,12.47,41,8.8,294.9,330.9,297.1
967.4,447,19.0,16.7,87,12.48,41,8.8,294.9,330.9,297.1
966.6,454,18.9,16.7,87,12.49,41,8.8,294.9,330.9,297.1
965.8,461,18.9,16.7,87,12.50,41,8.7,294.9,331.0,297.2
965.1,468,18.8,16.7,88,12.51,41,8.7,295.0,331.0,297.2
964.3,475,18.8,16.7,88,12.49,41,8.7,294.9,330.9,297.2
963.5,482,18.7,16.7,88,12.48,42,8.6,294.9,330.9,297.2
962.8,488,18.6,16.7,88,12.49,42,8.6,294.9,330.9,297.2
962.0,495,18.6,16.7,89,12.51,42,8.5,295.0,331.0,297.2
961.3,502,18.5,16.7,89,12.53,42,8.5,295.0,331.1,297.2
960.6,508,18.4,16.7,89,12.52,42,8.5,294.9,331.0,297.2
959.9,514,18.4,16.6,89,12.46,42,8.4,294.9,330.9,297.2
959.3,520,18.3,16.6,89,12.44,42,8.4,294.9,330.8,297.1
958.6,526,18.3,16.6,90,12.46,42,8.3,295.0,330.9,297.2
958.0,531,18.2,16.6,90,12.49,42,8.3,295.0,331.0,297.2
957.3,537,18.2,16.6,91,12.52,42,8.3,295.0,331.0,297.2
956.7,543,18.1,16.6,91,12.54,42,8.2,295.0,331.1,297.2
956.1,549,18.0,16.6,91,12.55,42,8.2,294.9,331.1,297.2
955.4,555,18.0,16.6,92,12.55,42,8.2,294.9,331.1,297.2
954.8,560,17.9,16.6,92,12.53,42,8.1,294.9,331.0,297.2
954.1,566,17.9,16.6,92,12.53,42,8.1,295.0,331.1,297.2
953.5,572,17.8,16.6,92,12.55,42,8.1,295.0,331.1,297.2
952.8,578,17.8,16.6,93,12.55,42,8.0,295.0,331.1,297.2
952.2,583,17.7,16.6,93,12.56,42,8.0,295.0,331.1,297.2
951.5,589,17.7,16.6,93,12.57,43,8.0,295.0,331.2,297.2
950.9,595,17.6,16.6,94,12.57,43,8.0,295.0,331.2,297.2
950.2,602,17.5,16.5,94,12.54,43,7.9,295.0,331.1,297.2
949.5,608,17.5,16.4,94,12.48,43,7.9,295.0,330.9,297.2
948.8,614,17.4,16.4,94,12.44,44,7.9,294.9,330.8,297.1
948.1,620,17.3,16.4,94,12.44,44,7.9,294.9,330.8,297.1
947.4,626,17.3,16.3,94,12.41,44,7.9,294.9,330.7,297.1
946.8,632,17.2,16.3,94,12.38,45,7.9,294.9,330.6,297.1
946.1,638,17.2,16.3,94,12.38,45,7.9,294.9,330.6,297.1
945.4,644,17.1,16.2,95,12.38,45,7.9,294.9,330.6,297.1
944.8,651,17.0,16.2,95,12.36,46,7.9,294.9,330.6,297.1
944.1,657,17.0,16.2,95,12.36,46,8.0,294.9,330.6,297.1
943.4,663,16.9,16.2,96,12.37,46,8.0,294.9,330.6,297.1
942.7,669,16.9,16.2,96,12.41,47,8.0,294.9,330.7,297.1
942.0,676,16.8,16.2,96,12.42,47,8.0,294.9,330.7,297.1
941.3,682,16.7,16.2,97,12.39,47,8.0,294.9,330.6,297.1
940.6,688,16.7,16.2,97,12.37,47,8.1,294.9,330.6,297.1
940.0,694,16.6,16.1,97,12.36,47,8.1,294.9,330.6,297.1
939.3,700,16.6,16.2,97,12.40,47,8.1,295.0,330.7,297.1
938.6,707,16.5,16.2,98,12.42,47,8.1,295.0,330.7,297.2
937.9,713,16.4,16.2,98,12.41,47,8.1,294.9,330.7,297.1
937.3,719,16.4,16.1,98,12.38,47,8.1,294.9,330.6,297.1
936.6,725,16.3,16.1,98,12.37,47,8.1,294.9,330.6,297.1
936.0,730,16.3,16.1,99,12.36,47,8.1,294.9,330.6,297.1
935.4,736,16.2,16.1,99,12.36,47,8.1,294.9,330.6,297.1
934.8,741,16.2,16.0,99,12.36,46,8.1,294.9,330.6,297.1
934.2,746,16.1,16.0,99,12.35,46,8.1,295.0,330.6,297.1
933.7,751,16.1,16.1,100,12.38,45,8.1,295.0,330.6,297.2
933.1,756,16.1,16.1,100,12.40,45,8.1,295.0,330.7,297.2
932.6,761,16.0,16.0,100,12.39,44,8.0,295.0,330.7,297.2
932.1,766,16.0,16.0,100,12.38,44,8.0,295.0,330.7,297.2
931.5,771,16.0,16.0,100,12.34,43,7.9,295.0,330.6,297.2
931.0,776,15.9,15.8,99,12.18,43,7.9,295.0,330.1,297.2
930.4,781,15.8,15.6,99,12.06,42,7.8,295.0,329.8,297.1
929.9,786,15.8,15.5,98,11.97,41,7.7,295.0,329.5,297.1
929.3,791,15.8,15.3,97,11.88,41,7.7,295.0,329.3,297.1
928.8,796,15.7,15.3,97,11.84,40,7.6,295.0,329.2,297.1
928.2,801,15.7,15.3,97,11.82,39,7.5,295.1,329.2,297.2
927.7,807,15.7,15.2,97,11.76,39,7.4,295.1,329.0,297.1
927.1,812,15.6,15.1,96,11.70,38,7.3,295.1,328.9,297.2
926.5,817,15.6,15.1,97,11.71,37,7.2,295.1,328.9,297.2
925.9,823,15.6,15.1,97,11.72,36,7.2,295.1,329.0,297.2
925.3,828,15.5,15.0,97,11.65,36,7.1,295.1,328.7,297.2
925.0,831,15.5,14.9,96,11.58,36,7.1,295.1,328.6,297.2
924.8,833,15.5,14.8,96,11.54,35,7.0,295.1,328.4,297.2
924.3,838,15.4,14.7,95,11.43,34,6.9,295.1,328.2,297.2
923.8,842,15.4,14.6,95,11.36,34,6.8,295.2,328.0,297.2
923.3,847,15.4,14.6,95,11.36,33,6.7,295.2,328.0,297.2
922.8,851,15.4,14.6,95,11.38,33,6.6,295.2,328.1,297.2
922.4,855,15.3,14.6,95,11.39,32,6.6,295.2,328.1,297.2
922.0,859,15.3,14.5,95,11.35,32,6.5,295.2,328.0,297.2
921.5,863,15.3,14.2,94,11.15,31,6.4,295.2,327.4,297.2
921.1,867,15.3,14.0,92,10.94,31,6.4,295.3,327.0,297.3
920.6,871,15.4,13.9,91,10.90,30,6.3,295.4,327.0,297.3
920.1,876,15.4,13.9,91,10.94,30,6.3,295.5,327.1,297.4
919.7,880,15.4,14.0,91,10.96,30,6.2,295.5,327.3,297.5
919.2,885,15.4,14.0,92,11.01,29,6.2,295.5,327.4,297.5
918.7,889,15.3,14.1,92,11.07,29,6.2,295.5,327.6,297.5
918.2,894,15.2,14.2,94,11.16,29,6.1,295.5,327.8,297.5
917.7,898,15.2,14.4,95,11.28,29,6.1,295.5,328.1,297.5
917.2,903,15.1,14.5,96,11.42,28,6.1,295.5,328.5,297.5
916.7,907,15.0,14.7,98,11.57,28,6.1,295.4,328.9,297.5
916.2,912,14.9,14.9,100,11.69,28,6.0,295.4,329.2,297.4
915.8,916,14.9,14.9,100,11.71,28,6.0,295.4,329.2,297.4
915.3,921,14.8,14.8,100,11.66,27,6.0,295.3,329.0,297.4
914.8,925,14.8,14.8,100,11.64,27,6.0,295.4,329.0,297.4
914.3,930,14.7,14.7,100,11.60,27,6.0,295.4,328.9,297.4
913.8,934,14.7,14.6,99,11.48,27,6.0,295.3,328.5,297.4
913.3,939,14.7,14.5,98,11.41,26,6.0,295.4,328.4,297.4
912.8,944,14.6,14.1,97,11.17,26,6.0,295.4,327.7,297.4
912.3,948,14.6,13.7,94,10.87,26,6.1,295.4,326.9,297.3
911.8,953,14.7,13.4,92,10.67,26,6.1,295.5,326.4,297.4
911.2,959,14.8,13.1,90,10.46,25,6.1,295.7,326.0,297.5
910.6,964,14.9,12.9,88,10.30,25,6.1,295.8,325.7,297.7
910.0,970,15.0,12.9,88,10.33,25,6.2,296.0,326.0,297.8
909.4,975,15.0,13.2,89,10.56,24,6.2,296.0,326.7,297.9
908.7,982,14.9,13.8,93,10.98,24,6.3,296.0,327.9,298.0
908.1,988,14.7,14.5,99,11.52,24,6.3,295.9,329.2,297.9
907.4,994,14.5,14.5,100,11.54,23,6.4,295.8,329.2,297.8
906.7,1001,14.6,14.6,100,11.57,23,6.4,295.9,329.4,297.9
906.0,1007,14.5,14.5,100,11.54,23,6.5,295.9,329.3,297.9
905.3,1014,14.4,14.4,100,11.49,22,6.5,295.9,329.1,297.9
904.6,1021,14.3,14.3,100,11.43,22,6.6,295.8,329.0,297.9
903.9,1027,14.3,14.3,100,11.38,22,6.7,295.9,328.8,297.9
903.2,1033,14.3,14.2,100,11.35,21,6.7,295.9,328.8,297.9
902.6,1040,14.2,14.2,100,11.32,21,6.8,295.9,328.7,297.9
901.9,1046,14.0,14.0,100,11.24,21,6.8,295.8,328.3,297.8
901.2,1052,13.9,13.9,100,11.13,20,6.9,295.7,327.9,297.7
900.6,1058,13.8,13.8,100,11.11,20,6.9,295.7,327.9,297.7
900.0,1064,13.8,13.8,100,11.11,20,7.0,295.7,327.9,297.7
899.4,1070,13.8,13.8,100,11.11,19,7.0,295.8,328.0,297.8
898.7,1075,13.8,13.8,100,11.10,19,7.0,295.8,328.0,297.8
898.1,1081,13.7,13.7,100,11.07,18,7.1,295.8,327.9,297.8
897.6,1086,13.7,13.7,100,11.05,18,7.1,295.9,327.9,297.8
897.0,1092,13.6,13.6,100,11.01,17,7.1,295.8,327.8,297.8
896.5,1097,13.6,13.6,100,10.97,17,7.1,295.8,327.6,297.8
895.9,1102,13.6,13.6,100,10.99,16,7.0,295.9,327.8,297.8
895.4,1106,13.6,13.6,100,10.99,15,7.0,295.9,327.8,297.9
894.9,1111,13.5,13.5,100,10.94,15,7.0,295.9,327.6,297.8
894.4,1116,13.5,13.5,100,10.92,14,6.9,295.9,327.6,297.8
893.9,1121,13.5,13.5,100,10.97,13,6.9,296.0,327.8,298.0
893.4,1126,13.6,13.6,100,11.01,12,6.8,296.1,328.0,298.1
892.9,1131,13.5,13.5,100,10.97,11,6.8,296.1,327.9,298.0
892.3,1136,13.4,13.2,99,10.76,10,6.7,296.1,327.3,298.0
891.8,1141,13.3,12.7,96,10.37,8,6.7,295.9,326.0,297.8
891.3,1146,13.2,12.2,94,10.10,7,6.6,295.9,325.2,297.7
890.8,1150,13.1,12.2,94,10.06,6,6.6,295.9,325.1,297.7
890.3,1155,13.1,12.2,94,10.07,5,6.5,295.9,325.2,297.7
889.7,1160,13.1,12.2,94,10.05,3,6.5,295.9,325.2,297.7
889.2,1165,13.1,12.1,94,10.01,2,6.5,296.0,325.1,297.8
888.7,1170,13.1,12.0,93,9.97,1,6.5,296.0,325.0,297.8
888.2,1175,13.1,12.0,93,9.97,360,6.5,296.1,325.1,297.8
887.7,1180,13.0,12.0,93,9.97,359,6.5,296.1,325.1,297.9
887.2,1185,13.0,12.0,93,9.97,358,6.5,296.1,325.1,297.9
886.7,1189,13.0,12.0,94,9.98,357,6.5,296.1,325.2,297.9
886.2,1194,13.0,12.0,94,10.00,356,6.5,296.2,325.3,297.9
885.7,1198,13.0,12.0,94,10.02,355,6.6,296.2,325.4,298.0
885.3,1203,12.9,12.0,95,10.03,355,6.6,296.2,325.4,298.0
884.8,1207,12.8,12.0,95,10.03,354,6.7,296.1,325.3,297.9
884.4,1211,12.8,12.0,95,10.02,353,6.8,296.1,325.3,297.9
883.9,1215,12.8,12.0,95,10.02,353,6.8,296.2,325.3,298.0
883.5,1220,12.7,11.9,95,9.98,353,6.9,296.2,325.2,298.0
883.1,1224,12.8,11.8,94,9.91,352,7.0,296.2,325.1,298.0
882.6,1228,12.8,11.7,93,9.83,352,7.1,296.3,324.9,298.0
882.1,1233,12.8,11.6,92,9.76,352,7.1,296.4,324.8,298.1
881.6,1237,12.9,11.5,91,9.72,352,7.2,296.5,324.8,298.2
881.1,1242,12.9,11.4,91,9.68,352,7.3,296.6,324.8,298.3
880.6,1247,12.9,11.4,91,9.66,352,7.4,296.6,324.8,298.3
880.1,1252,12.8,11.4,91,9.66,352,7.4,296.6,324.8,298.3
879.5,1258,12.8,11.4,91,9.69,352,7.5,296.6,324.9,298.4
879.0,1263,12.7,11.4,92,9.69,352,7.5,296.6,324.9,298.3
878.4,1268,12.7,11.4,92,9.67,351,7.6,296.6,324.8,298.3
877.9,1273,12.7,11.3,92,9.65,351,7.6,296.6,324.8,298.4
877.3,1279,12.7,11.3,92,9.64,351,7.7,296.7,324.8,298.4
876.8,1284,12.7,11.3,91,9.61,351,7.7,296.8,324.8,298.5
876.2,1289,12.6,11.2,91,9.59,351,7.7,296.8,324.8,298.5
875.7,1295,12.6,11.2,91,9.57,351,7.7,296.8,324.8,298.5
875.1,1300,12.6,11.2,91,9.57,350,7.7,296.8,324.8,298.6
874.5,1305,12.6,11.2,91,9.57,350,7.7,296.9,324.8,298.6
873.9,1311,12.5,11.2,91,9.58,350,7.7,296.9,324.9,298.6
873.4,1317,12.5,11.2,91,9.58,349,7.7,296.9,324.9,298.6
872.8,1323,12.5,11.1,91,9.57,349,7.7,297.0,325.0,298.7
872.1,1328,12.5,11.1,91,9.54,349,7.6,297.1,324.9,298.8
871.6,1334,12.5,11.0,91,9.50,348,7.6,297.1,324.9,298.8
871.0,1340,12.5,11.0,90,9.48,348,7.6,297.1,324.8,298.8
870.4,1345,12.5,10.9,90,9.48,347,7.5,297.2,324.9,298.9
869.8,1351,12.4,10.9,91,9.49,347,7.5,297.2,324.9,298.9
869.3,1356,12.4,11.0,91,9.50,346,7.5,297.2,325.0,298.9
868.7,1362,12.3,11.0,92,9.54,346,7.4,297.2,325.1,298.9
868.1,1367,12.2,11.0,93,9.57,345,7.4,297.1,325.1,298.8
867.6,1373,12.1,11.0,93,9.57,345,7.4,297.1,325.1,298.8
867.0,1378,12.1,10.9,93,9.52,344,7.4,297.1,324.9,298.8
866.4,1384,12.1,10.8,92,9.45,344,7.4,297.1,324.8,298.8
865.9,1389,12.1,10.7,91,9.39,343,7.4,297.2,324.7,298.9
865.3,1395,12.1,10.7,91,9.36,343,7.4,297.3,324.7,299.0
864.7,1400,12.1,10.7,91,9.36,342,7.4,297.4,324.8,299.0
864.2,1406,12.1,10.7,91,9.38,342,7.4,297.4,324.8,299.0
863.6,1411,12.0,10.7,92,9.41,341,7.4,297.4,324.9,299.0
863.0,1417,12.0,10.7,92,9.41,341,7.5,297.4,324.9,299.1
862.4,1423,11.9,10.7,92,9.39,341,7.5,297.4,324.9,299.1
861.8,1429,11.9,10.6,92,9.36,341,7.6,297.4,324.8,299.1
861.2,1435,11.8,10.6,92,9.34,340,7.6,297.4,324.8,299.1
860.6,1441,11.8,10.5,92,9.31,340,7.7,297.4,324.7,299.1
860.0,1447,11.8,10.4,91,9.26,340,7.8,297.5,324.6,299.1
859.4,1452,11.7,10.3,91,9.21,340,7.9,297.5,324.5,299.1
858.7,1459,11.7,10.2,91,9.16,340,8.0,297.5,324.4,299.2
858.1,1465,11.7,10.2,91,9.13,340,8.1,297.6,324.4,299.2
857.5,1471,11.7,10.2,91,9.15,340,8.1,297.6,324.5,299.2
856.9,1477,11.7,10.3,91,9.19,340,8.2,297.7,324.6,299.3
856.3,1483,11.7,10.3,91,9.22,340,8.3,297.7,324.8,299.4
855.6,1489,11.6,10.3,91,9.23,340,8.4,297.8,324.9,299.4
855.0,1496,11.6,10.3,92,9.24,340,8.5,297.8,324.9,299.4
854.3,1502,11.5,10.3,92,9.28,340,8.6,297.8,325.0,299.4
853.6,1509,11.5,10.3,93,9.28,340,8.7,297.8,325.0,299.4
852.9,1515,11.4,10.3,93,9.26,340,8.8,297.8,324.9,299.4
852.3,1522,11.3,10.2,93,9.22,339,8.9,297.8,324.8,299.4
851.6,1528,11.3,10.1,93,9.18,339,9.0,297.8,324.7,299.4
851.0,1535,11.2,10.1,93,9.17,339,9.0,297.8,324.7,299.4
850.4,1540,11.2,10.1,93,9.17,339,9.1,297.8,324.7,299.4
850.0,1544,11.2,10.1,93,9.18,339,9.1,297.9,324.8,299.5
849.8,1546,11.2,10.1,93,9.18,339,9.2,297.9,324.9,299.5
849.3,1551,11.3,10.1,92,9.16,339,9.2,298.0,324.9,299.6
848.8,1556,11.3,10.0,92,9.11,339,9.2,298.0,324.8,299.7
848.3,1561,11.3,9.9,91,9.06,338,9.3,298.1,324.8,299.7
847.8,1566,11.3,9.9,91,9.04,338,9.3,298.2,324.8,299.8
847.4,1570,11.3,9.8,91,9.03,338,9.3,298.2,324.8,299.8
846.9,1575,11.3,9.8,91,9.02,338,9.3,298.3,324.8,299.9
846.4,1579,11.3,9.8,91,9.00,337,9.3,298.3,324.8,299.9
846.0,1584,11.2,9.8,91,9.01,337,9.3,298.3,324.8,299.9
845.5,1589,11.2,9.8,91,9.01,337,9.3,298.3,324.8,299.9
845.0,1594,11.1,9.7,91,9.00,337,9.3,298.3,324.8,299.9
844.5,1599,11.1,9.8,92,9.02,336,9.2,298.3,324.8,299.9
844.0,1603,11.0,9.8,92,9.03,336,9.2,298.3,324.9,299.9
843.5,1609,11.0,9.7,92,9.02,336,9.2,298.3,324.9,299.9
843.0,1614,11.0,9.7,92,9.00,335,9.1,298.3,324.8,299.9
842.4,1619,10.9,9.7,92,9.00,335,9.1,298.3,324.8,299.9
841.9,1624,10.9,9.7,92,9.00,335,9.0,298.3,324.8,299.9
841.3,1630,10.8,9.7,93,9.01,335,9.0,298.3,324.8,299.9
840.8,1636,10.7,9.7,93,9.01,334,8.9,298.3,324.8,299.9
840.2,1641,10.7,9.7,93,9.00,334,8.9,298.3,324.8,299.9
839.6,1647,10.6,9.6,93,8.98,334,8.8,298.3,324.8,299.9
839.0,1653,10.6,9.6,93,8.95,334,8.8,298.3,324.7,299.9
838.5,1659,10.5,9.5,93,8.92,334,8.7,298.3,324.6,299.9
837.9,1664,10.5,9.4,93,8.89,333,8.6,298.3,324.5,299.9
837.3,1670,10.4,9.4,93,8.89,333,8.6,298.3,324.5,299.9
836.7,1676,10.4,9.4,94,8.90,333,8.5,298.4,324.6,300.0
836.1,1682,10.3,9.4,94,8.90,333,8.4,298.4,324.6,300.0
835.6,1687,10.3,9.4,94,8.91,333,8.4,298.4,324.6,300.0
835.0,1693,10.2,9.5,95,8.94,332,8.3,298.4,324.7,300.0
834.5,1698,10.2,9.4,95,8.93,332,8.3,298.4,324.7,300.0
834.0,1703,10.1,9.3,95,8.85,332,8.2,298.4,324.4,300.0
833.4,1709,10.1,9.1,93,8.73,331,8.2,298.4,324.2,300.0
832.9,1714,10.1,8.9,92,8.62,331,8.1,298.5,323.9,300.0
832.4,1720,10.2,8.7,91,8.51,330,8.1,298.6,323.7,300.1
831.8,1725,10.2,8.5,89,8.43,330,8.0,298.7,323.6,300.2
831.2,1731,10.2,8.5,89,8.43,329,8.0,298.8,323.7,300.3
830.7,1736,10.2,8.6,90,8.45,329,8.0,298.8,323.7,300.3
830.1,1742,10.1,8.6,90,8.45,328,8.0,298.8,323.7,300.3
829.5,1748,10.1,8.5,90,8.42,328,8.0,298.8,323.7,300.3
829.0,1754,10.1,8.4,89,8.35,327,8.0,298.8,323.5,300.3
828.4,1759,10.1,8.3,89,8.31,326,8.0,298.9,323.5,300.4
827.8,1765,10.1,8.4,89,8.36,326,8.0,298.9,323.7,300.4
827.3,1771,9.9,8.5,91,8.44,325,8.0,298.8,323.8,300.4
826.7,1776,9.8,8.5,92,8.46,324,8.1,298.8,323.8,300.3
826.2,1781,9.7,8.4,91,8.38,324,8.1,298.7,323.5,300.2
825.7,1787,9.7,8.1,90,8.23,323,8.2,298.8,323.1,300.2
825.2,1792,9.7,7.8,88,8.05,322,8.2,298.8,322.7,300.3
824.7,1797,9.8,7.5,85,7.92,322,8.2,299.0,322.5,300.4
824.2,1801,9.9,7.5,85,7.90,321,8.3,299.1,322.6,300.6
823.8,1806,9.9,7.5,85,7.94,321,8.3,299.2,322.7,300.6
823.3,1810,9.9,7.6,86,7.98,320,8.4,299.2,322.9,300.6
822.9,1815,9.8,7.6,86,8.00,320,8.4,299.2,322.9,300.6
822.5,1819,9.8,7.6,86,8.01,320,8.4,299.2,322.9,300.6
822.0,1823,9.7,7.7,87,8.03,320,8.4,299.2,323.0,300.6
821.6,1828,9.7,7.7,87,8.04,319,8.4,299.2,323.1,300.7
821.2,1832,9.7,7.7,87,8.04,319,8.4,299.2,323.1,300.7
820.7,1837,9.6,7.6,87,8.01,319,8.4,299.2,323.0,300.7
820.2,1842,9.6,7.5,87,7.96,319,8.4,299.2,322.8,300.6
819.8,1846,9.6,7.4,87,7.93,319,8.4,299.2,322.8,300.7
819.3,1851,9.5,7.5,87,7.96,319,8.3,299.3,322.9,300.7
818.8,1856,9.5,7.5,87,7.98,319,8.2,299.3,323.0,300.7
818.4,1861,9.5,7.5,87,7.95,320,8.1,299.3,322.9,300.7
817.9,1865,9.4,7.4,87,7.90,320,8.1,299.3,322.8,300.7
817.4,1870,9.4,7.4,87,7.90,320,8.0,299.3,322.8,300.7
817.0,1875,9.3,7.6,89,8.02,320,7.8,299.3,323.1,300.7
816.5,1880,9.2,8.0,92,8.25,320,7.7,299.2,323.7,300.7
816.0,1885,9.2,8.2,94,8.38,320,7.6,299.2,324.0,300.7
815.5,1890,9.1,8.1,94,8.35,321,7.5,299.2,323.9,300.7
815.0,1895,9.0,7.9,93,8.25,321,7.3,299.2,323.6,300.7
814.5,1900,9.0,7.7,92,8.15,321,7.2,299.2,323.3,300.6
813.9,1906,8.9,7.6,91,8.07,321,7.1,299.1,323.1,300.6
813.4,1911,8.8,7.4,91,7.99,321,6.9,299.1,322.8,300.5
812.9,1916,8.7,7.3,91,7.91,321,6.8,299.1,322.5,300.5
812.5,1921,8.7,7.2,91,7.89,321,6.7,299.0,322.4,300.5
812.0,1925,8.6,7.3,92,7.94,320,6.6,299.0,322.5,300.4
811.7,1929,8.6,7.3,92,7.95,320,6.5,299.0,322.6,300.4
811.3,1932,8.5,7.2,92,7.90,320,6.4,299.0,322.4,300.4
811.0,1935,8.5,7.1,91,7.83,319,6.3,299.0,322.2,300.4
810.8,1938,8.5,7.1,91,7.84,318,6.2,299.0,322.3,300.4
810.5,1941,8.5,7.2,92,7.90,318,6.1,299.0,322.5,300.4
810.2,1944,8.4,7.3,93,7.93,317,6.0,299.0,322.5,300.4
810.0,1946,8.3,7.3,93,7.94,316,6.0,298.9,322.5,300.4
809.7,1949,8.3,7.3,93,7.94,315,6.0,298.9,322.5,300.4
809.4,1952,8.3,7.2,93,7.90,313,5.9,298.9,322.3,300.4
809.1,1955,8.2,7.0,92,7.81,312,5.9,298.9,322.1,300.3
808.9,1958,8.3,6.9,91,7.73,311,5.9,299.1,322.0,300.5
808.6,1960,8.4,6.7,89,7.63,310,5.9,299.2,321.8,300.6
808.4,1963,8.4,6.5,88,7.56,308,6.0,299.2,321.7,300.6
808.2,1965,8.4,6.5,88,7.53,307,6.0,299.2,321.6,300.6
808.0,1967,8.3,6.4,88,7.51,306,6.1,299.2,321.5,300.5
807.8,1968,8.4,6.4,87,7.47,304,6.1,299.2,321.4,300.5
807.7,1970,8.5,6.2,86,7.41,303,6.2,299.3,321.4,300.7
807.6,1970,8.5,6.2,85,7.38,302,6.3,299.4,321.4,300.7
807.5,1971,8.5,6.2,85,7.37,301,6.4,299.4,321.3,300.7
807.4,1972,8.7,5.5,80,7.01,297,6.8,299.6,320.5,300.9
