PRES,HGHT,TEMP,DWPT,RELH,MIXR,DRCT,SPED,THTA,THTE,THTV
1019.2,31,21.8,17.6,77,12.53,73,12.4,293.4,329.2,295.6
1018.3,38,22.0,17.4,75,12.35,77,8.1,293.6,329.0,295.8
1017.7,43,22.1,17.3,74,12.26,78,7.9,293.8,329.0,296.0
1017.0,49,22.2,17.1,73,12.12,79,8.3,294.0,328.8,296.1
1016.2,56,22.3,17.0,72,12.04,79,9.0,294.1,328.7,296.2
1015.6,61,22.3,16.9,72,12.03,79,9.6,294.1,328.7,296.3
1015.0,66,22.3,17.0,72,12.10,80,10.2,294.1,328.9,296.3
1014.4,72,22.2,17.1,73,12.14,80,10.8,294.2,329.1,296.3
1013.7,78,22.2,17.0,73,12.13,80,11.3,294.2,329.0,296.3
1013.0,84,22.1,17.0,73,12.08,81,11.8,294.2,328.9,296.3
1012.3,89,22.0,16.9,73,12.03,81,12.2,294.2,328.7,296.3
1011.7,95,22.0,16.7,72,11.93,81,12.6,294.1,328.4,296.2
1011.0,101,21.9,16.6,72,11.80,82,13.0,294.1,328.0,296.2
1010.3,107,21.8,16.5,72,11.75,82,13.4,294.1,327.9,296.2
1009.7,112,21.7,16.5,72,11.79,82,13.7,294.1,328.0,296.2
1009.0,118,21.7,16.6,73,11.84,82,14.0,294.1,328.1,296.2
1008.3,124,21.6,16.6,73,11.86,83,14.2,294.1,328.2,296.2
1007.7,129,21.6,16.5,73,11.80,83,14.5,294.1,328.0,296.2
1007.0,135,21.5,16.4,73,11.74,83,14.6,294.1,327.8,296.1
1006.3,141,21.5,16.4,73,11.75,83,14.8,294.1,327.9,296.1
1005.7,147,21.4,16.5,73,11.78,83,14.9,294.1,327.9,296.2
1005.0,153,21.3,16.4,73,11.75,83,15.0,294.1,327.8,296.1
1004.3,158,21.3,16.4,73,11.72,83,15.0,294.1,327.8,296.1
1003.7,164,21.2,16.4,74,11.76,83,15.0,294.1,327.9,296.1
1003.0,170,21.2,16.4,74,11.76,83,15.0,294.1,327.9,296.2
1002.4,175,21.1,16.4,74,11.75,83,15.0,294.1,327.8,296.2
1001.7,181,21.1,16.3,74,11.72,83,15.0,294.1,327.8,296.1
1001.1,186,21.0,16.2,74,11.66,83,14.9,294.1,327.6,296.1
1000.5,192,21.0,16.2,74,11.65,82,14.9,294.1,327.6,296.1
1000.0,196,20.9,16.2,74,11.67,82,14.9,294.1,327.6,296.1
999.8,197,20.9,16.2,74,11.67,82,14.8,294.1,327.6,296.1
999.2,203,20.9,16.2,75,11.69,82,14.7,294.1,327.7,296.1
998.6,208,20.8,16.2,75,11.71,81,14.7,294.1,327.7,296.1
998.0,213,20.8,16.4,76,11.81,81,14.6,294.1,328.0,296.2
997.3,219,20.7,16.5,77,11.89,80,14.5,294.0,328.2,296.1
996.7,224,20.6,16.5,77,11.89,80,14.4,294.0,328.2,296.1
996.1,230,20.6,16.4,77,11.87,79,14.3,294.0,328.1,296.1
995.4,236,20.5,16.4,77,11.85,79,14.3,294.0,328.1,296.1
994.7,242,20.5,16.3,77,11.82,78,14.2,294.1,328.0,296.1
994.1,247,20.4,16.3,77,11.83,78,14.2,294.1,328.1,296.2
993.4,253,20.4,16.4,78,11.88,77,14.1,294.1,328.2,296.2
992.7,260,20.3,16.4,78,11.92,76,14.1,294.0,328.3,296.1
991.9,266,20.2,16.4,79,11.93,76,14.1,294.1,328.3,296.2
991.2,272,20.2,16.4,79,11.94,75,14.1,294.1,328.3,296.2
990.5,279,20.1,16.4,79,11.94,75,14.1,294.0,328.3,296.1
989.7,285,20.0,16.4,79,11.91,74,14.1,294.0,328.3,296.1
989.0,292,20.0,16.3,79,11.88,74,14.1,294.0,328.2,296.1
988.2,298,19.9,16.3,80,11.89,74,14.2,294.1,328.2,296.2
987.5,305,19.9,16.3,80,11.89,73,14.2,294.1,328.2,296.2
986.8,311,19.8,16.3,80,11.88,73,14.2,294.1,328.2,296.2
986.0,318,19.7,16.3,80,11.89,73,14.3,294.1,328.2,296.2
985.3,324,19.7,16.3,81,11.88,72,14.4,294.1,328.2,296.2
984.5,331,19.6,16.2,81,11.86,72,14.4,294.0,328.1,296.1
983.7,338,19.5,16.2,81,11.86,72,14.5,294.0,328.1,296.1
983.0,344,19.5,16.2,81,11.87,72,14.6,294.0,328.1,296.1
982.2,351,19.4,16.1,82,11.83,72,14.7,294.0,328.0,296.1
981.5,358,19.3,16.0,81,11.75,72,14.7,294.0,327.8,296.1
980.7,364,19.3,15.9,81,11.68,72,14.8,294.1,327.6,296.1
980.0,370,19.3,15.9,81,11.67,72,14.9,294.1,327.6,296.2
979.3,377,19.2,16.0,82,11.72,72,15.0,294.1,327.8,296.2
978.5,384,19.2,16.0,82,11.77,72,15.1,294.1,327.9,296.2
977.7,391,19.1,16.0,82,11.78,72,15.2,294.1,328.0,296.2
976.9,398,19.0,16.0,83,11.76,72,15.2,294.1,327.9,296.2
976.1,405,18.9,15.9,83,11.70,72,15.3,294.1,327.7,296.1
975.3,412,18.8,15.8,82,11.63,73,15.4,294.1,327.5,296.1
974.5,419,18.8,15.8,83,11.63,73,15.5,294.1,327.5,296.1
973.7,426,18.7,15.8,83,11.68,73,15.5,294.1,327.7,296.2
972.9,433,18.7,15.9,84,11.75,73,15.6,294.1,327.9,296.2
972.2,439,18.6,15.9,85,11.79,73,15.6,294.1,328.0,296.2
971.5,446,18.5,15.9,85,11.80,74,15.7,294.1,328.0,296.2
970.8,452,18.4,16.0,86,11.84,74,15.7,294.1,328.1,296.2
970.1,458,18.4,16.0,86,11.88,74,15.7,294.1,328.2,296.2
969.4,464,18.3,16.0,86,11.86,74,15.7,294.1,328.2,296.2
968.8,470,18.3,15.9,86,11.80,74,15.8,294.1,328.0,296.2
968.1,476,18.2,15.8,86,11.77,74,15.8,294.1,327.9,296.2
967.4,482,18.2,15.8,86,11.76,75,15.7,294.1,327.9,296.2
966.7,488,18.1,15.8,86,11.75,75,15.7,294.1,327.9,296.2
966.1,494,18.1,15.8,87,11.76,75,15.7,294.1,327.9,296.2
965.4,499,18.0,15.8,87,11.80,75,15.7,294.1,328.0,296.2
964.8,505,17.9,15.9,88,11.88,75,15.6,294.1,328.2,296.2
964.1,511,17.9,16.1,89,12.02,75,15.6,294.1,328.6,296.2
963.5,517,17.8,16.2,91,12.13,75,15.6,294.1,328.9,296.2
962.9,522,17.7,16.3,91,12.16,75,15.5,294.0,329.0,296.2
962.2,528,17.7,16.2,91,12.10,76,15.5,294.1,328.8,296.2
961.6,533,17.6,16.0,90,12.00,76,15.4,294.1,328.5,296.2
961.0,539,17.6,15.9,90,11.88,76,15.3,294.1,328.2,296.2
960.3,545,17.6,15.8,89,11.82,76,15.3,294.1,328.1,296.2
959.7,550,17.5,15.8,90,11.83,76,15.2,294.1,328.1,296.2
959.0,556,17.4,15.8,90,11.86,76,15.2,294.1,328.2,296.2
958.4,562,17.4,15.8,90,11.86,76,15.1,294.1,328.2,296.2
957.8,568,17.3,15.8,91,11.86,76,15.1,294.1,328.1,296.2
957.1,573,17.3,15.8,91,11.86,76,15.0,294.1,328.2,296.2
956.5,579,17.2,15.8,92,11.90,76,15.0,294.1,328.3,296.2
955.8,585,17.1,15.9,92,11.94,77,14.9,294.1,328.4,296.2
955.2,591,17.1,15.9,93,11.96,77,14.9,294.1,328.4,296.2
954.5,596,17.0,15.9,93,11.97,77,14.9,294.1,328.5,296.2
953.9,602,17.0,15.9,93,11.98,77,14.9,294.1,328.5,296.2
953.3,608,16.9,15.9,94,11.99,77,14.8,294.1,328.5,296.2
952.6,614,16.9,15.9,94,11.98,77,14.8,294.1,328.5,296.2
952.0,619,16.8,15.8,94,11.94,77,14.8,294.1,328.4,296.2
951.4,625,16.8,15.7,94,11.89,77,14.8,294.1,328.2,296.2
950.8,630,16.7,15.7,94,11.85,77,14.8,294.1,328.1,296.2
950.2,636,16.7,15.6,94,11.83,77,14.8,294.1,328.0,296.2
949.6,641,16.6,15.6,94,11.83,77,14.8,294.1,328.0,296.1
949.0,647,16.5,15.6,94,11.80,77,14.8,294.1,328.0,296.1
948.4,652,16.5,15.5,94,11.76,78,14.8,294.1,327.8,296.1
947.8,657,16.4,15.5,94,11.76,78,14.8,294.1,327.8,296.1
947.2,662,16.4,15.5,94,11.77,78,14.8,294.1,327.9,296.2
946.6,668,16.3,15.5,95,11.79,78,14.8,294.1,327.9,296.1
946.1,673,16.3,15.5,95,11.80,78,14.8,294.1,328.0,296.1
945.5,678,16.2,15.5,95,11.78,78,14.9,294.1,327.9,296.1
944.9,683,16.2,15.5,95,11.76,78,14.9,294.1,327.9,296.2
944.4,688,16.2,15.4,95,11.75,79,14.9,294.1,327.8,296.2
943.8,693,16.1,15.3,95,11.69,79,15.0,294.1,327.7,296.1
943.2,698,16.1,15.3,95,11.64,79,15.0,294.1,327.5,296.1
942.7,703,16.0,15.2,95,11.60,79,15.0,294.1,327.4,296.1
942.1,708,16.0,15.2,95,11.60,80,15.1,294.1,327.4,296.1
941.6,713,15.9,15.2,95,11.61,80,15.1,294.1,327.5,296.1
941.0,718,15.9,15.2,95,11.59,80,15.2,294.1,327.4,296.1
940.4,724,15.8,15.0,95,11.49,80,15.3,294.1,327.1,296.1
939.8,729,15.8,14.8,94,11.34,81,15.3,294.1,326.7,296.1
939.2,735,15.8,14.6,93,11.20,81,15.4,294.2,326.4,296.1
938.6,740,15.8,14.5,92,11.12,81,15.5,294.2,326.2,296.2
938.0,746,15.7,14.4,92,11.06,82,15.6,294.2,326.0,296.1
937.3,752,15.7,14.3,91,10.97,82,15.7,294.2,325.8,296.2
936.7,758,15.7,14.2,91,10.93,82,15.7,294.3,325.7,296.2
936.0,764,15.6,14.2,91,10.94,82,15.8,294.3,325.8,296.2
935.3,770,15.6,14.2,91,10.94,82,15.9,294.3,325.8,296.2
934.6,776,15.5,14.1,91,10.89,83,16.0,294.3,325.7,296.2
933.9,783,15.5,13.9,90,10.78,83,16.1,294.4,325.4,296.3
933.3,789,15.5,13.7,89,10.64,83,16.2,294.4,325.1,296.3
932.6,794,15.6,13.6,88,10.55,83,16.3,294.5,325.0,296.4
932.0,800,15.5,13.5,88,10.52,83,16.4,294.5,324.9,296.4
931.4,805,15.5,13.5,88,10.51,83,16.5,294.6,324.9,296.4
930.9,810,15.4,13.5,88,10.52,83,16.6,294.5,324.9,296.4
930.3,816,15.4,13.5,89,10.53,83,16.6,294.5,324.9,296.4
929.8,821,15.3,13.5,89,10.53,83,16.7,294.6,324.9,296.4
929.2,826,15.3,13.5,89,10.54,83,16.8,294.5,325.0,296.4
928.7,831,15.2,13.5,89,10.54,83,16.9,294.5,325.0,296.4
928.1,836,15.2,13.5,90,10.54,83,16.9,294.6,325.0,296.4
927.5,841,15.2,13.5,90,10.54,82,17.0,294.6,325.0,296.4
927.0,846,15.1,13.4,90,10.50,82,17.1,294.6,324.9,296.4
926.4,852,15.1,13.4,90,10.49,82,17.1,294.6,324.9,296.5
925.8,857,15.0,13.4,90,10.52,82,17.2,294.6,325.0,296.5
925.2,862,15.0,13.5,91,10.54,82,17.2,294.6,325.0,296.4
925.0,864,14.9,13.4,91,10.51,82,17.2,294.6,324.9,296.4
924.7,867,14.9,13.4,90,10.47,82,17.2,294.6,324.8,296.4
924.1,872,14.9,13.2,90,10.38,82,17.3,294.6,324.6,296.5
923.6,877,14.9,13.1,89,10.33,81,17.3,294.7,324.5,296.5
923.0,883,14.9,13.1,89,10.31,81,17.4,294.7,324.5,296.5
922.4,888,14.8,13.1,89,10.32,81,17.4,294.7,324.5,296.5
921.9,893,14.8,13.1,90,10.35,81,17.4,294.7,324.6,296.5
921.3,898,14.7,13.2,91,10.40,81,17.4,294.7,324.7,296.5
920.7,904,14.6,13.2,91,10.44,81,17.5,294.6,324.8,296.5
920.1,909,14.6,13.2,92,10.44,81,17.5,294.6,324.8,296.5
919.5,915,14.5,13.2,92,10.40,81,17.5,294.6,324.7,296.5
918.9,921,14.4,13.1,92,10.35,81,17.5,294.6,324.5,296.5
918.2,927,14.4,13.0,91,10.32,81,17.5,294.7,324.5,296.5
917.6,932,14.4,13.0,91,10.31,81,17.5,294.7,324.4,296.5
917.0,938,14.3,13.0,92,10.29,82,17.5,294.6,324.4,296.5
916.4,943,14.2,12.9,92,10.27,82,17.5,294.6,324.3,296.5
915.9,948,14.2,12.8,92,10.22,82,17.5,294.7,324.2,296.5
915.3,954,14.2,12.8,91,10.18,82,17.5,294.7,324.1,296.5
914.8,959,14.2,12.7,91,10.15,82,17.5,294.7,324.0,296.5
914.2,964,14.1,12.6,91,10.09,82,17.5,294.7,323.9,296.5
913.7,969,14.2,12.5,90,10.03,83,17.5,294.8,323.8,296.6
913.2,973,14.1,12.5,90,10.01,83,17.5,294.8,323.8,296.6
912.7,978,14.1,12.5,90,10.02,83,17.4,294.8,323.8,296.6
912.2,983,14.1,12.5,90,10.04,83,17.4,294.9,323.9,296.6
911.7,987,14.0,12.5,91,10.05,83,17.4,294.9,324.0,296.7
911.2,992,14.0,12.5,91,10.04,83,17.4,294.9,323.9,296.7
910.7,996,14.0,12.4,90,10.00,83,17.4,294.9,323.9,296.7
910.2,1001,13.9,12.4,90,9.96,83,17.4,294.9,323.8,296.7
909.6,1006,13.9,12.3,90,9.92,83,17.4,294.9,323.7,296.7
909.1,1011,13.9,12.2,90,9.88,83,17.4,295.0,323.6,296.7
908.5,1017,13.8,12.1,89,9.84,83,17.4,295.0,323.5,296.7
908.0,1022,13.8,12.0,89,9.76,83,17.4,295.0,323.2,296.7
907.4,1027,13.8,11.8,88,9.65,83,17.4,295.0,323.0,296.7
906.8,1032,13.8,11.7,87,9.56,83,17.4,295.1,322.8,296.8
906.3,1037,13.8,11.6,86,9.50,83,17.4,295.2,322.7,296.8
905.7,1043,13.8,11.4,86,9.38,83,17.4,295.2,322.4,296.8
905.2,1048,13.8,11.1,84,9.20,83,17.4,295.2,321.9,296.8
904.6,1053,13.8,10.9,82,9.08,83,17.4,295.3,321.7,296.9
904.1,1058,13.8,10.8,82,9.05,83,17.4,295.3,321.7,297.0
903.5,1063,13.8,10.7,82,8.97,83,17.4,295.4,321.5,297.0
903.0,1068,13.8,10.5,80,8.83,83,17.4,295.4,321.1,297.0
902.5,1073,13.8,10.2,79,8.66,83,17.5,295.5,320.7,297.0
901.9,1078,13.8,9.8,77,8.45,83,17.5,295.5,320.2,297.0
901.4,1083,13.8,9.5,75,8.31,83,17.5,295.6,319.8,297.0
900.8,1088,13.8,9.6,76,8.33,83,17.5,295.6,319.9,297.1
900.3,1094,13.7,9.8,77,8.45,83,17.5,295.6,320.2,297.1
899.7,1099,13.6,9.9,78,8.57,83,17.5,295.6,320.5,297.1
899.2,1104,13.6,9.9,78,8.53,83,17.5,295.5,320.4,297.1
898.6,1109,13.5,9.8,78,8.52,84,17.5,295.6,320.4,297.1
898.1,1114,13.5,10.1,80,8.70,84,17.5,295.6,320.9,297.1
897.6,1119,13.4,10.5,82,8.92,84,17.5,295.6,321.5,297.2
897.1,1123,13.4,10.7,84,9.03,84,17.6,295.6,321.9,297.2
896.6,1128,13.4,10.8,84,9.09,84,17.6,295.6,322.1,297.2
896.1,1133,13.3,10.9,85,9.17,84,17.6,295.6,322.3,297.2
895.6,1137,13.3,11.0,86,9.22,84,17.6,295.6,322.4,297.2
895.1,1142,13.3,11.0,86,9.25,84,17.5,295.6,322.5,297.3
894.6,1147,13.2,11.0,86,9.26,85,17.5,295.6,322.6,297.3
894.1,1151,13.2,11.0,87,9.27,85,17.5,295.6,322.6,297.3
893.6,1156,13.2,11.1,87,9.31,85,17.5,295.7,322.7,297.3
893.1,1161,13.1,11.0,87,9.29,85,17.5,295.7,322.7,297.3
892.6,1166,13.1,11.0,87,9.25,85,17.5,295.7,322.6,297.3
892.1,1170,13.1,11.0,87,9.26,85,17.5,295.7,322.6,297.3
891.6,1175,13.0,10.9,87,9.25,86,17.4,295.7,322.6,297.3
891.0,1181,12.9,10.9,87,9.23,86,17.4,295.7,322.5,297.3
890.5,1186,12.9,10.9,87,9.21,86,17.4,295.7,322.5,297.3
890.0,1191,12.8,10.8,88,9.20,86,17.3,295.7,322.4,297.3
889.4,1196,12.8,10.8,88,9.19,86,17.3,295.6,322.4,297.3
888.9,1201,12.7,10.8,88,9.19,86,17.2,295.7,322.4,297.3
888.3,1206,12.7,10.8,88,9.22,86,17.2,295.7,322.5,297.3
887.8,1211,12.7,10.9,89,9.27,87,17.2,295.7,322.7,297.4
887.3,1216,12.6,10.9,89,9.29,87,17.1,295.7,322.8,297.4
886.7,1221,12.6,10.9,89,9.29,87,17.1,295.7,322.8,297.4
886.2,1227,12.6,10.9,90,9.29,87,17.0,295.7,322.8,297.4
885.6,1232,12.5,11.0,91,9.35,87,16.9,295.7,323.0,297.4
885.1,1237,12.5,11.2,92,9.50,87,16.9,295.7,323.4,297.4
884.5,1242,12.4,11.6,95,9.75,87,16.8,295.8,324.1,297.5
883.9,1248,12.4,11.8,96,9.85,87,16.8,295.8,324.4,297.5
883.4,1253,12.3,11.7,96,9.80,87,16.7,295.8,324.3,297.5
882.8,1258,12.3,11.6,95,9.75,87,16.7,295.8,324.1,297.5
882.3,1264,12.3,11.6,95,9.74,87,16.6,295.8,324.1,297.5
881.7,1269,12.2,11.6,96,9.75,87,16.6,295.8,324.1,297.5
881.2,1274,12.2,11.6,96,9.75,87,16.5,295.8,324.2,297.6
880.7,1279,12.1,11.6,96,9.77,86,16.5,295.8,324.2,297.6
880.2,1283,12.1,11.6,97,9.78,86,16.5,295.8,324.3,297.6
879.7,1288,12.1,11.6,97,9.78,86,16.4,295.9,324.3,297.6
879.2,1293,12.1,11.6,97,9.78,86,16.4,295.9,324.3,297.6
878.7,1297,12.0,11.5,97,9.76,86,16.3,295.9,324.3,297.7
878.2,1302,12.0,11.5,97,9.75,86,16.3,295.9,324.3,297.7
877.8,1307,12.0,11.5,97,9.73,86,16.3,295.9,324.2,297.7
877.3,1311,11.9,11.4,97,9.71,86,16.2,296.0,324.2,297.7
876.8,1316,11.9,11.4,97,9.69,86,16.2,296.0,324.2,297.7
876.3,1321,11.9,11.3,97,9.67,86,16.2,296.0,324.1,297.7
875.7,1326,11.8,11.3,97,9.66,85,16.1,296.0,324.1,297.7
875.2,1331,11.8,11.3,97,9.64,85,16.1,296.0,324.1,297.7
874.7,1336,11.7,11.2,97,9.61,85,16.0,296.0,324.0,297.7
874.1,1341,11.7,11.2,96,9.59,85,16.0,296.0,324.0,297.8
873.6,1347,11.7,11.2,96,9.58,85,15.9,296.1,324.0,297.8
873.0,1352,11.7,11.2,97,9.60,86,15.8,296.1,324.1,297.8
872.4,1358,11.7,11.2,97,9.61,86,15.8,296.1,324.1,297.9
871.8,1364,11.6,11.1,97,9.59,86,15.7,296.2,324.1,297.9
871.2,1370,11.6,11.1,97,9.57,86,15.6,296.2,324.0,297.9
870.5,1376,11.6,11.1,97,9.55,86,15.6,296.2,324.1,297.9
869.9,1382,11.5,11.0,97,9.54,86,15.5,296.2,324.0,297.9
869.3,1388,11.5,11.0,97,9.51,86,15.4,296.3,324.0,297.9
868.8,1393,11.4,10.9,97,9.49,86,15.3,296.3,323.9,298.0
868.2,1399,11.4,10.9,97,9.48,86,15.3,296.3,323.9,298.0
867.6,1404,11.4,10.9,97,9.48,86,15.2,296.3,323.9,298.0
867.0,1410,11.3,10.9,97,9.50,86,15.1,296.3,324.0,298.0
866.4,1416,11.3,10.9,98,9.51,87,15.0,296.3,324.1,298.0
865.8,1422,11.3,10.9,97,9.50,87,15.0,296.4,324.1,298.1
865.2,1428,11.3,10.8,97,9.43,87,14.9,296.5,324.0,298.2
864.6,1434,11.3,10.6,95,9.32,87,14.8,296.6,323.8,298.2
864.0,1439,11.4,10.4,94,9.23,87,14.8,296.7,323.6,298.3
863.4,1445,11.4,10.3,93,9.16,87,14.7,296.7,323.5,298.4
862.8,1451,11.4,10.2,93,9.11,87,14.7,296.8,323.4,298.4
862.2,1456,11.3,10.2,93,9.10,87,14.6,296.8,323.4,298.4
861.7,1462,11.3,10.2,93,9.11,87,14.6,296.8,323.5,298.4
861.1,1467,11.3,10.2,93,9.12,87,14.5,296.8,323.5,298.5
860.6,1473,11.2,10.2,93,9.12,87,14.5,296.8,323.5,298.5
860.0,1478,11.2,10.2,94,9.12,87,14.5,296.8,323.5,298.5
859.4,1484,11.1,10.2,94,9.12,88,14.4,296.8,323.5,298.5
858.8,1489,11.1,10.2,94,9.11,88,14.4,296.9,323.5,298.5
858.2,1495,11.0,10.1,94,9.09,88,14.4,296.9,323.5,298.5
857.6,1501,11.0,10.0,94,9.05,88,14.4,296.9,323.4,298.5
857.0,1507,11.0,10.0,93,9.01,88,14.3,297.0,323.4,298.6
856.4,1513,11.0,9.9,93,8.99,88,14.3,297.0,323.4,298.6
855.8,1519,11.0,9.8,93,8.95,88,14.3,297.0,323.3,298.6
855.2,1524,10.9,9.8,93,8.93,88,14.3,297.1,323.2,298.7
854.7,1530,10.9,9.7,92,8.90,88,14.2,297.1,323.2,298.7
854.1,1536,10.9,9.7,92,8.88,88,14.2,297.1,323.1,298.7
853.5,1541,10.8,9.7,93,8.88,88,14.2,297.1,323.1,298.7
853.0,1546,10.8,9.7,93,8.87,88,14.2,297.1,323.1,298.7
852.5,1551,10.8,9.7,93,8.88,88,14.2,297.1,323.2,298.7
852.0,1556,10.7,9.7,93,8.90,89,14.1,297.2,323.3,298.8
851.5,1561,10.7,9.7,94,8.93,89,14.1,297.2,323.4,298.8
851.0,1566,10.7,9.8,94,8.96,89,14.1,297.2,323.5,298.8
850.5,1571,10.6,9.8,95,8.98,89,14.1,297.2,323.5,298.8
850.0,1576,10.6,9.7,94,8.95,89,14.1,297.2,323.5,298.8
849.6,1580,10.6,9.5,93,8.83,89,14.1,297.2,323.2,298.8
849.1,1585,10.6,9.1,91,8.60,89,14.2,297.3,322.5,298.8
848.6,1589,10.6,8.8,89,8.42,89,14.2,297.4,322.1,298.9
848.1,1594,10.6,8.7,88,8.37,89,14.2,297.4,322.1,298.9
847.6,1599,10.6,8.7,88,8.38,89,14.2,297.4,322.1,298.9
847.2,1604,10.5,8.7,89,8.38,89,14.3,297.4,322.1,298.9
846.7,1609,10.5,8.8,89,8.40,90,14.3,297.5,322.2,299.0
846.2,1613,10.5,8.8,90,8.44,90,14.3,297.5,322.3,299.0
845.7,1618,10.4,8.8,90,8.46,90,14.4,297.5,322.4,299.0
845.1,1624,10.4,8.9,90,8.48,90,14.4,297.5,322.4,299.0
844.6,1629,10.3,8.9,91,8.51,90,14.5,297.5,322.5,299.0
844.0,1635,10.3,9.0,91,8.56,90,14.5,297.5,322.7,299.1
843.4,1641,10.3,9.0,92,8.60,90,14.6,297.6,322.8,299.1
842.8,1646,10.2,9.0,92,8.61,90,14.6,297.6,322.9,299.1
842.2,1652,10.2,9.0,92,8.60,90,14.7,297.6,322.9,299.1
841.6,1658,10.2,9.0,92,8.57,90,14.7,297.6,322.8,299.2
841.1,1664,10.1,8.9,92,8.54,90,14.8,297.6,322.7,299.1
840.6,1669,10.1,8.8,92,8.50,90,14.8,297.6,322.6,299.1
840.0,1674,10.0,8.8,92,8.50,90,14.9,297.6,322.6,299.1
839.6,1679,10.0,8.8,92,8.51,91,14.9,297.6,322.6,299.1
839.1,1683,9.9,8.8,93,8.52,91,14.9,297.6,322.7,299.2
838.6,1688,9.9,8.9,93,8.55,91,15.0,297.6,322.8,299.2
838.2,1692,9.9,8.9,94,8.57,91,15.0,297.6,322.8,299.2
837.7,1697,9.8,9.0,94,8.61,91,15.0,297.6,322.9,299.2
837.3,1701,9.8,8.9,95,8.61,91,15.0,297.6,322.9,299.2
836.8,1706,9.7,8.9,95,8.59,91,15.0,297.6,322.9,299.2
836.4,1711,9.7,8.9,95,8.61,91,15.0,297.6,323.0,299.2
835.9,1715,9.6,9.0,96,8.64,91,15.0,297.6,323.0,299.2
835.4,1720,9.6,9.0,96,8.65,91,15.0,297.7,323.1,299.2
834.9,1725,9.6,8.9,96,8.63,91,15.0,297.7,323.0,299.2
834.5,1730,9.5,8.9,96,8.59,91,14.9,297.7,322.9,299.2
833.9,1735,9.5,8.9,96,8.61,91,14.9,297.7,323.0,299.2
833.4,1740,9.4,9.0,97,8.68,91,14.9,297.7,323.2,299.2
832.9,1745,9.4,9.0,98,8.71,91,14.8,297.7,323.3,299.2
832.4,1751,9.3,9.0,98,8.70,91,14.8,297.7,323.3,299.2
831.8,1756,9.3,9.0,98,8.67,91,14.8,297.7,323.2,299.2
831.3,1762,9.2,9.0,98,8.67,91,14.7,297.7,323.2,299.2
830.7,1767,9.2,9.0,99,8.69,91,14.7,297.7,323.3,299.3
830.2,1772,9.2,9.0,99,8.72,91,14.6,297.7,323.4,299.3
829.6,1778,9.1,9.1,100,8.78,91,14.6,297.8,323.6,299.3
829.1,1783,9.1,9.1,100,8.79,91,14.5,297.8,323.6,299.4
828.5,1789,9.1,9.1,100,8.79,91,14.4,297.8,323.7,299.4
828.0,1794,9.1,9.1,100,8.77,91,14.4,297.9,323.7,299.5
827.4,1800,9.1,9.0,100,8.76,91,14.3,297.9,323.7,299.5
826.9,1806,9.1,9.0,100,8.75,91,14.3,298.0,323.7,299.5
826.3,1811,9.0,9.0,100,8.73,91,14.2,298.0,323.7,299.6
825.8,1817,9.0,8.9,100,8.73,91,14.2,298.0,323.7,299.6
825.2,1822,9.0,8.9,100,8.71,91,14.1,298.0,323.7,299.6
824.7,1828,8.9,8.8,100,8.68,91,14.1,298.0,323.6,299.6
824.1,1833,8.9,8.8,100,8.66,91,14.0,298.0,323.5,299.6
823.6,1839,8.8,8.8,100,8.67,91,14.0,298.1,323.6,299.6
823.0,1844,8.8,8.8,100,8.69,90,14.0,298.1,323.7,299.7
822.5,1849,8.8,8.8,100,8.67,90,13.9,298.1,323.7,299.7
822.0,1855,8.8,8.8,100,8.66,90,13.9,298.1,323.6,299.7
821.5,1860,8.7,8.7,100,8.64,90,13.9,298.1,323.6,299.7
821.0,1865,8.7,8.7,100,8.65,90,13.8,298.2,323.7,299.8
820.5,1870,8.7,8.7,100,8.66,90,13.8,298.3,323.8,299.8
820.0,1874,8.7,8.7,100,8.67,89,13.8,298.3,323.9,299.9
819.6,1879,8.8,8.8,100,8.68,89,13.8,298.4,324.0,299.9
819.1,1883,8.8,8.8,100,8.69,89,13.8,298.4,324.1,300.0
818.7,1888,8.7,8.7,100,8.68,89,13.7,298.5,324.1,300.0
818.2,1892,8.7,8.7,100,8.68,89,13.7,298.5,324.1,300.1
817.8,1897,8.7,8.7,100,8.66,89,13.7,298.5,324.0,300.1
817.3,1902,8.7,8.7,100,8.65,88,13.7,298.5,324.0,300.1
816.9,1906,8.6,8.6,100,8.64,88,13.7,298.6,324.1,300.1
816.4,1911,8.6,8.6,100,8.64,88,13.7,298.6,324.1,300.1
816.0,1915,8.6,8.6,100,8.64,88,13.7,298.6,324.1,300.2
815.6,1920,8.6,8.6,100,8.63,88,13.8,298.6,324.1,300.2
815.1,1924,8.6,8.6,100,8.62,88,13.8,298.7,324.1,300.2
814.6,1929,8.5,8.5,100,8.61,88,13.8,298.7,324.1,300.2
814.1,1934,8.5,8.5,100,8.61,87,13.8,298.7,324.2,300.3
813.6,1939,8.5,8.5,100,8.59,87,13.8,298.7,324.1,300.3
813.1,1945,8.5,8.5,100,8.58,87,13.8,298.8,324.1,300.3
812.5,1950,8.4,8.4,100,8.57,87,13.8,298.8,324.1,300.3
812.0,1956,8.4,8.4,100,8.55,87,13.8,298.8,324.1,300.3
811.4,1962,8.3,8.3,100,8.53,87,13.9,298.8,324.0,300.3
810.8,1968,8.3,8.3,100,8.52,87,13.9,298.8,324.0,300.4
810.3,1974,8.3,8.3,100,8.51,87,13.9,298.9,324.0,300.4
809.7,1979,8.3,8.3,100,8.50,87,13.9,298.9,324.1,300.4
809.2,1984,8.2,8.2,100,8.49,87,13.9,298.9,324.0,300.5
808.7,1990,8.2,8.2,100,8.48,87,13.9,299.0,324.1,300.5
