PRES,HGHT,TEMP,DWPT,RELH,MIXR,DRCT,SPED,THTA,THTE,THTV
1010.7,31,25.5,22.0,81,16.71,183,6.0,297.7,346.4,300.7
1009.9,38,25.0,21.5,81,16.20,182,4.2,297.3,344.3,300.2
1009.3,43,24.8,21.5,82,16.23,181,3.9,297.2,344.3,300.0
1008.7,48,24.7,21.5,82,16.17,181,4.1,297.1,344.0,300.0
1008.0,54,24.6,21.3,82,16.05,181,4.4,297.1,343.6,299.9
1007.4,60,24.5,21.3,82,16.02,181,4.7,297.1,343.5,299.9
1006.7,65,24.5,21.2,82,15.99,181,5.0,297.1,343.5,299.9
1006.1,70,24.5,21.2,82,15.92,180,5.3,297.1,343.3,300.0
1005.5,76,24.4,21.1,82,15.87,180,5.5,297.1,343.2,299.9
1004.9,81,24.4,21.0,82,15.81,180,5.8,297.1,343.0,299.9
1004.2,87,24.3,21.0,82,15.77,179,6.0,297.1,342.9,299.9
1003.6,93,24.3,21.0,82,15.78,179,6.2,297.1,342.9,299.9
1002.9,99,24.2,21.0,82,15.83,179,6.4,297.1,343.1,299.9
1002.2,105,24.2,21.0,83,15.85,178,6.6,297.1,343.2,300.0
1001.5,111,24.1,21.0,83,15.86,178,6.8,297.2,343.2,300.0
1000.8,117,24.1,21.0,83,15.84,177,6.9,297.2,343.2,300.0
1000.0,124,24.0,20.9,83,15.74,176,7.2,297.1,342.8,299.9
999.3,130,23.9,20.8,83,15.68,176,7.2,297.1,342.6,299.9
998.6,137,23.8,20.9,84,15.75,176,7.3,297.1,342.8,299.9
997.8,144,23.9,21.0,84,15.84,175,7.4,297.2,343.2,300.0
997.0,150,23.8,20.9,84,15.80,175,7.5,297.2,343.1,300.0
996.3,157,23.7,20.8,84,15.75,174,7.5,297.2,342.9,300.0
995.5,164,23.7,20.9,84,15.80,174,7.5,297.2,343.1,300.0
994.7,170,23.7,21.0,85,15.89,173,7.6,297.3,343.4,300.1
994.0,177,23.6,20.9,85,15.88,172,7.6,297.3,343.4,300.1
993.2,184,23.5,20.9,85,15.83,172,7.6,297.2,343.2,300.1
992.4,191,23.4,20.9,85,15.84,171,7.6,297.2,343.2,300.1
991.6,198,23.4,20.9,86,15.87,171,7.5,297.3,343.4,300.1
990.8,205,23.3,20.9,86,15.86,171,7.5,297.3,343.3,300.1
990.0,212,23.2,20.9,86,15.87,170,7.5,297.2,343.3,300.1
989.2,219,23.1,20.8,87,15.82,170,7.4,297.2,343.1,300.0
988.4,227,23.0,20.7,87,15.73,169,7.4,297.1,342.8,299.9
987.6,234,22.9,20.6,87,15.70,169,7.3,297.1,342.7,299.9
986.8,241,22.8,20.6,87,15.71,169,7.3,297.1,342.7,299.9
986.0,248,22.8,20.7,88,15.76,168,7.2,297.2,342.9,300.0
985.2,254,22.8,20.7,88,15.84,168,7.1,297.2,343.2,300.0
984.5,261,22.8,20.8,89,15.95,168,7.1,297.2,343.6,300.1
983.7,268,22.8,20.9,89,16.01,168,7.0,297.3,343.8,300.2
982.9,275,22.7,20.8,89,15.98,167,6.9,297.3,343.7,300.2
982.1,282,22.6,20.8,89,15.90,167,6.8,297.3,343.5,300.1
981.3,289,22.6,20.7,89,15.85,167,6.8,297.3,343.3,300.1
980.5,296,22.5,20.7,90,15.84,167,6.7,297.3,343.3,300.1
979.7,303,22.4,20.7,90,15.86,167,6.7,297.3,343.4,300.1
978.9,311,22.4,20.7,90,15.88,166,6.6,297.3,343.5,300.2
978.1,318,22.3,20.7,91,15.88,166,6.5,297.3,343.4,300.1
977.4,325,22.2,20.7,91,15.88,166,6.5,297.3,343.4,300.1
976.6,332,22.1,20.7,92,15.89,166,6.4,297.2,343.4,300.1
975.8,338,22.0,20.7,92,15.90,165,6.4,297.2,343.4,300.1
975.0,345,22.0,20.7,92,15.93,165,6.3,297.3,343.5,300.1
974.3,352,21.9,20.6,93,15.92,165,6.3,297.3,343.5,300.1
973.5,359,21.8,20.6,93,15.91,165,6.2,297.3,343.5,300.1
972.7,366,21.8,20.6,93,15.93,164,6.2,297.3,343.6,300.1
971.9,373,21.8,20.6,93,15.95,164,6.1,297.3,343.6,300.1
971.2,380,21.7,20.6,94,15.94,164,6.1,297.3,343.6,300.2
970.4,387,21.6,20.6,94,15.94,164,6.0,297.3,343.6,300.2
969.6,394,21.5,20.5,94,15.88,163,6.0,297.3,343.4,300.1
968.9,401,21.4,20.4,94,15.78,163,5.9,297.2,343.0,300.0
968.1,408,21.3,20.4,95,15.75,163,5.9,297.2,342.9,300.0
967.3,415,21.2,20.4,95,15.79,163,5.9,297.2,343.0,300.0
966.5,422,21.1,20.4,96,15.82,163,5.9,297.2,343.1,300.0
965.7,429,21.0,20.4,96,15.83,163,5.8,297.1,343.1,300.0
964.9,436,21.0,20.4,97,15.84,163,5.8,297.1,343.1,299.9
964.1,444,20.9,20.4,97,15.83,164,5.8,297.1,343.0,299.9
963.3,451,20.8,20.3,97,15.78,164,5.8,297.1,342.9,299.9
962.4,459,20.7,20.3,97,15.76,164,5.8,297.1,342.8,299.9
961.6,466,20.7,20.3,98,15.76,165,5.8,297.1,342.8,299.9
960.8,473,20.6,20.3,98,15.77,165,5.8,297.1,342.9,299.9
960.0,481,20.5,20.3,98,15.79,166,5.9,297.1,342.9,299.9
959.2,488,20.4,20.2,99,15.75,166,5.9,297.1,342.8,299.9
958.4,495,20.4,20.2,99,15.74,167,6.0,297.1,342.8,299.9
957.6,502,20.3,20.2,100,15.80,168,6.0,297.1,342.9,299.9
956.9,508,20.2,20.2,100,15.78,168,6.1,297.1,342.9,299.9
956.2,515,20.2,20.2,100,15.73,169,6.2,297.1,342.7,299.9
955.5,521,20.1,20.1,100,15.71,170,6.2,297.1,342.7,299.9
954.8,527,20.1,20.1,100,15.70,171,6.3,297.2,342.7,299.9
954.2,534,20.1,20.1,100,15.69,171,6.4,297.2,342.7,300.0
953.5,540,20.1,20.1,100,15.68,172,6.5,297.2,342.7,300.0
952.8,545,20.0,20.0,100,15.65,173,6.6,297.2,342.7,300.0
952.2,551,20.0,20.0,100,15.64,173,6.7,297.3,342.7,300.1
951.6,557,20.0,20.0,100,15.62,174,6.8,297.3,342.7,300.1
950.9,563,19.9,19.9,100,15.60,175,6.9,297.3,342.6,300.1
950.3,568,19.9,19.9,100,15.56,175,7.0,297.3,342.5,300.1
949.8,573,19.8,19.8,100,15.51,176,7.1,297.3,342.4,300.1
949.2,579,19.7,19.7,100,15.44,176,7.2,297.3,342.1,300.0
948.6,584,19.7,19.7,100,15.41,177,7.3,297.3,342.1,300.0
948.1,589,19.7,19.6,100,15.32,177,7.4,297.3,341.8,300.0
947.5,594,19.6,19.3,98,15.01,177,7.5,297.2,340.8,299.9
947.0,599,19.4,18.9,97,14.64,178,7.6,297.1,339.6,299.7
946.4,604,19.3,18.7,96,14.48,178,7.6,297.1,339.1,299.7
945.9,609,19.3,18.7,96,14.46,178,7.7,297.1,339.1,299.7
945.3,614,19.2,18.7,97,14.52,178,7.8,297.1,339.3,299.7
944.8,619,19.2,18.8,97,14.57,179,7.8,297.1,339.4,299.7
944.3,624,19.2,18.8,98,14.59,179,7.9,297.1,339.5,299.7
943.7,629,19.1,18.8,98,14.60,179,7.9,297.2,339.6,299.8
943.2,634,19.1,18.7,98,14.57,179,7.9,297.2,339.5,299.8
942.6,639,19.1,18.7,97,14.52,179,8.0,297.2,339.4,299.8
942.1,643,19.0,18.6,97,14.48,179,8.0,297.2,339.2,299.8
941.6,648,19.0,18.6,98,14.47,180,8.0,297.2,339.2,299.8
941.0,653,19.0,18.5,97,14.43,180,8.0,297.2,339.1,299.8
940.5,658,19.0,18.5,97,14.36,180,8.0,297.3,339.0,299.8
939.9,663,18.9,18.4,97,14.31,180,8.0,297.3,338.9,299.9
939.4,669,18.9,18.3,96,14.27,180,8.0,297.3,338.8,299.9
938.8,674,18.9,18.3,96,14.25,180,8.0,297.3,338.8,299.9
938.2,679,18.8,18.3,97,14.25,181,8.0,297.4,338.8,299.9
937.7,684,18.8,18.3,97,14.26,181,8.0,297.4,338.8,299.9
937.1,689,18.8,18.3,97,14.23,181,7.9,297.4,338.7,299.9
936.5,695,18.7,18.2,97,14.21,181,7.9,297.4,338.7,299.9
935.9,700,18.7,18.2,97,14.21,182,7.9,297.4,338.7,299.9
935.3,706,18.6,18.2,97,14.21,182,7.9,297.4,338.7,300.0
934.7,711,18.6,18.2,97,14.19,182,7.9,297.4,338.7,300.0
934.2,716,18.6,18.1,97,14.15,183,7.8,297.4,338.6,300.0
933.6,722,18.5,18.1,97,14.13,183,7.8,297.5,338.6,300.0
933.1,727,18.5,18.1,98,14.14,183,7.8,297.5,338.6,300.0
932.5,732,18.5,18.1,98,14.15,184,7.8,297.5,338.6,300.0
932.0,737,18.4,18.1,98,14.16,184,7.8,297.5,338.7,300.0
931.4,741,18.4,18.0,98,14.12,184,7.7,297.5,338.6,300.0
930.9,747,18.4,17.9,97,14.04,185,7.7,297.6,338.4,300.1
930.4,752,18.4,17.8,96,13.89,185,7.7,297.6,338.1,300.1
929.8,757,18.4,17.6,95,13.73,186,7.7,297.7,337.7,300.2
929.3,762,18.5,17.4,94,13.61,186,7.6,297.8,337.5,300.2
928.7,767,18.5,17.3,93,13.52,186,7.6,297.9,337.3,300.3
928.2,772,18.5,17.3,92,13.47,187,7.6,297.9,337.2,300.4
927.6,777,18.5,17.2,92,13.41,187,7.6,298.0,337.1,300.4
927.1,782,18.5,17.1,92,13.35,188,7.5,298.0,337.0,300.4
926.5,787,18.5,17.1,92,13.37,188,7.5,298.1,337.1,300.5
926.0,792,18.5,17.2,92,13.42,188,7.5,298.1,337.2,300.5
925.4,797,18.4,17.2,93,13.47,189,7.5,298.1,337.4,300.5
925.0,801,18.4,17.2,93,13.47,189,7.5,298.1,337.4,300.5
924.9,802,18.4,17.2,93,13.47,189,7.5,298.1,337.4,300.5
924.3,808,18.3,17.2,93,13.45,189,7.4,298.1,337.3,300.5
923.8,813,18.3,17.1,93,13.38,190,7.4,298.1,337.2,300.5
923.2,818,18.3,17.1,93,13.37,190,7.4,298.1,337.1,300.5
922.6,823,18.2,17.1,93,13.38,190,7.4,298.1,337.2,300.5
922.0,829,18.1,17.1,93,13.39,191,7.3,298.1,337.2,300.5
921.5,834,18.1,17.0,94,13.38,191,7.3,298.1,337.2,300.5
920.9,840,18.0,17.0,94,13.36,191,7.3,298.1,337.1,300.5
920.3,845,17.9,17.0,94,13.35,191,7.3,298.1,337.0,300.5
919.8,850,17.9,17.0,94,13.34,192,7.2,298.0,337.0,300.4
919.2,855,17.8,16.9,95,13.33,192,7.2,298.0,336.9,300.4
918.7,860,17.8,16.9,95,13.32,192,7.2,298.0,336.9,300.4
918.3,864,17.7,16.9,95,13.34,192,7.2,298.1,337.0,300.4
917.8,868,17.7,17.0,95,13.36,192,7.2,298.1,337.0,300.4
917.4,873,17.7,17.0,96,13.37,192,7.2,298.1,337.1,300.5
916.9,877,17.7,17.0,96,13.37,192,7.2,298.1,337.1,300.5
916.5,881,17.7,16.9,95,13.35,192,7.1,298.1,337.1,300.5
916.0,885,17.7,16.9,95,13.30,192,7.1,298.2,337.0,300.6
915.6,889,17.7,16.8,95,13.26,191,7.1,298.2,336.9,300.6
915.2,893,17.6,16.8,95,13.24,191,7.1,298.2,336.9,300.6
914.7,897,17.6,16.7,95,13.22,191,7.1,298.3,336.9,300.6
914.3,902,17.6,16.7,95,13.19,191,7.1,298.3,336.8,300.6
913.8,906,17.6,16.6,94,13.15,190,7.1,298.3,336.7,300.6
913.3,911,17.5,16.6,94,13.09,190,7.1,298.3,336.5,300.6
912.8,915,17.5,16.5,94,13.02,190,7.1,298.3,336.4,300.7
912.3,920,17.5,16.4,93,12.96,189,7.1,298.4,336.2,300.7
911.8,925,17.5,16.4,93,12.97,189,7.1,298.4,336.3,300.7
911.3,930,17.4,16.5,94,13.04,189,7.1,298.4,336.5,300.7
910.7,935,17.4,16.5,95,13.10,188,7.1,298.4,336.7,300.8
910.2,939,17.3,16.5,95,13.10,188,7.1,298.4,336.7,300.8
909.7,944,17.3,16.5,95,13.08,188,7.1,298.4,336.6,300.8
909.2,949,17.3,16.4,95,13.05,187,7.0,298.4,336.6,300.8
908.8,953,17.2,16.4,95,13.05,187,7.0,298.4,336.6,300.8
908.3,958,17.2,16.4,95,13.04,187,7.0,298.4,336.5,300.8
907.9,962,17.2,16.4,95,13.04,187,7.0,298.4,336.5,300.8
907.4,966,17.1,16.4,95,13.04,187,6.9,298.5,336.6,300.8
907.0,970,17.1,16.4,96,13.03,186,6.9,298.5,336.6,300.8
906.6,974,17.1,16.4,96,13.01,186,6.9,298.5,336.5,300.8
906.2,977,17.1,16.3,96,13.00,186,6.8,298.5,336.5,300.8
905.8,981,17.0,16.3,96,13.00,186,6.8,298.5,336.5,300.8
905.4,985,17.0,16.3,96,13.01,186,6.7,298.5,336.6,300.9
905.0,989,17.0,16.3,96,13.03,186,6.7,298.5,336.6,300.9
904.6,993,17.0,16.3,96,13.02,186,6.6,298.6,336.6,300.9
904.1,997,17.0,16.3,96,13.01,186,6.6,298.6,336.6,300.9
903.7,1001,16.9,16.3,96,13.00,186,6.5,298.6,336.6,300.9
903.2,1006,16.9,16.3,96,12.99,186,6.4,298.6,336.6,301.0
902.7,1010,16.9,16.2,96,12.95,187,6.4,298.7,336.6,301.0
902.2,1015,17.0,16.1,95,12.90,187,6.3,298.8,336.5,301.1
901.7,1020,17.0,16.1,94,12.86,187,6.2,298.8,336.5,301.1
901.2,1024,17.0,16.0,94,12.80,187,6.1,298.9,336.3,301.2
900.7,1029,16.9,15.9,94,12.75,187,6.0,298.9,336.3,301.2
900.2,1034,16.9,15.9,94,12.75,187,6.0,298.9,336.2,301.2
899.8,1039,16.9,15.9,94,12.77,187,5.9,298.9,336.3,301.2
899.3,1043,16.8,16.0,95,12.82,188,5.8,298.9,336.4,301.2
898.8,1048,16.7,16.0,96,12.86,188,5.7,298.8,336.5,301.1
898.3,1053,16.7,16.1,96,12.88,188,5.6,298.8,336.5,301.1
897.8,1057,16.6,16.0,96,12.87,188,5.5,298.8,336.5,301.1
897.3,1062,16.6,16.0,96,12.85,188,5.4,298.8,336.5,301.1
896.8,1066,16.5,16.0,96,12.83,189,5.3,298.8,336.4,301.1
896.3,1071,16.5,15.9,96,12.79,189,5.2,298.9,336.3,301.1
895.9,1075,16.5,15.9,96,12.76,190,5.1,298.9,336.2,301.2
895.4,1080,16.5,15.8,96,12.72,190,5.1,298.9,336.2,301.2
895.0,1084,16.4,15.8,96,12.70,191,5.0,298.9,336.1,301.2
894.6,1088,16.4,15.8,96,12.70,191,4.9,298.9,336.1,301.2
894.2,1092,16.4,15.8,96,12.72,192,4.8,298.9,336.2,301.2
893.7,1096,16.3,15.8,97,12.73,192,4.8,298.9,336.2,301.2
893.3,1100,16.3,15.8,97,12.74,193,4.7,299.0,336.3,301.2
892.8,1105,16.3,15.8,96,12.72,194,4.7,299.0,336.3,301.3
892.3,1109,16.3,15.7,96,12.69,195,4.6,299.1,336.3,301.3
891.8,1114,16.3,15.7,96,12.66,196,4.6,299.1,336.2,301.4
891.3,1119,16.3,15.7,96,12.65,196,4.6,299.1,336.2,301.4
890.8,1124,16.3,15.7,96,12.67,197,4.6,299.1,336.3,301.4
890.2,1130,16.2,15.6,96,12.66,198,4.6,299.1,336.3,301.4
889.7,1135,16.2,15.6,96,12.62,199,4.6,299.1,336.1,301.4
889.1,1140,16.1,15.5,96,12.55,199,4.7,299.1,336.0,301.4
888.6,1145,16.1,15.4,96,12.50,200,4.7,299.2,335.8,301.4
888.2,1149,16.1,15.4,96,12.46,200,4.7,299.2,335.7,301.4
887.7,1154,16.1,15.3,95,12.43,201,4.8,299.2,335.7,301.5
887.2,1158,16.0,15.3,95,12.44,201,4.9,299.3,335.8,301.5
886.8,1162,16.0,15.3,96,12.45,201,4.9,299.3,335.8,301.5
886.4,1167,16.0,15.4,96,12.48,201,5.0,299.3,335.9,301.5
885.9,1171,15.9,15.4,97,12.51,201,5.1,299.3,336.0,301.5
885.5,1175,15.9,15.4,97,12.53,201,5.2,299.2,336.0,301.5
885.0,1179,15.8,15.4,97,12.54,201,5.2,299.2,336.0,301.5
884.6,1184,15.8,15.4,98,12.55,200,5.3,299.2,336.1,301.5
884.1,1188,15.7,15.4,98,12.57,200,5.4,299.2,336.1,301.5
883.7,1192,15.7,15.5,99,12.62,199,5.5,299.2,336.2,301.5
883.2,1197,15.6,15.5,99,12.64,198,5.6,299.2,336.2,301.4
882.8,1201,15.5,15.4,99,12.60,198,5.7,299.2,336.1,301.4
882.3,1206,15.5,15.4,99,12.55,197,5.8,299.2,336.0,301.4
881.8,1211,15.5,15.3,99,12.51,196,5.9,299.2,335.9,301.5
881.3,1215,15.5,15.3,99,12.48,195,5.9,299.3,335.9,301.5
880.8,1220,15.5,15.2,98,12.46,195,6.0,299.3,335.9,301.5
880.3,1225,15.5,15.2,98,12.44,194,6.1,299.3,335.8,301.5
879.8,1230,15.4,15.1,98,12.40,193,6.1,299.3,335.7,301.6
879.3,1235,15.4,15.1,98,12.34,192,6.2,299.4,335.6,301.6
878.8,1240,15.4,15.0,98,12.29,191,6.3,299.4,335.5,301.6
878.3,1245,15.4,14.9,97,12.26,191,6.3,299.4,335.4,301.6
877.8,1249,15.4,14.9,97,12.24,190,6.4,299.4,335.4,301.6
877.3,1254,15.3,14.9,97,12.25,189,6.4,299.5,335.5,301.7
876.8,1259,15.3,14.9,98,12.28,189,6.4,299.5,335.6,301.7
876.3,1264,15.2,15.0,98,12.32,188,6.5,299.5,335.7,301.7
875.7,1269,15.2,15.0,99,12.33,188,6.5,299.5,335.7,301.7
875.2,1275,15.1,15.0,99,12.34,187,6.5,299.5,335.7,301.7
874.6,1280,15.1,15.0,99,12.33,187,6.5,299.5,335.7,301.7
874.0,1286,15.0,14.9,99,12.31,186,6.5,299.5,335.6,301.7
873.5,1291,15.0,14.9,99,12.28,186,6.5,299.5,335.6,301.7
873.0,1296,14.9,14.8,99,12.24,186,6.5,299.5,335.4,301.7
872.4,1301,14.9,14.8,99,12.22,186,6.5,299.5,335.4,301.7
871.9,1306,14.9,14.8,99,12.22,186,6.5,299.5,335.4,301.7
871.4,1311,14.8,14.8,100,12.23,185,6.5,299.5,335.5,301.7
870.9,1316,14.8,14.8,100,12.23,185,6.5,299.5,335.5,301.7
870.4,1321,14.7,14.7,100,12.19,185,6.5,299.5,335.4,301.7
869.9,1326,14.7,14.7,100,12.16,185,6.5,299.6,335.3,301.7
869.3,1332,14.7,14.6,100,12.14,185,6.5,299.6,335.3,301.8
868.8,1337,14.7,14.6,100,12.14,185,6.5,299.6,335.4,301.8
868.2,1342,14.7,14.6,100,12.15,186,6.5,299.7,335.4,301.9
867.7,1348,14.6,14.6,100,12.13,186,6.4,299.7,335.4,301.9
867.1,1354,14.6,14.6,100,12.10,186,6.4,299.7,335.3,301.9
866.5,1359,14.6,14.5,99,12.06,186,6.4,299.8,335.2,301.9
865.9,1365,14.6,14.4,99,11.99,186,6.4,299.8,335.1,302.0
865.3,1371,14.6,14.3,98,11.92,186,6.4,299.9,335.0,302.0
864.7,1377,14.6,14.3,98,11.92,186,6.4,299.9,335.0,302.1
864.1,1383,14.5,14.3,98,11.92,187,6.4,299.9,335.0,302.1
863.5,1389,14.5,14.3,99,11.93,187,6.4,300.0,335.1,302.1
862.9,1395,14.4,14.3,99,11.93,187,6.4,300.0,335.1,302.1
862.2,1401,14.4,14.3,99,11.94,187,6.4,300.0,335.2,302.1
861.6,1407,14.3,14.3,99,11.94,187,6.4,300.0,335.2,302.1
861.0,1413,14.3,14.2,99,11.92,188,6.4,300.0,335.1,302.1
860.4,1419,14.2,14.1,99,11.87,188,6.4,300.0,335.0,302.1
859.8,1426,14.2,14.1,99,11.82,188,6.4,300.0,334.9,302.2
859.1,1432,14.2,14.0,99,11.80,188,6.4,300.1,334.9,302.2
858.5,1438,14.1,14.0,99,11.82,188,6.4,300.1,334.9,302.2
857.9,1444,14.1,14.0,100,11.82,189,6.4,300.1,334.9,302.2
857.3,1450,14.0,14.0,100,11.82,189,6.4,300.1,334.9,302.2
856.6,1456,14.0,14.0,100,11.81,189,6.4,300.1,335.0,302.3
856.0,1462,14.0,14.0,100,11.81,189,6.4,300.2,335.0,302.3
855.4,1468,14.0,14.0,100,11.82,189,6.4,300.2,335.1,302.4
854.8,1474,14.0,14.0,100,11.82,190,6.5,300.3,335.2,302.4
854.2,1480,14.0,14.0,100,11.82,190,6.5,300.3,335.2,302.5
853.6,1486,13.9,13.9,100,11.81,190,6.5,300.4,335.2,302.5
853.1,1492,13.9,13.9,100,11.81,190,6.5,300.4,335.3,302.5
852.5,1497,14.0,14.0,100,11.84,190,6.5,300.5,335.4,302.6
851.9,1503,14.0,14.0,100,11.89,190,6.5,300.6,335.8,302.8
851.4,1508,14.0,14.0,100,11.92,190,6.5,300.7,335.9,302.9
850.8,1514,14.0,14.0,100,11.92,190,6.6,300.7,336.0,302.9
850.3,1519,14.0,14.0,100,11.89,190,6.6,300.7,335.9,302.9
850.0,1522,14.0,14.0,100,11.88,190,6.6,300.8,335.9,302.9
849.7,1525,13.9,13.9,100,11.86,190,6.6,300.8,335.8,302.9
849.2,1530,13.9,13.9,100,11.85,191,6.6,300.8,335.8,302.9
848.6,1536,13.9,13.9,100,11.85,191,6.6,300.8,335.9,303.0
848.1,1542,13.9,13.9,100,11.84,191,6.6,300.9,335.9,303.0
847.5,1547,13.9,13.8,100,11.82,191,6.6,300.9,335.9,303.0
847.0,1553,13.8,13.8,100,11.80,191,6.6,300.9,335.8,303.0
846.4,1558,13.8,13.8,100,11.78,191,6.6,300.9,335.8,303.1
845.9,1563,13.8,13.8,100,11.78,191,6.5,301.0,335.8,303.1
845.3,1569,13.7,13.7,100,11.78,191,6.5,301.0,335.9,303.1
844.8,1575,13.7,13.7,100,11.77,192,6.5,301.0,335.9,303.2
844.2,1580,13.7,13.7,100,11.77,192,6.5,301.1,335.9,303.2
843.7,1585,13.7,13.7,100,11.76,192,6.4,301.1,335.9,303.2
843.1,1591,13.7,13.7,100,11.74,193,6.4,301.2,335.9,303.3
842.6,1596,13.6,13.6,100,11.69,193,6.4,301.2,335.8,303.3
842.1,1601,13.6,13.5,99,11.64,194,6.3,301.2,335.7,303.3
841.6,1606,13.5,13.5,100,11.62,194,6.3,301.2,335.6,303.3
841.1,1611,13.5,13.5,100,11.63,195,6.3,301.2,335.6,303.3
840.6,1617,13.5,13.5,100,11.65,195,6.2,301.2,335.7,303.3
840.0,1622,13.5,13.5,100,11.65,196,6.2,301.3,335.8,303.4
839.5,1627,13.5,13.5,100,11.65,197,6.1,301.3,335.8,303.4
838.9,1633,13.5,13.5,100,11.65,198,6.1,301.4,335.9,303.5
838.4,1638,13.5,13.5,100,11.65,199,6.1,301.4,335.9,303.5
837.8,1644,13.4,13.4,100,11.65,200,6.0,301.5,336.0,303.6
837.3,1650,13.4,13.4,100,11.63,201,6.0,301.5,336.0,303.6
836.7,1655,13.4,13.4,100,11.63,202,6.0,301.5,336.0,303.6
836.2,1661,13.4,13.4,100,11.61,203,6.0,301.5,336.0,303.6
835.6,1666,13.3,13.3,100,11.60,205,6.0,301.6,336.0,303.7
835.1,1672,13.3,13.3,100,11.59,206,6.0,301.6,336.0,303.7
834.5,1677,13.3,13.3,100,11.56,207,6.0,301.6,336.0,303.7
834.0,1683,13.2,13.2,100,11.53,208,6.0,301.6,335.8,303.7
833.5,1688,13.2,13.2,100,11.50,209,6.0,301.6,335.8,303.7
833.0,1693,13.2,13.2,100,11.50,210,6.0,301.7,335.8,303.7
832.5,1698,13.1,13.1,100,11.49,211,6.0,301.7,335.8,303.8
832.0,1703,13.1,13.1,100,11.48,212,6.0,301.7,335.8,303.8
831.5,1708,13.1,13.1,100,11.44,213,6.0,301.7,335.7,303.8
831.0,1713,13.0,13.0,100,11.40,214,6.0,301.7,335.5,303.7
830.4,1719,13.0,13.0,100,11.38,214,6.0,301.7,335.5,303.8
829.9,1725,13.0,13.0,100,11.38,215,6.1,301.8,335.6,303.8
829.3,1730,13.0,13.0,100,11.40,215,6.1,301.8,335.7,303.9
828.7,1736,12.9,12.9,100,11.35,215,6.1,301.9,335.6,303.9
828.2,1742,12.9,12.8,99,11.26,215,6.1,301.9,335.3,303.9
827.6,1748,12.8,12.7,99,11.26,215,6.1,301.9,335.3,303.9
827.0,1754,12.8,12.8,100,11.29,215,6.1,301.9,335.5,304.0
826.4,1760,12.8,12.8,100,11.32,215,6.1,302.0,335.6,304.0
825.9,1766,12.8,12.8,100,11.32,214,6.1,302.0,335.7,304.1
825.3,1772,12.8,12.8,100,11.30,213,6.1,302.0,335.7,304.1
824.7,1778,12.7,12.7,100,11.29,213,6.1,302.1,335.7,304.1
824.1,1784,12.7,12.7,100,11.27,212,6.1,302.1,335.6,304.1
823.5,1790,12.7,12.6,100,11.24,211,6.1,302.1,335.6,304.1
822.9,1796,12.6,12.6,100,11.21,210,6.1,302.1,335.5,304.1
822.3,1801,12.5,12.5,100,11.17,208,6.1,302.1,335.4,304.1
821.8,1807,12.5,12.5,100,11.16,207,6.2,302.1,335.3,304.2
821.2,1813,12.5,12.5,100,11.14,206,6.2,302.2,335.3,304.2
820.7,1819,12.4,12.4,100,11.13,205,6.2,302.2,335.3,304.2
820.1,1825,12.4,12.4,100,11.12,203,6.2,302.2,335.3,304.2
819.5,1831,12.4,12.4,100,11.13,202,6.3,302.3,335.4,304.3
818.9,1837,12.4,12.4,100,11.15,201,6.3,302.4,335.6,304.4
818.3,1843,12.5,12.5,100,11.17,200,6.3,302.4,335.7,304.5
817.7,1849,12.4,12.4,100,11.16,199,6.4,302.5,335.7,304.5
817.1,1855,12.4,12.4,100,11.13,198,6.4,302.5,335.7,304.5
816.5,1861,12.3,12.3,100,11.11,197,6.5,302.5,335.7,304.5
816.0,1867,12.3,12.3,100,11.09,196,6.5,302.5,335.6,304.6
815.5,1872,12.3,12.3,100,11.07,196,6.5,302.6,335.6,304.6
815.0,1877,12.2,12.2,100,11.02,195,6.6,302.5,335.4,304.6
814.6,1881,12.1,12.1,100,10.94,195,6.6,302.5,335.1,304.5
814.2,1885,12.0,12.0,100,10.89,195,6.7,302.4,334.9,304.4
813.8,1890,12.0,12.0,100,10.89,195,6.7,302.5,334.9,304.4
813.4,1894,12.0,12.0,100,10.90,195,6.8,302.5,335.0,304.5
812.9,1898,12.0,12.0,100,10.89,195,6.8,302.5,335.0,304.5
812.5,1903,11.9,11.9,100,10.87,196,6.8,302.5,335.0,304.5
812.0,1907,11.9,11.9,100,10.87,196,6.9,302.5,335.0,304.5
811.5,1913,11.9,11.9,100,10.86,197,6.9,302.6,335.0,304.6
811.0,1918,11.9,11.9,100,10.86,198,6.9,302.7,335.1,304.6
810.5,1923,11.9,11.8,99,10.79,199,7.0,302.7,334.9,304.6
810.0,1929,11.8,11.7,99,10.73,200,7.0,302.7,334.7,304.6
809.4,1935,11.8,11.7,99,10.70,201,7.0,302.7,334.6,304.6
808.8,1941,11.7,11.7,100,10.73,202,7.0,302.7,334.7,304.6
808.3,1946,11.7,11.7,100,10.73,203,7.0,302.7,334.7,304.6
807.7,1952,11.7,11.7,100,10.74,204,7.1,302.7,334.8,304.7
807.2,1957,11.6,11.6,100,10.73,206,7.1,302.8,334.8,304.7
806.7,1963,11.6,11.6,100,10.72,207,7.1,302.8,334.8,304.7
