PRES,HGHT,TEMP,DWPT,RELH,MIXR,DRCT,SPED,THTA,THTE,THTV
1016.8,31,23.8,21.1,85,15.72,94,9.8,295.5,340.9,298.3
1016.0,38,23.5,21.6,89,16.18,84,5.9,295.3,341.9,298.2
1015.2,44,23.3,21.5,89,16.06,82,5.7,295.2,341.4,298.0
1014.6,49,23.1,21.3,90,15.94,82,5.9,295.0,340.8,297.8
1014.0,54,22.9,21.3,90,15.88,83,6.4,294.9,340.5,297.7
1013.0,63,22.8,21.2,91,15.88,84,6.9,294.9,340.6,297.7
1012.4,68,22.8,21.2,91,15.81,85,7.4,294.9,340.4,297.7
1011.7,75,22.7,21.0,90,15.65,86,7.8,294.8,339.8,297.6
1011.0,81,22.5,20.8,91,15.52,86,8.2,294.7,339.3,297.4
1010.2,87,22.2,20.7,91,15.35,87,8.5,294.5,338.5,297.2
1009.5,93,22.0,20.5,91,15.22,87,8.9,294.4,338.0,297.0
1008.8,99,21.9,20.4,91,15.12,87,9.2,294.3,337.6,296.9
1008.1,105,21.7,20.2,91,14.99,88,9.4,294.2,337.2,296.8
1007.4,112,21.6,20.2,92,14.97,88,9.7,294.2,337.1,296.8
1006.7,118,21.6,20.2,92,14.97,88,9.9,294.2,337.1,296.8
1006.0,124,21.5,20.2,92,14.97,88,10.1,294.2,337.1,296.8
1005.3,130,21.5,20.2,93,15.03,88,10.3,294.2,337.3,296.8
1004.6,136,21.5,20.3,93,15.12,89,10.5,294.2,337.5,296.9
1004.0,141,21.4,20.4,94,15.15,89,10.6,294.2,337.7,296.9
1003.3,147,21.4,20.4,94,15.19,89,10.8,294.2,337.8,296.9
1002.6,153,21.3,20.4,95,15.23,89,10.9,294.2,337.9,296.9
1002.0,159,21.3,20.4,95,15.26,89,10.9,294.3,338.0,296.9
1001.3,164,21.2,20.5,95,15.29,89,11.0,294.3,338.1,297.0
1000.6,170,21.2,20.5,95,15.30,89,11.1,294.3,338.2,297.0
1000.0,176,21.1,20.5,96,15.31,89,11.1,294.3,338.2,297.0
999.3,182,21.1,20.4,96,15.31,89,11.2,294.3,338.2,297.0
998.6,188,21.0,20.4,96,15.29,89,11.3,294.3,338.1,297.0
997.9,194,20.9,20.4,97,15.28,89,11.3,294.3,338.1,297.0
997.3,200,20.9,20.4,97,15.27,89,11.4,294.3,338.0,297.0
996.6,206,20.9,20.3,97,15.26,89,11.4,294.3,338.0,297.0
995.9,212,20.8,20.3,97,15.26,89,11.5,294.3,338.0,297.0
995.1,218,20.7,20.3,98,15.28,89,11.5,294.3,338.1,297.0
994.4,224,20.6,20.3,98,15.25,89,11.6,294.2,337.9,296.9
993.7,231,20.6,20.2,98,15.21,89,11.6,294.2,337.8,296.9
993.0,237,20.5,20.2,98,15.16,89,11.7,294.2,337.7,296.9
992.3,243,20.5,20.1,98,15.13,89,11.7,294.2,337.6,296.9
991.6,249,20.3,20.1,98,15.08,89,11.8,294.2,337.4,296.8
990.9,255,20.2,20.0,99,15.05,89,11.8,294.1,337.3,296.8
990.3,260,20.2,20.0,99,15.04,89,11.9,294.1,337.2,296.8
989.7,266,20.1,20.0,99,15.03,89,11.9,294.1,337.2,296.8
989.0,272,20.1,20.0,100,15.04,89,12.0,294.1,337.2,296.8
988.4,277,20.0,20.0,100,15.02,89,12.0,294.1,337.2,296.8
987.7,283,20.0,19.9,100,14.99,89,12.1,294.2,337.1,296.8
987.1,289,20.0,19.9,100,15.01,89,12.1,294.2,337.2,296.9
986.4,294,20.0,19.9,100,15.03,89,12.1,294.3,337.3,296.9
985.8,300,19.9,19.9,100,14.98,89,12.1,294.3,337.2,296.9
985.2,305,19.8,19.8,100,14.87,89,12.1,294.2,336.8,296.8
984.5,311,19.7,19.6,99,14.74,89,12.2,294.2,336.5,296.8
983.9,316,19.6,19.3,98,14.49,89,12.2,294.2,335.7,296.7
983.3,322,19.6,19.0,96,14.18,89,12.2,294.1,334.8,296.6
982.7,327,19.6,18.6,94,13.89,89,12.1,294.2,334.0,296.6
982.1,332,19.6,18.4,93,13.72,89,12.1,294.3,333.7,296.7
981.5,337,19.7,18.4,92,13.66,89,12.1,294.4,333.7,296.8
981.0,342,19.8,18.4,91,13.66,89,12.1,294.6,333.8,297.0
980.4,347,19.9,18.4,91,13.68,89,12.1,294.7,334.0,297.1
980.0,351,19.9,18.4,91,13.71,89,12.1,294.8,334.2,297.2
979.5,356,19.9,18.4,91,13.75,89,12.0,294.8,334.4,297.2
979.0,360,19.9,18.4,91,13.77,89,12.0,294.8,334.4,297.3
978.6,364,19.9,18.4,92,13.77,90,12.0,294.8,334.4,297.3
978.1,368,19.8,18.4,92,13.78,90,12.0,294.8,334.5,297.3
977.6,372,19.8,18.4,92,13.77,90,11.9,294.8,334.4,297.3
977.2,376,19.8,18.4,92,13.75,90,11.9,294.8,334.4,297.3
976.7,380,19.7,18.4,92,13.73,90,11.9,294.8,334.3,297.3
976.2,385,19.7,18.3,92,13.72,90,11.9,294.9,334.3,297.3
975.7,389,19.7,18.3,92,13.69,91,11.9,294.9,334.3,297.3
975.2,394,19.6,18.3,92,13.67,91,11.9,294.9,334.2,297.3
974.6,398,19.6,18.2,92,13.62,91,11.9,294.9,334.1,297.3
974.1,403,19.6,18.2,91,13.58,91,11.9,295.0,334.1,297.4
973.6,408,19.6,18.1,91,13.57,91,11.9,295.0,334.1,297.4
973.0,413,19.6,18.1,91,13.57,92,11.8,295.0,334.1,297.4
972.5,417,19.6,18.1,91,13.58,92,11.8,295.0,334.1,297.4
972.0,422,19.5,18.2,92,13.61,92,11.8,295.0,334.2,297.5
971.4,427,19.5,18.2,92,13.64,92,11.8,295.1,334.3,297.5
970.9,431,19.4,18.1,92,13.62,92,11.8,295.1,334.3,297.5
970.4,436,19.4,18.1,92,13.59,92,11.8,295.1,334.2,297.5
969.8,441,19.3,18.1,92,13.58,92,11.8,295.1,334.2,297.5
969.3,446,19.3,18.1,93,13.57,93,11.7,295.1,334.1,297.5
968.8,450,19.3,18.0,93,13.55,92,11.7,295.1,334.1,297.5
968.3,455,19.2,18.0,93,13.55,92,11.7,295.1,334.1,297.5
967.8,460,19.2,18.0,93,13.57,92,11.6,295.1,334.1,297.5
967.2,464,19.1,18.0,93,13.57,92,11.6,295.1,334.2,297.5
966.7,469,19.1,18.0,93,13.52,92,11.6,295.1,334.0,297.5
966.1,474,19.1,17.9,92,13.44,92,11.5,295.2,333.9,297.5
965.6,479,19.1,17.8,92,13.39,91,11.5,295.2,333.8,297.5
965.0,484,19.1,17.8,92,13.38,91,11.4,295.2,333.7,297.6
964.5,489,19.0,17.7,92,13.37,91,11.4,295.2,333.7,297.5
963.9,494,19.0,17.7,93,13.37,90,11.3,295.2,333.7,297.6
963.4,499,18.9,17.7,93,13.36,90,11.3,295.2,333.7,297.5
962.8,504,18.9,17.7,93,13.34,89,11.3,295.2,333.6,297.6
962.3,508,18.8,17.7,93,13.32,89,11.2,295.2,333.6,297.6
961.8,513,18.8,17.6,93,13.32,88,11.2,295.2,333.6,297.6
961.3,517,18.8,17.7,93,13.33,87,11.2,295.2,333.6,297.6
960.8,522,18.7,17.7,94,13.34,87,11.2,295.2,333.7,297.6
960.4,526,18.7,17.6,94,13.34,86,11.1,295.2,333.6,297.6
959.9,530,18.6,17.7,94,13.35,85,11.1,295.2,333.7,297.6
959.5,534,18.6,17.7,94,13.38,85,11.1,295.2,333.8,297.6
959.1,537,18.6,17.7,95,13.39,84,11.1,295.2,333.8,297.6
958.7,541,18.5,17.7,95,13.39,83,11.1,295.2,333.8,297.6
958.3,545,18.5,17.7,95,13.39,83,11.1,295.2,333.8,297.6
957.9,548,18.5,17.7,95,13.40,82,11.1,295.2,333.8,297.6
957.4,552,18.4,17.7,96,13.42,81,11.1,295.2,333.9,297.6
957.0,555,18.4,17.7,96,13.46,81,11.1,295.2,334.0,297.6
956.6,559,18.3,17.7,96,13.48,80,11.1,295.2,334.0,297.6
956.2,563,18.3,17.8,97,13.49,80,11.1,295.2,334.1,297.6
955.8,567,18.2,17.7,97,13.48,80,11.1,295.2,334.0,297.6
955.4,570,18.2,17.7,97,13.44,79,11.2,295.2,333.9,297.6
955.0,574,18.2,17.6,96,13.39,79,11.2,295.2,333.8,297.6
954.6,578,18.2,17.6,96,13.36,79,11.2,295.2,333.7,297.6
954.2,581,18.2,17.6,96,13.35,79,11.2,295.2,333.7,297.6
953.8,585,18.1,17.6,96,13.35,79,11.2,295.2,333.7,297.6
953.3,589,18.1,17.5,97,13.35,79,11.2,295.3,333.7,297.6
952.9,593,18.1,17.5,97,13.36,79,11.2,295.3,333.8,297.6
952.5,596,18.0,17.5,97,13.36,79,11.2,295.3,333.8,297.6
952.1,600,18.0,17.5,97,13.35,80,11.2,295.3,333.7,297.6
951.7,604,18.0,17.5,97,13.35,80,11.2,295.3,333.7,297.6
951.3,608,17.9,17.5,97,13.36,81,11.2,295.3,333.8,297.6
950.8,611,17.9,17.5,98,13.39,81,11.2,295.3,333.9,297.7
950.4,615,17.9,17.6,98,13.42,82,11.2,295.3,334.0,297.7
949.9,620,17.8,17.6,98,13.43,82,11.2,295.3,334.0,297.7
949.4,624,17.8,17.6,99,13.43,83,11.2,295.3,334.0,297.7
948.9,629,17.7,17.6,99,13.43,83,11.2,295.3,334.0,297.7
948.3,634,17.7,17.6,99,13.43,84,11.2,295.3,334.0,297.7
947.7,639,17.7,17.5,99,13.42,85,11.2,295.3,334.0,297.7
947.1,645,17.6,17.5,99,13.40,85,11.2,295.3,333.9,297.7
946.5,650,17.6,17.5,99,13.37,86,11.2,295.3,333.9,297.7
945.9,656,17.5,17.4,99,13.34,87,11.2,295.3,333.8,297.7
945.3,661,17.5,17.4,99,13.32,87,11.2,295.3,333.7,297.7
944.7,666,17.4,17.4,99,13.31,88,11.2,295.3,333.7,297.7
944.2,671,17.4,17.3,100,13.30,88,11.2,295.4,333.7,297.7
943.7,676,17.4,17.3,100,13.29,89,11.2,295.4,333.7,297.7
943.2,681,17.4,17.3,100,13.27,90,11.2,295.4,333.7,297.7
942.7,685,17.3,17.2,99,13.23,90,11.2,295.4,333.6,297.8
942.2,690,17.3,17.2,99,13.19,91,11.2,295.4,333.5,297.8
941.7,694,17.2,17.1,99,13.17,91,11.2,295.4,333.4,297.8
941.3,698,17.2,17.1,99,13.14,92,11.2,295.4,333.3,297.7
940.9,702,17.2,17.1,99,13.13,92,11.2,295.4,333.3,297.7
940.4,706,17.2,17.0,99,13.11,92,11.2,295.5,333.3,297.8
940.0,709,17.2,17.0,99,13.08,93,11.2,295.5,333.2,297.8
939.6,713,17.2,17.0,99,13.04,93,11.2,295.5,333.2,297.8
939.2,717,17.2,16.9,98,13.00,93,11.2,295.6,333.1,297.9
938.8,721,17.1,16.8,98,12.95,93,11.2,295.6,333.0,297.9
938.4,724,17.1,16.8,98,12.91,94,11.2,295.6,332.9,297.9
938.0,728,17.1,16.7,97,12.87,94,11.2,295.6,332.8,297.9
937.6,732,17.1,16.7,97,12.83,94,11.2,295.7,332.7,297.9
937.2,736,17.1,16.7,97,12.83,94,11.2,295.7,332.7,298.0
936.7,740,17.1,16.6,97,12.81,94,11.2,295.7,332.7,298.0
936.3,744,17.1,16.6,97,12.77,94,11.2,295.8,332.7,298.0
935.8,748,17.1,16.5,96,12.74,94,11.2,295.8,332.7,298.1
935.4,752,17.1,16.5,96,12.71,94,11.2,295.9,332.6,298.1
934.9,756,17.1,16.4,96,12.69,95,11.2,295.9,332.6,298.2
934.5,760,17.1,16.4,95,12.64,95,11.1,296.0,332.5,298.2
934.1,764,17.1,16.3,95,12.59,95,11.1,296.0,332.4,298.2
933.6,768,17.1,16.3,95,12.56,95,11.1,296.0,332.4,298.3
933.2,772,17.1,16.2,95,12.54,95,11.0,296.0,332.3,298.3
932.8,776,17.1,16.2,95,12.52,95,11.0,296.1,332.3,298.3
932.4,779,17.1,16.2,94,12.50,95,10.9,296.1,332.3,298.3
932.0,783,17.0,16.1,94,12.48,95,10.9,296.1,332.2,298.3
931.5,787,17.0,16.1,94,12.47,95,10.8,296.1,332.2,298.3
931.1,791,17.0,16.1,95,12.48,95,10.8,296.1,332.3,298.3
930.7,795,17.0,16.1,95,12.50,95,10.7,296.1,332.3,298.3
930.3,799,16.9,16.1,95,12.49,95,10.6,296.1,332.3,298.4
929.8,803,16.9,16.1,95,12.49,95,10.5,296.1,332.3,298.4
929.4,807,16.9,16.1,95,12.46,96,10.5,296.2,332.2,298.4
929.0,811,16.9,16.1,95,12.45,96,10.4,296.2,332.2,298.4
928.5,815,16.8,16.0,95,12.43,96,10.3,296.2,332.2,298.4
928.0,819,16.8,16.0,95,12.40,96,10.2,296.2,332.1,298.4
927.5,824,16.8,15.9,95,12.37,96,10.1,296.2,332.1,298.4
927.1,828,16.8,15.9,95,12.34,97,10.0,296.2,332.0,298.4
926.6,833,16.7,15.9,95,12.33,97,9.9,296.3,332.0,298.4
926.1,837,16.7,15.8,95,12.30,97,9.8,296.3,331.9,298.5
925.6,842,16.7,15.7,94,12.24,98,9.7,296.3,331.8,298.5
925.0,847,16.6,15.7,94,12.20,99,9.5,296.3,331.7,298.5
924.5,852,16.6,15.6,94,12.18,99,9.5,296.3,331.6,298.5
924.0,857,16.5,15.6,94,12.19,99,9.4,296.3,331.6,298.5
923.4,862,16.5,15.7,95,12.21,100,9.4,296.3,331.7,298.5
922.9,867,16.4,15.7,95,12.25,100,9.3,296.3,331.8,298.5
922.4,871,16.4,15.7,96,12.27,101,9.2,296.3,331.9,298.5
921.9,876,16.4,15.7,96,12.25,101,9.1,296.3,331.8,298.5
921.4,881,16.3,15.6,95,12.20,102,9.0,296.3,331.7,298.5
921.0,885,16.4,15.5,95,12.12,102,9.0,296.4,331.6,298.5
920.5,889,16.4,15.4,94,12.06,103,8.9,296.4,331.4,298.6
920.1,892,16.4,15.4,94,12.01,103,8.8,296.5,331.3,298.6
919.7,896,16.3,15.3,94,11.99,104,8.8,296.5,331.3,298.6
919.3,900,16.3,15.4,94,12.02,104,8.7,296.5,331.4,298.7
918.9,904,16.3,15.4,94,12.06,105,8.7,296.5,331.5,298.7
918.4,908,16.3,15.4,95,12.09,105,8.6,296.6,331.7,298.7
917.9,913,16.3,15.5,95,12.12,106,8.6,296.6,331.8,298.7
917.4,917,16.2,15.5,95,12.14,106,8.5,296.6,331.8,298.7
916.9,922,16.2,15.4,95,12.11,106,8.5,296.6,331.8,298.8
916.4,927,16.2,15.4,95,12.07,106,8.4,296.6,331.7,298.8
915.9,932,16.2,15.3,95,12.05,106,8.4,296.7,331.7,298.8
915.4,936,16.2,15.3,95,12.02,106,8.3,296.7,331.6,298.8
914.9,941,16.1,15.3,95,12.01,106,8.3,296.7,331.6,298.9
914.4,945,16.1,15.2,95,12.00,106,8.2,296.8,331.6,298.9
914.0,950,16.1,15.2,94,11.96,106,8.2,296.8,331.6,298.9
913.5,954,16.2,15.1,94,11.92,106,8.1,296.9,331.5,299.0
913.0,958,16.2,15.1,93,11.91,105,8.1,296.9,331.6,299.1
912.6,963,16.1,15.1,94,11.92,105,8.0,296.9,331.6,299.1
912.1,967,16.1,15.1,94,11.94,105,8.0,296.9,331.7,299.1
911.6,972,16.0,15.1,95,11.96,105,7.9,296.9,331.7,299.1
911.1,976,15.9,15.1,95,11.96,104,7.8,296.9,331.7,299.0
910.7,980,15.9,15.1,96,11.97,104,7.8,296.8,331.6,299.0
910.2,984,15.8,15.1,96,11.98,104,7.7,296.8,331.6,298.9
909.8,988,15.8,15.2,96,12.02,103,7.6,296.8,331.8,299.0
909.5,992,15.7,15.2,97,12.06,103,7.6,296.8,331.9,299.0
909.1,995,15.7,15.3,97,12.09,103,7.5,296.9,332.0,299.0
908.7,999,15.8,15.2,97,12.06,103,7.4,296.9,332.0,299.1
908.3,1002,15.8,15.2,96,12.01,103,7.3,297.0,331.9,299.1
907.9,1006,15.8,15.0,95,11.93,103,7.2,297.0,331.8,299.2
907.5,1010,15.8,15.0,95,11.90,103,7.1,297.1,331.7,299.2
907.1,1014,15.7,15.0,95,11.92,103,7.1,297.0,331.7,299.2
906.7,1018,15.7,15.0,96,11.90,104,7.0,297.0,331.6,299.1
906.3,1022,15.7,14.9,95,11.86,104,6.9,297.0,331.5,299.1
905.9,1025,15.6,14.9,95,11.84,104,6.8,297.1,331.5,299.2
905.5,1029,15.6,14.9,95,11.84,105,6.7,297.1,331.5,299.2
905.1,1033,15.6,14.9,96,11.86,106,6.6,297.1,331.6,299.2
904.7,1037,15.6,14.9,96,11.87,106,6.6,297.1,331.6,299.2
904.3,1041,15.6,14.9,96,11.87,107,6.5,297.1,331.7,299.2
903.9,1044,15.5,14.9,96,11.85,108,6.5,297.1,331.6,299.2
903.4,1048,15.5,14.8,96,11.82,108,6.4,297.2,331.6,299.3
903.0,1052,15.5,14.8,96,11.83,109,6.4,297.2,331.6,299.3
902.6,1056,15.4,14.9,96,11.87,110,6.4,297.2,331.7,299.3
902.1,1061,15.3,14.9,97,11.90,110,6.4,297.1,331.8,299.2
901.7,1065,15.3,14.9,98,11.90,111,6.4,297.1,331.7,299.2
901.2,1070,15.2,14.9,98,11.89,111,6.4,297.0,331.7,299.2
900.7,1074,15.2,14.9,98,11.92,111,6.4,297.1,331.7,299.2
900.2,1079,15.1,14.9,99,11.95,112,6.4,297.1,331.8,299.2
899.6,1084,15.1,14.9,99,11.93,112,6.4,297.1,331.8,299.2
899.1,1089,15.1,14.8,98,11.87,112,6.4,297.1,331.7,299.3
898.6,1094,15.1,14.7,97,11.79,112,6.4,297.2,331.5,299.3
898.1,1099,15.1,14.6,96,11.70,111,6.5,297.3,331.4,299.4
897.6,1104,15.2,14.5,96,11.63,111,6.5,297.3,331.2,299.4
897.0,1109,15.2,14.4,95,11.59,110,6.5,297.4,331.2,299.5
896.5,1114,15.2,14.4,95,11.56,110,6.5,297.5,331.2,299.5
896.0,1119,15.2,14.4,95,11.55,109,6.6,297.5,331.2,299.6
895.5,1124,15.2,14.4,95,11.56,109,6.6,297.5,331.3,299.6
895.0,1128,15.2,14.3,95,11.52,108,6.6,297.6,331.2,299.7
894.5,1133,15.2,14.1,93,11.41,107,6.6,297.7,331.1,299.8
893.9,1138,15.3,14.0,92,11.32,106,6.6,297.9,331.0,299.9
893.4,1143,15.4,13.9,91,11.28,105,6.6,298.0,331.0,300.0
893.0,1148,15.4,13.9,91,11.27,105,6.6,298.0,331.0,300.1
892.5,1152,15.4,14.0,91,11.30,104,6.6,298.1,331.1,300.1
892.0,1157,15.4,14.0,92,11.34,103,6.5,298.1,331.3,300.1
891.5,1161,15.3,14.0,92,11.38,102,6.5,298.1,331.4,300.1
891.1,1165,15.3,14.1,92,11.39,102,6.5,298.1,331.4,300.1
890.6,1170,15.3,14.0,92,11.37,101,6.4,298.1,331.4,300.1
890.2,1174,15.2,13.9,92,11.30,101,6.4,298.1,331.2,300.2
889.8,1178,15.2,13.8,91,11.25,100,6.3,298.2,331.1,300.2
889.4,1182,15.2,13.8,91,11.22,100,6.3,298.2,331.0,300.2
889.0,1185,15.2,13.8,91,11.21,100,6.2,298.2,331.0,300.2
888.6,1189,15.2,13.8,91,11.20,99,6.1,298.2,331.0,300.2
888.2,1193,15.2,13.7,91,11.18,99,6.1,298.2,331.0,300.2
887.8,1197,15.2,13.7,91,11.17,100,6.0,298.3,331.0,300.3
887.4,1201,15.1,13.7,91,11.16,100,5.9,298.3,331.0,300.3
886.9,1205,15.1,13.7,91,11.17,100,5.9,298.3,331.0,300.3
886.5,1209,15.1,13.7,91,11.17,100,5.8,298.3,331.0,300.3
886.1,1213,15.0,13.6,91,11.14,101,5.7,298.3,331.0,300.3
885.6,1218,15.0,13.6,91,11.12,102,5.7,298.3,330.9,300.3
885.2,1222,15.0,13.6,91,11.11,102,5.6,298.4,330.9,300.4
884.7,1226,15.0,13.6,91,11.12,103,5.6,298.4,331.0,300.4
884.3,1231,14.9,13.6,92,11.13,104,5.5,298.4,331.0,300.4
883.8,1235,14.9,13.6,92,11.13,104,5.5,298.4,331.0,300.4
883.3,1240,14.8,13.6,92,11.12,105,5.5,298.4,331.0,300.4
882.9,1244,14.8,13.5,92,11.09,106,5.5,298.4,330.9,300.4
882.4,1248,14.8,13.5,92,11.10,107,5.5,298.4,330.9,300.4
881.9,1253,14.7,13.5,93,11.13,108,5.5,298.4,331.0,300.4
881.4,1258,14.7,13.6,93,11.16,109,5.5,298.4,331.1,300.4
880.9,1263,14.6,13.6,93,11.16,109,5.5,298.4,331.1,300.4
880.4,1268,14.6,13.5,93,11.11,110,5.5,298.4,331.0,300.4
879.8,1273,14.6,13.4,92,11.03,111,5.5,298.5,330.8,300.5
879.3,1279,14.6,13.2,91,10.94,112,5.5,298.5,330.6,300.5
878.7,1284,14.6,13.1,91,10.87,112,5.5,298.6,330.5,300.5
878.2,1289,14.6,13.1,91,10.85,113,5.5,298.6,330.5,300.6
877.7,1294,14.6,13.1,91,10.85,113,5.6,298.7,330.5,300.6
877.2,1299,14.6,13.1,91,10.85,114,5.6,298.7,330.5,300.6
876.7,1304,14.5,13.0,91,10.82,114,5.6,298.7,330.5,300.6
876.2,1309,14.5,13.0,90,10.78,115,5.6,298.7,330.4,300.7
875.7,1314,14.5,12.9,90,10.75,115,5.6,298.7,330.3,300.7
875.1,1319,14.4,12.9,90,10.74,116,5.6,298.8,330.3,300.7
874.6,1323,14.4,12.9,90,10.73,116,5.6,298.8,330.3,300.7
874.1,1328,14.4,12.8,90,10.71,116,5.6,298.8,330.3,300.7
873.7,1333,14.4,12.8,90,10.70,117,5.7,298.8,330.2,300.7
873.2,1338,14.3,12.8,90,10.67,117,5.7,298.8,330.2,300.7
872.7,1342,14.3,12.7,90,10.64,117,5.7,298.8,330.1,300.7
872.2,1347,14.2,12.7,90,10.62,118,5.7,298.8,330.0,300.7
871.8,1351,14.2,12.7,90,10.61,118,5.7,298.8,330.0,300.7
871.3,1356,14.2,12.7,91,10.64,118,5.7,298.8,330.1,300.7
870.8,1361,14.1,12.7,91,10.68,118,5.7,298.8,330.2,300.8
870.3,1366,14.1,12.8,92,10.72,118,5.7,298.8,330.3,300.8
869.7,1371,14.0,12.8,93,10.77,118,5.8,298.8,330.5,300.8
869.2,1376,14.0,12.8,93,10.78,118,5.8,298.8,330.5,300.8
868.7,1381,13.9,12.8,93,10.75,118,5.8,298.9,330.4,300.8
868.2,1386,13.9,12.8,93,10.74,118,5.8,298.9,330.4,300.8
867.7,1391,13.8,12.8,93,10.74,118,5.9,298.9,330.4,300.8
867.2,1396,13.8,12.7,93,10.73,118,5.9,298.9,330.4,300.8
866.7,1401,13.8,12.7,93,10.70,118,5.9,298.9,330.3,300.8
866.2,1406,13.8,12.6,93,10.65,117,6.0,299.0,330.3,300.9
865.7,1410,13.8,12.5,92,10.60,117,6.0,299.0,330.2,300.9
865.2,1415,13.8,12.5,91,10.56,117,6.0,299.1,330.2,301.0
864.7,1420,13.9,12.4,91,10.52,117,6.1,299.2,330.2,301.1
864.2,1425,13.9,12.4,91,10.50,116,6.1,299.2,330.2,301.1
863.7,1430,13.9,12.3,90,10.47,116,6.1,299.3,330.1,301.2
863.1,1436,13.9,12.2,90,10.41,116,6.1,299.3,330.0,301.2
862.6,1441,13.9,12.1,89,10.36,115,6.2,299.4,329.9,301.2
862.0,1447,13.9,12.1,89,10.33,115,6.2,299.4,329.9,301.3
861.4,1453,13.8,12.1,89,10.34,115,6.2,299.5,330.0,301.4
860.8,1458,13.8,12.1,89,10.35,114,6.2,299.5,330.1,301.4
860.2,1464,13.8,12.1,89,10.34,114,6.3,299.6,330.1,301.4
859.7,1469,13.8,12.0,89,10.31,114,6.3,299.6,330.0,301.5
859.1,1475,13.8,11.9,89,10.27,113,6.3,299.6,329.9,301.5
858.5,1481,13.7,11.9,89,10.23,113,6.3,299.7,329.9,301.5
858.0,1486,13.7,11.8,88,10.19,113,6.3,299.7,329.8,301.5
857.5,1491,13.7,11.6,88,10.09,113,6.3,299.7,329.5,301.5
856.9,1496,13.7,11.3,86,9.89,112,6.3,299.7,329.0,301.5
856.5,1501,13.7,11.1,84,9.73,112,6.3,299.8,328.6,301.5
856.0,1506,13.7,11.0,84,9.70,112,6.3,299.8,328.5,301.6
855.5,1510,13.6,11.1,85,9.73,112,6.3,299.9,328.6,301.6
855.1,1515,13.6,11.2,85,9.81,112,6.3,299.9,328.9,301.6
854.7,1519,13.6,11.3,86,9.91,112,6.3,299.9,329.2,301.7
854.2,1523,13.5,11.5,87,10.02,112,6.3,299.9,329.5,301.7
853.8,1527,13.5,11.6,89,10.13,112,6.3,299.9,329.8,301.7
853.4,1532,13.5,11.8,90,10.22,112,6.3,299.9,330.1,301.7
852.9,1536,13.4,11.8,90,10.23,112,6.3,299.9,330.1,301.7
852.5,1540,13.4,11.6,89,10.13,112,6.3,299.9,329.9,301.7
852.0,1545,13.4,11.4,88,9.99,112,6.3,300.0,329.5,301.8
851.6,1550,13.4,11.2,86,9.84,112,6.3,300.0,329.1,301.8
851.1,1554,13.4,11.1,86,9.78,112,6.3,300.1,329.0,301.8
850.6,1559,13.4,11.0,86,9.76,112,6.3,300.1,329.0,301.9
850.0,1565,13.4,10.9,85,9.65,113,6.3,300.1,328.7,301.9
849.5,1570,13.4,10.5,83,9.46,113,6.3,300.2,328.2,301.9
849.0,1575,13.4,10.1,81,9.20,113,6.3,300.2,327.5,301.9
848.5,1580,13.3,9.8,79,8.99,113,6.3,300.2,327.0,301.9
848.0,1585,13.3,9.6,78,8.88,114,6.3,300.3,326.7,301.9
847.4,1590,13.3,9.5,78,8.83,114,6.3,300.3,326.6,301.9
846.9,1596,13.3,9.4,77,8.77,114,6.3,300.4,326.4,302.0
846.3,1601,13.3,9.2,77,8.69,114,6.3,300.4,326.3,302.0
845.7,1607,13.2,9.2,76,8.64,115,6.3,300.4,326.1,302.0
845.1,1613,13.2,9.1,76,8.64,115,6.3,300.4,326.2,302.0
844.5,1620,13.1,9.2,77,8.67,115,6.2,300.4,326.2,302.0
843.9,1626,13.1,9.2,77,8.71,116,6.2,300.5,326.4,302.0
843.3,1632,13.0,9.3,78,8.77,116,6.2,300.5,326.6,302.0
842.7,1638,13.0,9.5,79,8.88,116,6.2,300.5,326.9,302.1
842.1,1643,13.0,9.6,80,8.95,116,6.2,300.5,327.2,302.2
841.6,1649,13.0,9.6,80,8.93,117,6.2,300.6,327.1,302.2
841.1,1654,13.0,9.4,79,8.83,117,6.2,300.6,326.9,302.2
840.6,1658,13.0,9.2,78,8.70,117,6.2,300.7,326.6,302.2
840.2,1663,13.0,8.8,76,8.51,117,6.1,300.7,326.1,302.3
839.7,1667,13.0,8.4,74,8.28,117,6.1,300.8,325.5,302.3
839.3,1672,13.0,8.2,73,8.16,118,6.1,300.8,325.2,302.3
838.8,1677,13.0,8.1,72,8.11,118,6.1,300.9,325.1,302.4
838.3,1682,13.0,8.0,72,8.07,118,6.1,300.9,325.0,302.4
837.8,1687,13.0,8.0,72,8.07,118,6.0,300.9,325.1,302.4
837.3,1691,12.9,8.1,73,8.13,118,6.0,300.9,325.2,302.4
836.8,1696,12.9,8.2,73,8.18,118,6.0,300.9,325.4,302.4
836.4,1701,12.8,8.2,73,8.18,118,6.0,300.9,325.4,302.4
835.9,1706,12.8,8.1,73,8.12,118,5.9,300.9,325.2,302.4
835.4,1711,12.7,7.9,72,8.03,118,5.9,301.0,325.0,302.4
835.0,1715,12.7,7.8,72,7.97,118,5.9,301.0,324.8,302.4
834.6,1720,12.7,7.7,72,7.93,118,5.9,301.0,324.7,302.4
834.1,1724,12.7,7.7,72,7.91,119,5.9,301.0,324.7,302.4
833.7,1728,12.6,7.7,72,7.92,119,5.8,301.0,324.7,302.5
