PRES,HGHT,TEMP,DWPT,RELH,MIXR,DRCT,SPED,THTA,THTE,THTV
1014.9,31,24.9,18.6,68,13.42,46,7.5,296.8,335.8,299.2
1014.3,36,24.6,18.5,69,13.35,49,5.0,296.5,335.3,298.9
1013.9,39,24.3,18.4,70,13.28,50,4.3,296.3,334.8,298.7
1013.0,47,24.0,18.3,70,13.14,50,4.3,296.0,334.0,298.3
1012.4,52,23.6,17.9,70,12.85,50,4.6,295.7,332.9,298.0
1012.0,56,23.4,17.6,70,12.64,49,5.0,295.5,332.1,297.8
1011.5,60,23.3,17.5,70,12.57,49,5.4,295.4,331.8,297.7
1010.8,66,23.2,17.5,70,12.52,48,5.8,295.4,331.6,297.7
1010.2,71,23.2,17.4,70,12.48,48,6.1,295.4,331.5,297.7
1009.6,76,23.1,17.3,70,12.42,47,6.4,295.4,331.3,297.6
1009.1,81,23.0,17.2,70,12.35,47,6.6,295.4,331.1,297.6
1008.5,86,23.0,17.2,70,12.31,47,6.9,295.4,331.0,297.6
1007.9,91,22.9,17.1,70,12.29,46,7.2,295.4,330.9,297.6
1007.4,96,22.9,17.1,70,12.28,46,7.4,295.4,330.9,297.6
1006.8,101,22.8,17.1,70,12.29,46,7.6,295.4,330.9,297.6
1006.3,105,22.8,17.1,70,12.30,46,7.8,295.4,330.9,297.6
1005.7,110,22.7,17.1,71,12.28,45,8.0,295.4,330.9,297.6
1005.2,114,22.7,17.0,71,12.25,45,8.2,295.4,330.8,297.6
1004.7,119,22.6,17.1,71,12.26,45,8.3,295.4,330.8,297.5
1004.2,124,22.6,17.2,71,12.36,45,8.5,295.4,331.1,297.6
1003.6,128,22.5,17.3,72,12.48,45,8.6,295.4,331.4,297.6
1003.1,133,22.4,17.4,73,12.55,45,8.7,295.3,331.6,297.6
1002.6,137,22.4,17.4,73,12.57,45,8.7,295.3,331.6,297.5
1002.0,142,22.4,17.4,74,12.58,45,8.8,295.3,331.6,297.6
1001.5,146,22.3,17.4,74,12.58,45,8.9,295.3,331.7,297.6
1001.0,151,22.3,17.4,74,12.57,45,8.9,295.3,331.6,297.5
1000.5,156,22.2,17.3,74,12.54,45,9.0,295.3,331.5,297.5
1000.0,160,22.2,17.3,74,12.51,45,9.0,295.3,331.5,297.5
999.9,160,22.2,17.3,74,12.51,45,9.0,295.3,331.4,297.5
999.3,165,22.1,17.3,74,12.49,45,9.0,295.3,331.4,297.5
998.8,171,22.1,17.3,74,12.54,45,9.0,295.3,331.5,297.5
998.1,176,22.0,17.4,75,12.61,45,9.0,295.3,331.7,297.6
997.5,181,22.0,17.4,75,12.65,45,9.0,295.3,331.8,297.6
996.9,187,21.9,17.4,76,12.66,45,9.1,295.3,331.9,297.6
996.2,193,21.8,17.4,76,12.64,45,9.1,295.3,331.8,297.6
995.5,199,21.8,17.4,76,12.63,45,9.1,295.3,331.8,297.6
994.9,204,21.7,17.4,76,12.64,45,9.1,295.3,331.8,297.6
994.2,210,21.7,17.4,76,12.64,45,9.1,295.3,331.8,297.6
993.6,215,21.6,17.4,77,12.64,45,9.0,295.3,331.8,297.6
993.0,220,21.6,17.3,77,12.64,44,9.0,295.3,331.8,297.6
992.5,225,21.5,17.3,77,12.63,44,9.0,295.3,331.7,297.5
991.9,230,21.5,17.3,77,12.63,44,9.0,295.3,331.7,297.5
991.4,235,21.4,17.3,77,12.63,44,9.0,295.3,331.8,297.5
990.9,239,21.4,17.3,78,12.65,44,9.0,295.3,331.8,297.5
990.4,243,21.4,17.4,78,12.69,44,9.0,295.3,331.9,297.6
989.9,248,21.3,17.4,78,12.73,44,9.0,295.3,332.1,297.6
989.4,252,21.3,17.4,79,12.76,44,9.0,295.3,332.2,297.6
988.9,257,21.2,17.4,79,12.75,44,9.0,295.3,332.1,297.6
988.3,262,21.2,17.4,79,12.73,44,9.0,295.3,332.1,297.6
987.8,266,21.1,17.3,79,12.69,44,9.0,295.3,331.9,297.6
987.3,271,21.1,17.3,79,12.65,44,9.0,295.3,331.8,297.5
986.8,275,21.0,17.2,79,12.63,44,9.1,295.3,331.8,297.5
986.3,280,21.0,17.2,79,12.63,44,9.1,295.3,331.8,297.6
985.8,284,21.0,17.2,79,12.63,44,9.1,295.3,331.8,297.5
985.3,289,20.9,17.2,79,12.62,44,9.1,295.3,331.7,297.5
984.8,293,20.9,17.2,79,12.63,44,9.1,295.3,331.8,297.5
984.3,297,20.8,17.2,80,12.65,44,9.1,295.3,331.8,297.6
983.9,301,20.8,17.2,80,12.66,44,9.1,295.3,331.8,297.5
983.4,305,20.7,17.2,80,12.65,45,9.1,295.3,331.8,297.5
982.9,309,20.7,17.2,80,12.65,45,9.2,295.3,331.8,297.5
982.4,314,20.7,17.2,80,12.65,45,9.2,295.3,331.8,297.5
981.9,318,20.6,17.2,81,12.65,46,9.2,295.3,331.8,297.5
981.5,322,20.6,17.2,81,12.65,46,9.2,295.3,331.8,297.5
981.0,327,20.5,17.2,81,12.65,46,9.2,295.3,331.8,297.5
980.5,331,20.5,17.2,81,12.67,47,9.2,295.3,331.9,297.6
980.0,335,20.5,17.2,82,12.70,47,9.3,295.3,332.0,297.6
979.5,340,20.4,17.2,82,12.73,47,9.3,295.3,332.1,297.6
978.9,345,20.4,17.2,82,12.73,48,9.3,295.3,332.1,297.6
978.4,349,20.3,17.2,82,12.71,48,9.3,295.3,332.0,297.6
977.9,354,20.3,17.1,82,12.68,48,9.3,295.3,331.9,297.6
977.3,359,20.2,17.1,82,12.66,49,9.3,295.3,331.9,297.6
976.8,363,20.2,17.1,82,12.64,49,9.3,295.3,331.8,297.6
976.3,368,20.2,17.1,82,12.63,49,9.3,295.3,331.8,297.6
975.8,373,20.1,17.1,83,12.65,49,9.3,295.3,331.8,297.6
975.2,377,20.1,17.1,83,12.69,49,9.3,295.3,332.0,297.6
974.7,382,20.0,17.2,83,12.73,49,9.3,295.3,332.1,297.6
974.2,386,20.0,17.2,84,12.76,49,9.3,295.3,332.2,297.6
973.7,391,20.0,17.2,84,12.77,49,9.3,295.3,332.2,297.6
973.2,396,19.9,17.1,84,12.74,49,9.3,295.3,332.1,297.6
972.6,400,19.9,17.1,84,12.71,48,9.3,295.3,332.0,297.6
972.1,405,19.8,17.0,84,12.67,48,9.3,295.3,331.9,297.6
971.5,410,19.8,17.0,84,12.65,48,9.3,295.3,331.8,297.6
971.0,415,19.7,17.0,84,12.62,48,9.3,295.3,331.8,297.6
970.4,420,19.7,17.0,84,12.63,47,9.3,295.3,331.8,297.6
969.9,425,19.6,17.0,85,12.65,47,9.3,295.3,331.9,297.6
969.3,430,19.6,17.0,85,12.67,47,9.3,295.3,331.9,297.6
968.8,435,19.5,17.0,85,12.68,46,9.3,295.3,331.9,297.6
968.2,440,19.5,17.0,86,12.69,46,9.3,295.3,332.0,297.6
967.6,445,19.4,17.0,86,12.69,46,9.3,295.3,332.0,297.6
967.1,450,19.4,17.0,86,12.67,45,9.3,295.3,331.9,297.6
966.5,455,19.3,16.9,86,12.65,45,9.3,295.3,331.9,297.6
965.9,460,19.3,16.9,86,12.62,45,9.3,295.3,331.8,297.6
965.3,465,19.2,16.9,86,12.61,44,9.3,295.3,331.7,297.6
964.8,470,19.2,16.8,86,12.58,44,9.3,295.3,331.6,297.6
964.2,475,19.1,16.7,86,12.53,44,9.3,295.3,331.5,297.6
963.7,480,19.1,16.7,86,12.47,44,9.3,295.4,331.3,297.6
963.2,485,19.1,16.6,86,12.43,44,9.3,295.4,331.3,297.6
962.7,489,19.0,16.6,86,12.46,44,9.3,295.4,331.4,297.6
962.2,494,19.0,16.7,87,12.56,43,9.4,295.4,331.6,297.6
961.6,498,18.9,16.9,88,12.67,43,9.4,295.3,331.9,297.6
961.1,503,18.9,16.9,88,12.66,43,9.4,295.3,331.9,297.6
960.6,508,18.8,16.7,87,12.52,43,9.4,295.4,331.5,297.6
960.1,512,18.8,16.5,86,12.40,43,9.4,295.4,331.2,297.6
959.6,517,18.8,16.5,87,12.41,43,9.4,295.4,331.2,297.6
959.0,522,18.8,16.6,87,12.46,43,9.4,295.4,331.4,297.6
958.5,527,18.7,16.6,88,12.52,43,9.4,295.4,331.5,297.6
958.0,531,18.6,16.7,88,12.54,43,9.4,295.4,331.6,297.6
957.4,536,18.6,16.6,88,12.54,43,9.4,295.4,331.6,297.6
956.9,541,18.5,16.6,88,12.51,43,9.4,295.4,331.5,297.6
956.4,546,18.5,16.6,89,12.49,43,9.4,295.4,331.4,297.6
955.8,551,18.4,16.5,88,12.43,43,9.4,295.4,331.3,297.6
955.3,556,18.4,16.3,88,12.32,43,9.4,295.4,331.0,297.6
954.7,561,18.4,16.2,87,12.23,43,9.4,295.4,330.8,297.6
954.1,566,18.4,16.2,87,12.19,43,9.3,295.5,330.7,297.6
953.6,571,18.3,16.2,87,12.22,43,9.3,295.5,330.8,297.6
953.0,576,18.3,16.3,88,12.29,43,9.3,295.5,331.0,297.6
952.5,581,18.2,16.3,89,12.33,43,9.3,295.4,331.1,297.6
951.9,586,18.2,16.3,89,12.37,43,9.3,295.5,331.2,297.6
951.4,590,18.1,16.4,90,12.43,43,9.3,295.4,331.3,297.7
950.9,595,18.1,16.4,90,12.47,43,9.2,295.4,331.5,297.7
950.4,600,18.0,16.4,90,12.40,43,9.2,295.5,331.3,297.7
949.9,604,18.0,16.3,90,12.34,43,9.2,295.5,331.1,297.6
949.3,609,18.0,16.3,90,12.37,43,9.2,295.5,331.2,297.7
948.8,614,17.9,16.4,91,12.43,43,9.2,295.5,331.4,297.7
948.3,619,17.8,16.4,91,12.46,43,9.2,295.4,331.4,297.6
947.7,624,17.8,16.4,92,12.49,43,9.2,295.4,331.5,297.6
947.2,629,17.7,16.4,92,12.48,43,9.1,295.4,331.4,297.6
946.6,634,17.7,16.3,92,12.43,43,9.1,295.4,331.3,297.6
946.0,639,17.6,16.2,92,12.37,43,9.1,295.4,331.2,297.6
945.4,645,17.6,16.2,92,12.36,43,9.1,295.5,331.1,297.7
944.8,650,17.6,16.2,92,12.39,43,9.1,295.5,331.2,297.7
944.2,656,17.5,16.2,92,12.36,44,9.0,295.4,331.2,297.6
943.6,661,17.4,16.2,92,12.34,44,9.0,295.5,331.1,297.6
943.0,667,17.4,16.1,92,12.33,44,9.0,295.5,331.1,297.6
942.4,672,17.4,16.1,92,12.31,44,8.9,295.5,331.0,297.6
941.8,678,17.3,16.1,92,12.27,44,8.9,295.5,330.9,297.7
941.2,683,17.3,16.1,93,12.29,44,8.9,295.5,331.0,297.7
940.5,689,17.2,16.1,93,12.32,44,8.8,295.5,331.1,297.7
939.9,695,17.2,16.1,94,12.35,43,8.8,295.5,331.2,297.7
939.2,701,17.1,16.2,94,12.39,43,8.7,295.5,331.3,297.7
938.6,707,17.0,16.1,94,12.34,43,8.7,295.5,331.1,297.7
937.9,713,17.0,15.9,93,12.21,43,8.6,295.5,330.8,297.7
937.3,719,17.0,15.9,93,12.18,43,8.5,295.5,330.7,297.7
936.6,725,16.9,15.9,94,12.22,43,8.5,295.5,330.9,297.7
936.0,730,16.8,15.9,94,12.23,43,8.4,295.5,330.9,297.7
935.4,736,16.8,15.8,94,12.18,43,8.3,295.5,330.7,297.7
934.8,742,16.7,15.7,94,12.09,42,8.2,295.5,330.5,297.7
934.2,747,16.7,15.6,93,11.98,42,8.2,295.6,330.2,297.7
933.6,753,16.7,15.5,93,11.95,42,8.1,295.6,330.1,297.7
933.0,758,16.7,15.5,93,11.96,42,8.0,295.6,330.2,297.7
932.4,763,16.6,15.5,93,11.95,41,7.9,295.6,330.2,297.7
931.8,769,16.6,15.4,93,11.92,41,7.9,295.6,330.1,297.7
931.2,774,16.5,15.4,93,11.92,41,7.8,295.6,330.1,297.7
930.6,780,16.5,15.4,94,11.92,40,7.8,295.6,330.1,297.7
930.0,785,16.4,15.4,94,11.93,40,7.7,295.6,330.1,297.7
929.4,791,16.4,15.4,94,11.93,39,7.6,295.6,330.1,297.7
928.8,796,16.3,15.3,94,11.89,39,7.6,295.7,330.0,297.8
928.2,802,16.3,15.3,94,11.83,38,7.6,295.7,329.9,297.8
927.5,808,16.3,15.2,94,11.82,38,7.5,295.7,329.9,297.8
926.9,814,16.2,15.2,94,11.81,37,7.5,295.7,329.9,297.8
926.2,820,16.2,15.2,94,11.80,37,7.5,295.7,329.9,297.8
925.6,826,16.1,15.2,94,11.79,37,7.5,295.7,329.8,297.8
925.0,831,16.1,15.1,94,11.78,37,7.5,295.7,329.8,297.8
924.4,837,16.0,15.2,95,11.80,36,7.4,295.7,329.9,297.8
923.8,842,16.0,15.2,95,11.83,35,7.4,295.7,329.9,297.8
923.3,847,15.9,15.2,95,11.82,34,7.4,295.7,329.9,297.8
922.7,853,15.9,15.1,95,11.79,34,7.4,295.7,329.8,297.8
922.2,858,15.8,15.0,95,11.74,33,7.5,295.7,329.7,297.8
921.6,863,15.8,15.0,95,11.73,33,7.5,295.7,329.7,297.8
921.0,868,15.7,15.1,96,11.76,32,7.5,295.7,329.8,297.8
920.5,873,15.7,15.0,96,11.75,32,7.5,295.7,329.8,297.8
919.9,879,15.6,15.0,96,11.72,31,7.6,295.8,329.7,297.8
919.3,884,15.6,14.9,95,11.66,30,7.6,295.8,329.5,297.9
918.7,890,15.6,14.8,95,11.62,30,7.6,295.8,329.5,297.9
918.1,895,15.6,14.8,95,11.57,29,7.7,295.9,329.4,297.9
917.5,901,15.6,14.7,94,11.52,28,7.7,295.9,329.3,298.0
916.8,907,15.6,14.6,94,11.48,28,7.7,296.0,329.3,298.0
916.2,913,15.5,14.6,94,11.47,27,7.8,296.0,329.3,298.0
915.5,919,15.5,14.6,94,11.45,27,7.8,296.0,329.2,298.1
914.9,925,15.5,14.5,94,11.45,26,7.9,296.0,329.2,298.1
914.2,931,15.4,14.6,95,11.48,26,7.9,296.0,329.3,298.1
913.6,937,15.3,14.6,95,11.49,25,7.9,296.0,329.3,298.0
912.9,943,15.3,14.5,95,11.47,25,8.0,296.0,329.3,298.0
912.2,950,15.2,14.5,96,11.46,24,8.0,296.0,329.3,298.1
911.6,956,15.2,14.5,96,11.46,24,8.0,296.0,329.2,298.1
910.9,962,15.1,14.5,96,11.47,24,8.0,296.0,329.3,298.1
910.2,969,15.0,14.5,96,11.47,23,8.0,296.0,329.3,298.1
909.5,975,15.0,14.4,96,11.44,23,8.0,296.1,329.2,298.1
908.9,981,15.0,14.4,96,11.39,23,8.0,296.1,329.1,298.1
908.2,987,14.9,14.3,96,11.38,23,8.0,296.1,329.1,298.1
907.6,993,14.9,14.3,97,11.38,23,8.0,296.1,329.1,298.1
906.9,999,14.8,14.3,97,11.35,23,8.0,296.1,329.0,298.1
906.3,1005,14.8,14.2,97,11.31,23,7.9,296.1,328.9,298.1
905.8,1010,14.7,14.2,96,11.28,23,7.9,296.1,328.8,298.1
905.2,1015,14.7,14.1,97,11.27,23,7.8,296.1,328.8,298.1
904.6,1021,14.6,14.1,97,11.28,23,7.8,296.2,328.9,298.2
904.1,1026,14.6,14.1,97,11.28,23,7.7,296.1,328.9,298.2
903.5,1031,14.5,14.1,97,11.29,23,7.6,296.2,328.9,298.2
902.9,1037,14.5,14.1,98,11.30,23,7.5,296.2,328.9,298.2
902.4,1042,14.4,14.1,98,11.30,23,7.5,296.1,328.9,298.2
901.8,1047,14.4,14.1,98,11.27,23,7.4,296.1,328.9,298.2
901.3,1052,14.3,14.0,98,11.25,23,7.3,296.2,328.8,298.2
900.7,1058,14.3,14.0,98,11.24,23,7.2,296.2,328.8,298.2
900.2,1063,14.3,14.0,98,11.22,23,7.1,296.2,328.8,298.2
899.7,1067,14.4,14.0,98,11.23,23,7.0,296.3,328.9,298.3
899.1,1072,14.4,14.0,98,11.27,22,7.0,296.4,329.1,298.4
898.6,1077,14.3,14.0,98,11.29,22,6.9,296.4,329.2,298.4
898.1,1082,14.2,14.0,98,11.26,21,6.8,296.4,329.0,298.4
897.6,1087,14.2,13.9,98,11.19,21,6.8,296.4,328.9,298.4
897.0,1092,14.2,13.9,98,11.17,20,6.7,296.4,328.8,298.4
896.5,1097,14.2,13.9,98,11.18,19,6.7,296.4,328.9,298.4
896.0,1102,14.2,13.9,98,11.23,19,6.6,296.5,329.1,298.5
895.4,1108,14.1,13.9,99,11.24,18,6.6,296.5,329.1,298.5
894.8,1113,14.1,13.9,98,11.19,17,6.5,296.5,329.0,298.5
894.3,1118,14.1,13.8,98,11.13,15,6.5,296.5,328.9,298.5
893.7,1124,14.1,13.7,97,11.07,14,6.5,296.6,328.8,298.6
893.1,1130,14.1,13.5,96,10.99,13,6.5,296.7,328.7,298.7
892.5,1135,14.2,13.5,96,10.94,12,6.5,296.8,328.7,298.8
891.9,1141,14.1,13.5,96,10.95,11,6.5,296.8,328.7,298.8
891.3,1146,14.0,13.5,96,10.96,10,6.5,296.8,328.7,298.7
890.7,1152,14.0,13.5,97,10.96,8,6.5,296.8,328.7,298.7
890.2,1157,13.9,13.4,97,10.95,7,6.5,296.8,328.6,298.7
889.6,1162,13.9,13.5,97,10.98,6,6.5,296.8,328.7,298.7
889.1,1167,13.8,13.5,98,11.01,5,6.6,296.8,328.8,298.7
888.5,1173,13.8,13.6,99,11.07,4,6.6,296.8,329.0,298.8
888.0,1178,13.8,13.8,100,11.21,3,6.6,296.9,329.5,298.9
887.4,1184,13.8,13.8,100,11.27,2,6.6,296.9,329.7,298.9
886.8,1189,13.8,13.7,99,11.17,2,6.6,296.9,329.5,298.9
886.2,1195,13.7,13.5,99,11.03,1,6.6,296.9,329.1,298.9
885.6,1200,13.7,13.4,98,10.94,360,6.6,296.9,328.8,298.9
885.0,1206,13.6,13.3,98,10.91,360,6.5,296.9,328.7,298.9
884.5,1212,13.6,13.3,98,10.94,359,6.5,297.0,328.8,298.9
883.9,1217,13.6,13.4,99,10.96,359,6.5,297.0,328.9,298.9
883.3,1223,13.5,13.3,99,10.96,359,6.5,297.0,329.0,299.0
882.6,1229,13.5,13.3,99,10.97,358,6.4,297.0,329.0,299.0
882.0,1235,13.4,13.3,99,10.96,358,6.4,297.1,329.0,299.0
881.3,1241,13.4,13.3,99,10.98,358,6.4,297.1,329.1,299.1
880.7,1248,13.4,13.3,99,10.98,358,6.3,297.1,329.1,299.1
880.0,1254,13.4,13.3,99,10.96,358,6.3,297.2,329.1,299.1
879.4,1260,13.3,13.3,99,10.95,358,6.2,297.2,329.1,299.2
878.8,1266,13.3,13.2,99,10.93,358,6.2,297.2,329.1,299.2
878.2,1272,13.3,13.2,99,10.92,359,6.1,297.3,329.1,299.2
877.6,1277,13.3,13.2,99,10.92,359,6.1,297.3,329.2,299.2
877.0,1283,13.2,13.2,100,10.94,359,6.0,297.3,329.2,299.3
876.5,1288,13.2,13.2,100,10.93,359,6.0,297.3,329.2,299.3
875.9,1294,13.2,13.2,100,10.92,359,5.9,297.3,329.2,299.3
875.3,1299,13.1,13.1,100,10.88,360,5.9,297.4,329.1,299.3
874.7,1305,13.1,13.0,100,10.85,360,5.9,297.4,329.0,299.3
874.2,1310,13.0,13.0,100,10.80,360,5.8,297.3,328.9,299.3
873.6,1316,12.9,12.9,100,10.76,360,5.8,297.3,328.7,299.3
873.0,1321,12.9,12.8,100,10.73,360,5.8,297.3,328.7,299.3
872.5,1327,12.9,12.8,100,10.70,360,5.7,297.4,328.6,299.3
871.9,1332,12.9,12.8,100,10.71,360,5.7,297.4,328.7,299.3
871.4,1337,12.9,12.8,99,10.72,360,5.7,297.5,328.8,299.4
870.8,1343,12.9,12.7,99,10.68,360,5.6,297.5,328.8,299.5
870.2,1348,12.8,12.7,99,10.65,360,5.6,297.5,328.7,299.4
869.7,1354,12.7,12.7,99,10.65,359,5.6,297.5,328.6,299.4
869.1,1360,12.7,12.6,100,10.64,359,5.6,297.6,328.6,299.5
868.5,1365,12.7,12.6,99,10.60,359,5.5,297.6,328.6,299.5
867.9,1371,12.7,12.5,99,10.57,358,5.5,297.6,328.5,299.5
867.3,1377,12.6,12.5,99,10.56,357,5.5,297.6,328.5,299.5
866.6,1383,12.6,12.5,99,10.56,357,5.5,297.7,328.5,299.5
866.0,1390,12.5,12.5,100,10.57,356,5.5,297.7,328.6,299.6
865.3,1396,12.5,12.5,100,10.56,355,5.5,297.7,328.6,299.6
864.7,1402,12.5,12.4,100,10.54,354,5.5,297.7,328.6,299.6
864.0,1409,12.5,12.4,99,10.51,354,5.5,297.8,328.5,299.7
863.4,1415,12.4,12.3,99,10.49,353,5.5,297.8,328.5,299.7
862.7,1422,12.4,12.3,99,10.48,352,5.5,297.8,328.5,299.7
862.0,1428,12.4,12.3,100,10.47,351,5.5,297.9,328.5,299.8
861.4,1435,12.3,12.3,100,10.47,350,5.6,297.9,328.5,299.8
860.7,1441,12.3,12.2,100,10.46,348,5.6,297.9,328.5,299.8
860.0,1448,12.2,12.2,100,10.44,347,5.6,298.0,328.5,299.8
859.3,1455,12.2,12.2,100,10.43,346,5.6,298.0,328.6,299.9
858.6,1462,12.2,12.1,100,10.42,345,5.7,298.1,328.6,299.9
857.9,1469,12.2,12.1,99,10.39,344,5.7,298.1,328.5,300.0
857.2,1475,12.2,12.1,99,10.39,343,5.8,298.1,328.6,300.0
856.5,1482,12.1,12.1,100,10.40,342,5.8,298.2,328.7,300.0
855.8,1489,12.1,12.1,100,10.40,341,5.9,298.2,328.7,300.1
855.2,1495,12.1,12.0,100,10.38,340,5.9,298.2,328.7,300.1
854.5,1502,12.0,12.0,100,10.35,339,6.0,298.3,328.6,300.1
853.8,1508,12.0,11.9,100,10.34,338,6.0,298.3,328.6,300.2
853.2,1515,12.0,12.0,100,10.35,337,6.1,298.4,328.7,300.2
852.6,1521,12.0,12.0,100,10.36,336,6.1,298.4,328.8,300.2
852.0,1527,11.9,11.9,100,10.33,336,6.2,298.4,328.7,300.3
851.4,1532,11.9,11.8,99,10.30,335,6.2,298.5,328.7,300.3
850.9,1537,11.9,11.8,99,10.26,334,6.3,298.5,328.7,300.4
850.4,1542,11.9,11.7,99,10.23,334,6.3,298.5,328.6,300.4
850.0,1546,11.9,11.7,99,10.21,334,6.3,298.5,328.5,300.4
849.5,1551,11.8,11.7,99,10.19,333,6.4,298.5,328.5,300.4
849.1,1555,11.8,11.7,99,10.22,332,6.5,298.6,328.6,300.4
848.7,1559,11.8,11.7,100,10.24,331,6.5,298.6,328.7,300.4
848.3,1563,11.7,11.7,100,10.21,331,6.5,298.6,328.6,300.4
847.9,1567,11.7,11.6,100,10.16,331,6.5,298.5,328.4,300.4
847.5,1571,11.6,11.5,99,10.12,330,6.5,298.6,328.3,300.4
847.1,1575,11.6,11.4,99,10.06,330,6.5,298.6,328.1,300.4
846.7,1579,11.6,11.3,98,9.95,329,6.5,298.6,327.9,300.4
846.2,1584,11.7,11.1,96,9.84,329,6.5,298.7,327.7,300.5
845.8,1588,11.7,11.0,96,9.81,328,6.5,298.8,327.7,300.5
845.3,1592,11.6,11.1,97,9.88,328,6.4,298.8,327.9,300.6
844.9,1597,11.6,11.3,98,9.98,327,6.4,298.7,328.1,300.5
844.4,1602,11.5,11.3,99,10.02,327,6.4,298.7,328.2,300.5
843.9,1606,11.4,11.3,99,9.99,326,6.3,298.7,328.1,300.5
843.4,1611,11.4,11.2,99,9.95,326,6.3,298.7,328.0,300.5
842.9,1616,11.4,11.1,98,9.90,325,6.2,298.7,327.9,300.5
842.4,1621,11.3,11.0,98,9.87,324,6.1,298.8,327.8,300.5
841.9,1627,11.3,11.0,98,9.86,323,6.1,298.8,327.8,300.6
841.4,1632,11.3,11.1,99,9.89,323,6.0,298.8,327.9,300.6
840.8,1637,11.3,11.1,99,9.92,322,6.0,298.8,328.0,300.6
840.3,1643,11.2,11.1,99,9.92,321,5.9,298.9,328.1,300.6
839.7,1648,11.2,11.0,99,9.89,320,5.8,298.9,328.0,300.7
839.2,1653,11.2,11.0,99,9.86,319,5.8,298.9,328.0,300.7
838.7,1659,11.1,11.0,99,9.85,318,5.7,298.9,328.0,300.7
838.2,1664,11.1,10.9,99,9.85,318,5.7,299.0,328.0,300.8
837.6,1669,11.1,10.9,99,9.85,317,5.7,299.0,328.0,300.8
837.1,1674,11.1,10.9,99,9.84,316,5.6,299.0,328.0,300.8
836.6,1679,11.0,10.9,99,9.81,315,5.6,299.0,327.9,300.8
836.1,1684,11.0,10.8,99,9.79,314,5.6,299.0,327.9,300.8
835.6,1690,10.9,10.8,99,9.79,314,5.6,299.0,327.9,300.8
835.1,1695,10.9,10.8,99,9.79,313,5.6,299.1,327.9,300.8
834.6,1700,10.9,10.8,99,9.79,313,5.6,299.1,327.9,300.8
834.0,1705,10.8,10.7,99,9.77,312,5.6,299.1,327.9,300.9
833.5,1710,10.8,10.7,99,9.73,312,5.6,299.1,327.8,300.9
833.0,1716,10.8,10.6,99,9.69,311,5.6,299.1,327.7,300.9
832.4,1721,10.7,10.5,99,9.65,311,5.6,299.1,327.6,300.9
831.9,1727,10.7,10.4,98,9.58,311,5.6,299.2,327.4,300.9
831.3,1732,10.6,10.3,98,9.50,311,5.7,299.2,327.2,300.9
830.8,1738,10.6,10.2,97,9.45,311,5.7,299.2,327.1,300.9
830.2,1744,10.6,10.1,97,9.42,310,5.8,299.2,327.0,300.9
829.7,1749,10.6,10.1,97,9.43,310,5.8,299.2,327.1,300.9
829.1,1754,10.5,10.1,97,9.41,310,5.9,299.3,327.1,301.0
828.6,1760,10.5,10.0,97,9.36,310,5.9,299.3,326.9,301.0
828.1,1765,10.5,9.9,96,9.32,310,6.0,299.3,326.9,301.0
827.6,1770,10.5,10.0,97,9.35,309,6.1,299.4,327.0,301.1
827.0,1775,10.4,10.1,98,9.43,309,6.1,299.4,327.2,301.1
826.5,1781,10.3,10.2,99,9.53,309,6.2,299.3,327.5,301.0
825.9,1787,10.3,10.3,100,9.54,308,6.2,299.3,327.5,301.0
825.3,1793,10.2,10.2,100,9.52,308,6.3,299.3,327.4,301.0
824.7,1799,10.2,10.1,100,9.47,307,6.4,299.4,327.3,301.1
824.1,1805,10.2,10.0,99,9.43,307,6.4,299.4,327.3,301.1
823.5,1811,10.1,10.0,99,9.39,306,6.5,299.5,327.2,301.1
823.0,1817,10.1,9.9,99,9.38,305,6.5,299.5,327.2,301.2
822.4,1822,10.1,10.0,99,9.39,304,6.5,299.5,327.3,301.2
821.9,1827,10.1,9.9,99,9.38,303,6.6,299.6,327.3,301.3
821.4,1833,10.1,9.9,99,9.38,302,6.6,299.6,327.4,301.3
820.9,1838,10.1,9.9,99,9.38,301,6.6,299.7,327.4,301.4
820.3,1843,10.1,9.9,99,9.39,300,6.7,299.7,327.5,301.4
819.8,1849,10.0,9.9,99,9.39,299,6.7,299.7,327.5,301.4
819.3,1854,10.0,9.9,99,9.37,298,6.7,299.7,327.5,301.4
818.7,1860,10.0,9.9,99,9.37,296,6.7,299.8,327.5,301.5
818.2,1865,9.9,9.8,99,9.36,295,6.8,299.8,327.5,301.5
817.6,1871,9.9,9.8,99,9.34,294,6.8,299.8,327.5,301.5
817.1,1877,9.9,9.7,99,9.32,292,6.8,299.8,327.4,301.5
816.5,1882,9.8,9.7,99,9.27,291,6.8,299.8,327.3,301.5
816.0,1888,9.7,9.6,99,9.23,290,6.8,299.8,327.1,301.5
815.5,1893,9.7,9.5,99,9.18,289,6.8,299.8,327.0,301.4
814.9,1898,9.6,9.4,99,9.14,288,6.8,299.8,326.9,301.4
814.4,1904,9.6,9.4,98,9.10,286,6.8,299.8,326.8,301.5
813.9,1909,9.5,9.3,98,9.05,285,6.8,299.8,326.6,301.5
813.4,1914,9.5,9.1,98,8.98,284,6.8,299.8,326.4,301.5
812.8,1920,9.5,9.1,98,8.99,283,6.8,299.9,326.5,301.5
812.3,1926,9.5,9.0,97,8.94,282,6.8,299.9,326.4,301.5
811.7,1931,9.4,8.7,95,8.74,282,6.8,299.9,325.9,301.5
811.1,1937,9.4,8.3,93,8.51,281,6.8,300.0,325.3,301.5
810.5,1943,9.4,8.1,91,8.38,280,6.8,300.1,325.0,301.6
