PRES,HGHT,TEMP,DWPT,RELH,MIXR,DRCT,SPED,THTA,THTE,THTV
1016.3,31,26.9,19.0,62,13.77,56,7.4,298.7,339.0,301.1
1015.4,39,26.5,19.2,64,13.91,47,4.6,298.3,339.0,300.8
1014.8,44,25.9,19.1,66,13.83,44,4.3,297.8,338.1,300.3
1014.1,49,25.8,19.1,67,13.82,43,4.4,297.7,338.0,300.2
1013.5,55,25.6,18.9,66,13.68,44,4.7,297.6,337.5,300.1
1012.9,60,25.5,18.8,67,13.63,44,5.0,297.5,337.2,299.9
1012.3,65,25.4,18.9,67,13.66,45,5.4,297.5,337.3,299.9
1011.7,70,25.4,18.8,67,13.63,45,5.6,297.5,337.3,300.0
1011.1,76,25.4,18.8,67,13.59,46,5.9,297.6,337.2,300.0
1010.5,81,25.3,18.8,67,13.60,46,6.1,297.6,337.2,300.0
1009.9,87,25.2,18.8,68,13.66,46,6.3,297.5,337.3,299.9
1009.2,92,25.1,18.8,68,13.68,47,6.6,297.5,337.3,299.9
1008.6,98,25.0,18.8,68,13.64,47,6.8,297.4,337.1,299.8
1007.9,104,24.9,18.8,69,13.67,47,6.9,297.4,337.1,299.8
1007.2,110,24.8,18.8,70,13.70,48,7.1,297.3,337.2,299.8
1006.6,115,24.7,18.7,70,13.63,48,7.3,297.2,336.9,299.7
1005.9,122,24.5,18.6,70,13.55,48,7.4,297.2,336.5,299.6
1005.2,128,24.3,18.6,70,13.53,48,7.6,297.0,336.4,299.4
1004.4,134,24.2,18.5,70,13.45,49,7.7,297.0,336.0,299.4
1003.7,140,24.1,18.3,70,13.29,49,7.9,296.9,335.6,299.3
1003.0,146,24.0,18.1,70,13.18,49,8.0,296.9,335.2,299.3
1002.3,152,24.0,18.2,70,13.27,49,8.1,297.0,335.6,299.3
1001.6,158,24.1,18.4,70,13.40,49,8.2,297.1,336.1,299.5
1000.9,164,24.0,18.1,70,13.18,50,8.3,297.1,335.4,299.4
1000.3,171,23.8,17.7,69,12.87,50,8.4,297.0,334.4,299.2
1000.0,173,23.8,17.7,69,12.86,50,8.5,296.9,334.3,299.2
999.6,177,23.7,17.7,69,12.83,50,8.5,296.9,334.2,299.2
998.9,182,23.6,17.8,70,12.90,50,8.6,296.9,334.4,299.2
998.2,188,23.6,17.8,70,12.94,50,8.7,296.9,334.5,299.2
997.6,194,23.5,17.8,70,12.94,50,8.8,296.9,334.5,299.2
996.9,200,23.5,17.8,70,12.96,51,8.9,296.9,334.5,299.2
996.3,205,23.4,17.8,71,13.01,51,8.9,296.9,334.7,299.2
995.6,211,23.4,17.8,71,13.00,51,9.0,296.9,334.7,299.2
995.0,217,23.3,17.7,71,12.89,51,9.1,296.9,334.3,299.2
994.3,223,23.3,17.6,70,12.82,51,9.2,296.9,334.2,299.2
993.6,229,23.2,17.6,71,12.86,51,9.2,296.9,334.3,299.2
992.9,235,23.1,17.6,71,12.89,52,9.3,296.9,334.3,299.2
992.1,242,23.1,17.6,71,12.89,52,9.3,296.9,334.3,299.2
991.4,248,23.0,17.6,72,12.88,52,9.4,296.9,334.3,299.2
990.7,255,22.9,17.6,72,12.91,52,9.4,296.9,334.4,299.2
990.0,261,22.9,17.7,72,12.96,52,9.5,296.9,334.6,299.2
989.3,267,22.8,17.7,73,13.02,52,9.5,296.9,334.7,299.2
988.5,274,22.8,17.8,73,13.05,52,9.6,296.9,334.8,299.2
987.8,280,22.7,17.7,74,13.04,53,9.6,296.9,334.8,299.2
987.1,286,22.6,17.7,74,13.02,53,9.6,296.9,334.7,299.2
986.4,292,22.6,17.7,74,13.00,53,9.6,296.9,334.7,299.2
985.7,299,22.5,17.7,74,13.01,53,9.6,296.9,334.7,299.2
985.0,305,22.5,17.7,74,13.01,53,9.6,296.9,334.7,299.2
984.2,312,22.4,17.6,74,13.00,53,9.6,296.9,334.7,299.2
983.5,318,22.3,17.6,75,12.98,53,9.6,296.9,334.6,299.2
982.8,324,22.3,17.6,75,12.96,53,9.7,296.9,334.5,299.2
982.1,331,22.2,17.5,75,12.93,53,9.7,296.9,334.5,299.2
981.4,337,22.2,17.5,75,12.91,53,9.7,296.9,334.4,299.2
980.7,343,22.1,17.5,75,12.94,52,9.7,296.9,334.5,299.2
980.1,348,22.0,17.5,76,12.98,52,9.7,296.9,334.6,299.2
979.5,354,22.0,17.6,76,13.00,52,9.7,296.9,334.6,299.2
978.8,360,21.9,17.5,76,13.00,52,9.7,296.9,334.6,299.2
978.2,365,21.9,17.5,76,13.00,52,9.7,296.9,334.7,299.2
977.6,370,21.8,17.5,77,13.01,51,9.7,296.9,334.7,299.2
977.0,376,21.8,17.5,77,13.02,51,9.8,296.9,334.7,299.2
976.4,381,21.7,17.5,77,13.00,50,9.8,296.9,334.6,299.2
975.9,386,21.7,17.4,77,12.93,50,9.8,296.9,334.4,299.2
975.3,391,21.6,17.3,76,12.82,50,9.8,296.9,334.1,299.2
974.8,396,21.6,17.0,75,12.62,49,9.9,296.9,333.6,299.1
974.3,400,21.6,16.9,75,12.51,49,9.9,296.9,333.3,299.1
973.8,404,21.5,16.9,75,12.51,49,9.9,296.9,333.3,299.2
973.3,409,21.5,16.9,75,12.54,48,9.9,296.9,333.4,299.2
972.9,413,21.5,16.9,75,12.52,48,10.0,296.9,333.3,299.2
972.4,417,21.4,16.8,75,12.49,48,10.0,296.9,333.3,299.2
972.0,421,21.4,16.8,75,12.46,48,10.0,296.9,333.2,299.2
971.5,425,21.4,16.8,75,12.45,48,10.0,297.0,333.2,299.2
971.0,429,21.3,16.8,75,12.46,47,10.1,297.0,333.2,299.2
970.5,434,21.3,16.8,76,12.48,47,10.1,297.0,333.3,299.2
970.0,439,21.2,16.9,76,12.55,47,10.1,297.0,333.5,299.2
969.4,444,21.2,16.9,77,12.62,47,10.1,297.0,333.6,299.2
968.8,449,21.1,16.9,77,12.61,48,10.1,296.9,333.6,299.2
968.2,455,21.1,16.9,77,12.59,48,10.0,296.9,333.6,299.2
967.5,461,21.0,16.9,77,12.62,48,10.0,297.0,333.6,299.2
966.8,467,20.9,17.0,78,12.72,48,10.0,296.9,333.9,299.2
966.1,473,20.9,17.1,79,12.78,48,10.0,296.9,334.1,299.2
965.4,479,20.8,16.9,78,12.63,49,10.0,296.9,333.6,299.2
964.7,486,20.8,16.7,77,12.45,49,10.0,296.9,333.2,299.2
964.1,492,20.7,16.6,77,12.41,50,9.9,297.0,333.0,299.2
963.4,498,20.7,16.6,77,12.39,50,9.9,297.0,333.0,299.2
962.7,504,20.6,16.5,77,12.32,51,9.9,297.0,332.8,299.2
962.0,510,20.6,16.3,77,12.23,51,9.9,297.0,332.6,299.2
961.4,515,20.5,16.2,76,12.15,52,9.8,297.0,332.4,299.2
960.8,521,20.5,16.2,76,12.14,52,9.8,297.0,332.3,299.2
960.3,526,20.5,16.2,77,12.18,53,9.8,297.0,332.4,299.2
959.7,531,20.4,16.3,77,12.21,53,9.8,297.0,332.5,299.2
959.2,535,20.4,16.2,77,12.18,54,9.8,297.0,332.5,299.2
958.7,540,20.3,16.2,77,12.15,54,9.8,297.0,332.4,299.2
958.2,545,20.3,16.2,77,12.16,55,9.8,297.0,332.4,299.2
957.7,549,20.2,16.2,78,12.19,55,9.8,297.0,332.5,299.2
957.2,554,20.2,16.2,78,12.22,56,9.8,297.0,332.6,299.2
956.7,558,20.2,16.3,78,12.24,56,9.8,297.0,332.6,299.2
956.2,563,20.1,16.2,78,12.24,57,9.8,297.0,332.6,299.2
955.7,567,20.1,16.2,78,12.20,57,9.8,297.0,332.5,299.2
955.1,572,20.0,16.1,78,12.17,58,9.8,297.0,332.5,299.2
954.6,577,20.0,16.1,78,12.15,58,9.8,297.0,332.4,299.2
954.1,582,19.9,16.1,79,12.16,58,9.8,297.0,332.4,299.2
953.5,587,19.9,16.1,79,12.18,59,9.8,297.0,332.5,299.2
953.0,591,19.8,16.1,79,12.18,59,9.8,297.0,332.5,299.2
952.5,596,19.8,16.1,79,12.17,59,9.8,297.0,332.5,299.2
951.9,601,19.7,16.1,80,12.18,60,9.8,297.0,332.5,299.2
951.4,606,19.7,16.1,80,12.18,60,9.8,297.0,332.5,299.2
950.9,611,19.6,16.1,80,12.17,60,9.9,297.0,332.4,299.2
950.4,615,19.6,16.1,80,12.16,60,9.9,297.0,332.4,299.2
949.9,620,19.6,16.0,80,12.14,61,9.9,297.0,332.4,299.2
949.4,624,19.5,15.9,80,12.07,61,9.9,297.1,332.2,299.2
948.9,629,19.5,15.9,79,12.02,61,9.9,297.1,332.1,299.2
948.4,633,19.5,15.8,79,12.01,61,9.9,297.1,332.0,299.2
947.9,638,19.4,15.8,80,12.02,62,9.9,297.1,332.1,299.2
947.4,643,19.4,15.9,80,12.06,62,9.9,297.1,332.2,299.2
946.9,647,19.3,15.9,80,12.07,62,9.9,297.1,332.2,299.2
946.4,652,19.3,15.9,81,12.07,62,9.9,297.1,332.2,299.2
945.9,656,19.2,15.9,81,12.07,62,9.9,297.1,332.2,299.2
945.3,661,19.2,15.8,81,12.04,63,9.9,297.1,332.1,299.2
944.8,666,19.2,15.7,80,11.97,63,9.9,297.1,331.9,299.2
944.3,670,19.1,15.6,80,11.89,63,9.9,297.1,331.7,299.2
943.8,675,19.1,15.5,80,11.83,63,10.0,297.1,331.6,299.2
943.4,679,19.1,15.5,80,11.83,64,10.0,297.1,331.6,299.2
942.9,684,19.0,15.5,80,11.83,64,10.0,297.1,331.6,299.3
942.4,688,19.0,15.5,80,11.82,64,10.0,297.1,331.6,299.3
941.8,693,19.0,15.5,80,11.83,64,10.0,297.2,331.6,299.3
941.3,698,18.9,15.5,81,11.88,65,10.1,297.1,331.7,299.3
940.8,703,18.8,15.6,82,11.94,65,10.1,297.1,331.9,299.3
940.2,708,18.8,15.7,82,12.00,65,10.1,297.1,332.0,299.3
939.6,713,18.7,15.7,83,12.02,66,10.1,297.1,332.1,299.3
939.0,719,18.7,15.7,83,12.00,66,10.2,297.1,332.1,299.3
938.4,724,18.6,15.6,83,11.99,66,10.2,297.1,332.0,299.3
937.8,730,18.6,15.6,83,11.95,67,10.2,297.1,331.9,299.2
937.2,735,18.5,15.5,83,11.89,67,10.3,297.1,331.7,299.2
936.6,741,18.5,15.4,82,11.81,67,10.3,297.1,331.5,299.2
936.0,746,18.4,15.3,82,11.73,68,10.3,297.1,331.3,299.2
935.4,752,18.4,15.2,81,11.65,68,10.4,297.2,331.1,299.2
934.8,757,18.4,15.0,81,11.52,68,10.4,297.2,330.8,299.2
934.2,763,18.4,14.7,79,11.36,69,10.5,297.2,330.4,299.3
933.6,769,18.4,14.6,79,11.26,69,10.5,297.3,330.1,299.3
933.0,774,18.3,14.5,78,11.17,69,10.5,297.3,329.9,299.3
932.4,780,18.3,14.3,78,11.09,69,10.6,297.3,329.7,299.3
931.8,785,18.3,14.3,78,11.04,70,10.6,297.4,329.6,299.3
931.3,790,18.2,14.2,77,11.02,70,10.6,297.4,329.5,299.3
930.7,795,18.2,14.2,77,10.98,70,10.7,297.4,329.4,299.4
930.2,800,18.2,14.0,77,10.90,70,10.7,297.4,329.2,299.4
929.7,805,18.2,13.9,76,10.77,71,10.7,297.5,328.9,299.4
929.2,809,18.2,13.7,75,10.64,71,10.8,297.5,328.6,299.4
928.7,814,18.2,13.5,74,10.52,71,10.8,297.5,328.3,299.4
928.1,819,18.2,13.3,73,10.42,71,10.8,297.6,328.1,299.5
927.6,824,18.2,13.3,73,10.37,71,10.9,297.6,328.0,299.5
927.1,829,18.1,13.2,73,10.36,71,10.9,297.7,328.0,299.5
926.5,834,18.1,13.2,73,10.37,71,10.9,297.7,328.1,299.5
926.0,839,18.1,13.3,73,10.39,71,10.9,297.7,328.1,299.6
925.5,844,18.0,13.2,74,10.38,71,11.0,297.7,328.1,299.5
925.0,848,18.0,13.1,73,10.30,71,11.0,297.7,327.8,299.5
924.4,853,18.0,12.8,72,10.09,71,11.0,297.7,327.3,299.6
923.9,858,18.0,12.5,70,9.91,71,11.0,297.8,326.9,299.6
923.4,863,18.1,12.3,69,9.81,71,11.0,297.9,326.7,299.7
922.8,868,18.1,12.3,69,9.77,71,11.1,298.0,326.7,299.7
922.3,873,18.0,12.3,69,9.79,70,11.1,298.0,326.7,299.7
921.7,879,18.0,12.3,69,9.80,70,11.1,298.0,326.7,299.7
921.1,885,18.0,12.1,69,9.69,70,11.1,298.0,326.5,299.8
920.4,891,18.0,11.8,67,9.50,70,11.1,298.1,326.0,299.8
919.8,896,18.0,11.5,66,9.31,70,11.1,298.2,325.6,299.8
919.2,902,18.0,11.2,64,9.13,70,11.1,298.2,325.1,299.9
918.6,908,18.0,10.9,63,8.97,70,11.1,298.3,324.7,299.9
918.0,913,18.0,10.8,63,8.88,70,11.1,298.4,324.6,300.0
917.4,919,18.0,10.7,62,8.85,69,11.2,298.4,324.5,300.0
916.9,924,18.0,10.7,62,8.82,69,11.2,298.5,324.5,300.1
916.4,929,18.0,10.5,62,8.76,69,11.2,298.5,324.4,300.1
915.9,933,18.0,10.5,61,8.72,69,11.2,298.6,324.3,300.1
915.4,938,18.0,10.4,61,8.71,69,11.2,298.6,324.3,300.2
914.9,942,18.0,10.5,62,8.72,69,11.2,298.6,324.3,300.2
914.4,947,17.9,10.5,62,8.73,69,11.2,298.6,324.4,300.2
913.9,952,17.9,10.5,62,8.75,70,11.2,298.6,324.5,300.2
913.3,957,17.8,10.5,62,8.75,70,11.1,298.6,324.5,300.2
912.8,962,17.8,10.4,62,8.73,70,11.1,298.6,324.4,300.2
912.2,967,17.8,10.4,62,8.69,70,11.1,298.7,324.4,300.2
911.7,972,17.8,10.3,62,8.67,70,11.1,298.7,324.3,300.3
911.2,977,17.7,10.3,62,8.65,71,11.1,298.7,324.3,300.3
910.6,982,17.7,10.3,62,8.65,71,11.0,298.7,324.3,300.3
910.1,988,17.7,10.3,62,8.65,72,11.0,298.7,324.3,300.3
909.5,993,17.6,10.3,62,8.67,72,11.0,298.8,324.4,300.3
908.9,998,17.6,10.3,62,8.69,73,10.9,298.8,324.4,300.3
908.4,1003,17.5,10.3,63,8.69,73,10.9,298.8,324.5,300.3
907.8,1009,17.5,10.3,63,8.69,74,10.8,298.8,324.5,300.3
907.3,1014,17.5,10.3,63,8.69,74,10.8,298.8,324.5,300.4
906.7,1019,17.4,10.3,63,8.70,75,10.7,298.8,324.5,300.4
906.2,1024,17.4,10.3,63,8.72,75,10.7,298.8,324.6,300.4
905.6,1029,17.3,10.4,63,8.75,76,10.7,298.8,324.7,300.4
905.1,1034,17.3,10.4,64,8.80,77,10.6,298.8,324.8,300.4
904.6,1039,17.2,10.6,65,8.88,77,10.6,298.8,325.1,300.4
904.0,1044,17.2,10.8,66,9.02,78,10.5,298.8,325.5,300.4
903.5,1049,17.1,11.0,67,9.19,79,10.5,298.8,325.9,300.5
903.0,1055,17.1,11.2,69,9.31,80,10.4,298.8,326.3,300.5
902.4,1060,17.0,11.3,69,9.39,80,10.4,298.8,326.5,300.5
901.9,1065,17.0,11.4,70,9.44,81,10.4,298.8,326.6,300.5
901.4,1070,16.9,11.5,70,9.50,82,10.3,298.8,326.8,300.5
900.9,1074,16.9,11.6,71,9.54,82,10.3,298.8,327.0,300.5
900.4,1079,16.9,11.5,71,9.54,83,10.3,298.8,327.0,300.6
899.9,1084,16.9,11.4,70,9.46,83,10.3,298.9,326.8,300.6
899.4,1089,16.9,11.2,69,9.34,84,10.2,298.9,326.5,300.6
898.9,1093,16.9,11.0,68,9.24,84,10.2,299.0,326.3,300.7
898.3,1098,16.9,10.9,68,9.14,85,10.2,299.1,326.1,300.7
897.8,1103,16.9,10.6,66,8.99,85,10.2,299.1,325.7,300.8
897.3,1108,17.0,10.4,65,8.83,86,10.2,299.2,325.4,300.8
896.8,1113,17.0,10.2,64,8.72,86,10.1,299.3,325.2,300.9
896.3,1118,17.0,10.0,63,8.64,86,10.1,299.4,325.0,301.0
895.8,1123,17.1,9.9,63,8.57,87,10.1,299.5,324.9,301.0
895.2,1128,17.1,9.8,62,8.55,87,10.1,299.5,324.9,301.1
894.7,1133,17.0,9.9,63,8.57,87,10.1,299.5,325.0,301.1
894.2,1138,17.0,9.9,63,8.60,87,10.1,299.5,325.0,301.1
893.7,1143,16.9,9.9,63,8.58,87,10.1,299.6,325.0,301.1
893.2,1148,16.9,9.7,62,8.49,88,10.1,299.6,324.8,301.1
892.6,1153,17.0,9.5,62,8.40,88,10.0,299.7,324.6,301.2
892.1,1158,17.0,9.5,61,8.37,88,10.0,299.7,324.6,301.2
891.6,1162,16.9,9.5,62,8.41,88,10.0,299.7,324.7,301.3
891.1,1167,16.9,9.6,62,8.47,87,10.0,299.8,324.9,301.3
890.6,1172,16.9,9.7,63,8.53,87,10.0,299.8,325.1,301.3
890.1,1177,16.8,9.9,64,8.62,87,10.0,299.8,325.4,301.4
889.6,1181,16.8,10.1,65,8.76,87,10.0,299.8,325.8,301.4
889.1,1187,16.7,10.4,66,8.93,87,10.0,299.8,326.3,301.4
888.6,1192,16.7,10.5,67,9.03,86,10.0,299.8,326.5,301.4
888.0,1197,16.6,10.5,67,9.00,86,10.0,299.8,326.4,301.4
887.5,1202,16.6,10.2,66,8.84,85,10.0,299.8,326.0,301.4
886.9,1208,16.6,10.0,65,8.73,85,10.0,299.8,325.8,301.4
886.4,1213,16.5,10.1,66,8.79,85,10.0,299.8,325.9,301.4
885.9,1218,16.5,10.4,67,8.95,84,10.0,299.8,326.4,301.4
885.4,1223,16.4,10.6,68,9.10,84,10.0,299.8,326.8,301.5
884.9,1227,16.4,10.6,68,9.08,83,10.1,299.8,326.8,301.5
884.4,1232,16.4,10.3,67,8.94,83,10.1,299.9,326.4,301.5
883.9,1237,16.4,10.0,66,8.77,82,10.1,299.9,326.0,301.5
883.4,1241,16.4,9.8,65,8.63,82,10.1,300.0,325.6,301.5
882.9,1246,16.4,9.7,65,8.58,82,10.1,300.0,325.5,301.6
882.4,1251,16.4,9.7,65,8.60,81,10.2,300.0,325.6,301.6
881.8,1256,16.3,9.8,65,8.64,81,10.2,300.1,325.7,301.6
881.3,1262,16.3,9.8,66,8.67,81,10.2,300.1,325.8,301.6
880.7,1267,16.2,9.8,66,8.68,80,10.2,300.1,325.9,301.6
880.2,1273,16.2,9.8,66,8.66,80,10.3,300.0,325.8,301.6
879.6,1278,16.1,9.7,66,8.63,80,10.3,300.0,325.7,301.6
879.1,1283,16.1,9.6,66,8.59,80,10.3,300.1,325.6,301.6
878.5,1288,16.0,9.6,66,8.56,80,10.4,300.1,325.5,301.6
878.0,1293,16.0,9.6,66,8.56,80,10.4,300.1,325.5,301.6
877.5,1298,16.0,9.6,66,8.56,80,10.4,300.1,325.6,301.7
877.0,1303,15.9,9.5,66,8.55,80,10.5,300.1,325.6,301.7
876.5,1309,15.9,9.5,66,8.52,80,10.5,300.1,325.5,301.7
875.9,1314,15.8,9.3,65,8.44,80,10.6,300.1,325.3,301.7
875.4,1319,15.8,9.1,64,8.31,80,10.7,300.2,324.9,301.7
874.8,1324,15.8,8.8,63,8.15,80,10.7,300.2,324.5,301.7
874.3,1330,15.8,8.5,62,7.96,80,10.8,300.2,324.0,301.7
873.7,1335,15.8,8.2,61,7.82,80,10.9,300.3,323.6,301.7
873.1,1341,15.8,8.0,60,7.73,80,10.9,300.4,323.5,301.8
872.5,1347,15.8,7.9,59,7.66,81,11.0,300.4,323.3,301.8
871.9,1353,15.8,7.7,59,7.59,81,11.1,300.5,323.2,301.9
871.2,1359,15.8,7.5,58,7.48,81,11.2,300.5,322.9,301.9
870.6,1366,15.8,7.2,57,7.35,81,11.3,300.6,322.6,301.9
869.9,1372,15.7,6.9,56,7.21,81,11.4,300.6,322.2,301.9
869.3,1378,15.7,6.6,55,7.06,81,11.6,300.6,321.8,301.9
868.7,1384,15.7,6.3,53,6.88,82,11.7,300.7,321.4,301.9
868.1,1390,15.7,5.8,52,6.69,82,11.8,300.7,320.8,301.9
867.6,1395,15.7,5.5,51,6.53,82,11.9,300.8,320.4,301.9
867.1,1400,15.6,5.3,50,6.47,82,12.1,300.8,320.3,302.0
866.6,1405,15.6,5.4,50,6.48,82,12.2,300.8,320.3,302.0
866.1,1409,15.6,5.4,51,6.50,82,12.3,300.8,320.4,302.0
865.6,1414,15.5,5.4,51,6.50,82,12.5,300.8,320.4,302.0
865.1,1419,15.5,5.3,51,6.46,82,12.6,300.8,320.3,302.0
864.6,1424,15.5,5.1,50,6.36,82,12.7,300.8,320.0,302.0
864.1,1429,15.4,4.7,49,6.20,82,12.8,300.9,319.6,302.0
863.5,1435,15.4,4.3,47,6.04,82,13.0,300.9,319.2,302.0
863.0,1440,15.4,4.2,47,5.98,83,13.1,301.0,319.1,302.1
862.5,1445,15.4,4.1,47,5.97,83,13.2,301.0,319.1,302.1
862.0,1450,15.4,4.1,47,5.96,83,13.3,301.0,319.0,302.1
861.5,1454,15.3,4.0,47,5.92,83,13.4,301.0,318.9,302.1
861.1,1459,15.3,3.9,47,5.89,83,13.5,301.0,318.9,302.1
860.6,1464,15.3,3.9,47,5.89,83,13.6,301.0,318.9,302.1
860.1,1469,15.2,3.9,47,5.91,82,13.7,301.1,319.0,302.1
859.6,1474,15.2,4.0,47,5.92,82,13.8,301.1,319.0,302.1
859.1,1479,15.2,3.9,47,5.91,82,13.9,301.1,319.0,302.2
858.5,1484,15.1,3.8,47,5.87,82,14.0,301.1,318.9,302.2
858.0,1489,15.1,3.8,47,5.85,82,14.1,301.1,318.9,302.2
857.5,1494,15.1,3.7,47,5.84,82,14.2,301.2,318.9,302.2
857.0,1499,15.1,3.7,46,5.82,82,14.2,301.2,318.8,302.3
856.6,1503,15.0,3.6,46,5.79,82,14.3,301.2,318.8,302.3
856.1,1508,15.0,3.6,46,5.78,82,14.3,301.3,318.8,302.3
855.7,1512,15.0,3.5,46,5.77,82,14.4,301.3,318.8,302.3
855.3,1516,15.0,3.5,46,5.78,82,14.4,301.3,318.8,302.3
854.8,1521,15.0,3.4,46,5.74,82,14.5,301.3,318.7,302.4
854.4,1525,15.0,3.2,45,5.63,82,14.5,301.3,318.5,302.4
853.9,1530,14.9,2.9,44,5.54,81,14.5,301.4,318.2,302.4
853.4,1535,14.9,2.8,44,5.49,81,14.6,301.4,318.1,302.4
852.9,1540,14.9,2.6,43,5.41,81,14.6,301.4,317.9,302.4
852.4,1545,14.9,2.3,43,5.29,81,14.6,301.5,317.6,302.4
851.9,1550,14.9,1.9,42,5.17,81,14.6,301.5,317.3,302.4
851.4,1555,14.8,1.7,41,5.07,81,14.7,301.5,317.0,302.5
850.9,1560,14.8,1.5,41,5.03,81,14.7,301.6,317.0,302.5
850.4,1565,14.8,1.7,41,5.10,81,14.7,301.6,317.2,302.5
850.0,1568,14.8,2.2,43,5.27,81,14.7,301.6,317.7,302.6
849.9,1570,14.8,2.3,43,5.34,81,14.7,301.6,317.9,302.6
849.3,1575,14.7,3.3,46,5.71,81,14.7,301.6,318.9,302.6
848.8,1580,14.6,4.1,49,6.06,82,14.7,301.6,319.9,302.7
848.3,1585,14.6,4.5,51,6.25,82,14.7,301.6,320.5,302.7
847.8,1590,14.5,4.8,52,6.39,82,14.7,301.6,320.9,302.7
847.4,1595,14.5,5.3,54,6.62,82,14.7,301.5,321.5,302.7
846.9,1599,14.4,5.8,56,6.83,82,14.7,301.5,322.1,302.8
846.5,1604,14.4,5.8,57,6.86,82,14.6,301.5,322.2,302.8
846.0,1608,14.3,5.6,56,6.77,82,14.6,301.5,322.0,302.8
845.6,1612,14.3,5.4,55,6.67,82,14.6,301.6,321.7,302.8
845.3,1616,14.3,5.3,55,6.61,83,14.5,301.6,321.5,302.8
844.9,1619,14.3,5.2,54,6.56,83,14.5,301.6,321.4,302.8
844.5,1623,14.3,5.1,54,6.53,83,14.4,301.6,321.4,302.8
844.2,1627,14.3,5.1,54,6.52,83,14.3,301.6,321.4,302.8
843.8,1630,14.2,5.0,54,6.51,83,14.3,301.7,321.4,302.9
843.5,1633,14.2,5.0,54,6.50,83,14.2,301.7,321.3,302.9
843.2,1637,14.2,5.0,54,6.52,83,14.1,301.7,321.4,302.9
842.8,1640,14.2,5.1,54,6.57,84,14.1,301.7,321.6,302.9
842.4,1644,14.2,5.3,55,6.62,84,14.0,301.7,321.8,303.0
842.0,1648,14.1,5.3,55,6.66,84,13.9,301.8,321.9,303.0
841.6,1652,14.1,5.4,56,6.68,84,13.8,301.8,321.9,303.0
841.2,1657,14.1,5.4,56,6.68,84,13.7,301.8,322.0,303.0
840.7,1661,14.0,5.4,56,6.71,84,13.7,301.8,322.0,303.0
840.3,1666,14.0,5.2,55,6.62,84,13.6,301.8,321.8,303.0
839.8,1670,14.0,4.6,53,6.35,84,13.5,301.8,321.1,303.0
839.3,1675,14.0,3.8,50,5.99,84,13.4,301.9,320.1,303.0
838.8,1680,14.0,2.7,46,5.53,84,13.4,302.0,318.8,303.0
838.3,1686,14.0,1.8,44,5.21,84,13.3,302.0,318.0,303.0
837.7,1691,14.0,1.6,43,5.12,84,13.3,302.1,317.7,303.0
837.2,1696,14.0,1.4,42,5.06,84,13.2,302.1,317.6,303.0
836.7,1702,14.0,1.1,41,4.96,84,13.2,302.2,317.3,303.1
836.2,1707,14.0,0.7,40,4.82,83,13.2,302.2,317.0,303.1
835.7,1712,14.0,0.1,38,4.61,83,13.2,302.3,316.4,303.1
835.2,1717,14.0,-0.7,36,4.37,83,13.2,302.3,315.8,303.1
834.7,1722,14.0,-0.9,36,4.29,83,13.2,302.4,315.7,303.2
834.3,1726,14.0,-0.6,36,4.38,83,13.2,302.4,315.9,303.2
833.8,1731,14.0,-0.4,37,4.44,83,13.2,302.4,316.1,303.3
833.3,1736,14.0,-0.2,38,4.54,83,13.2,302.5,316.5,303.3
832.9,1740,13.9,0.5,40,4.77,83,13.2,302.5,317.1,303.4
832.4,1745,13.9,1.1,42,4.98,83,13.2,302.5,317.8,303.4
832.0,1749,13.9,0.9,41,4.90,83,13.2,302.6,317.6,303.5
831.6,1754,13.9,0.0,39,4.62,83,13.2,302.6,316.8,303.4
831.1,1758,13.9,-0.6,37,4.39,83,13.2,302.7,316.2,303.5
830.7,1763,13.9,-0.9,36,4.30,83,13.3,302.7,316.0,303.5
830.2,1767,13.9,-1.1,36,4.25,83,13.3,302.7,315.8,303.5
829.8,1772,13.9,-1.4,35,4.15,83,13.3,302.7,315.6,303.5
829.3,1776,13.8,-1.8,34,4.04,83,13.3,302.8,315.3,303.5
828.9,1781,13.8,-2.2,33,3.92,83,13.3,302.8,315.0,303.5
828.4,1785,13.8,-2.4,32,3.87,84,13.3,302.8,314.9,303.5
828.0,1790,13.9,-2.4,32,3.88,84,13.4,302.9,315.0,303.6
827.5,1795,13.9,-2.3,32,3.89,84,13.4,303.0,315.1,303.7
827.1,1799,13.9,-2.2,33,3.93,84,13.4,303.1,315.3,303.8
826.7,1803,14.0,-2.0,33,4.01,85,13.4,303.2,315.6,303.9
826.2,1808,14.0,-1.6,34,4.11,85,13.4,303.2,316.0,304.0
825.8,1812,14.0,-1.4,35,4.19,85,13.5,303.3,316.3,304.1
825.4,1816,14.0,-1.3,35,4.23,85,13.5,303.3,316.5,304.1
825.0,1820,14.0,-1.2,35,4.25,85,13.5,303.4,316.6,304.2
824.6,1825,14.0,-1.1,35,4.29,86,13.5,303.4,316.7,304.2
824.1,1829,14.0,-0.9,36,4.36,86,13.6,303.4,316.9,304.2
823.7,1834,14.0,-0.7,36,4.41,86,13.6,303.5,317.1,304.3
823.2,1839,13.9,-0.6,37,4.45,86,13.7,303.5,317.3,304.3
822.7,1844,13.9,-0.5,37,4.47,86,13.7,303.5,317.3,304.3
822.2,1849,13.8,-0.6,37,4.47,86,13.7,303.5,317.3,304.3
821.7,1854,13.8,-0.6,37,4.45,86,13.8,303.5,317.3,304.3
821.2,1859,13.8,-0.6,37,4.45,86,13.8,303.5,317.3,304.3
820.8,1864,13.8,-0.6,37,4.45,86,13.9,303.6,317.3,304.4
820.3,1868,13.7,-0.6,37,4.46,86,13.9,303.6,317.4,304.4
819.8,1873,13.7,-0.6,37,4.47,86,14.0,303.6,317.5,304.4
819.4,1878,13.7,-0.6,38,4.49,86,14.0,303.6,317.5,304.4
