PRES,HGHT,TEMP,DWPT,RELH,MIXR,DRCT,SPED,THTA,THTE,THTV
1010.9,31,27.7,22.7,74,17.40,36,7.5,299.9,351.1,303.0
1010.3,36,27.4,22.9,77,17.71,39,4.9,299.6,351.6,302.8
1009.8,40,27.1,22.9,78,17.65,41,4.6,299.5,351.2,302.6
1009.3,45,26.8,22.9,79,17.66,42,4.8,299.2,350.9,302.4
1008.5,51,26.5,22.8,80,17.61,43,5.1,298.9,350.4,302.0
1007.7,59,26.1,22.6,81,17.38,43,5.5,298.6,349.4,301.7
1007.2,63,25.7,22.3,82,17.10,44,5.9,298.3,348.2,301.3
1006.7,68,25.8,22.4,82,17.15,45,6.2,298.3,348.4,301.4
1006.1,73,25.7,22.3,81,17.05,45,6.5,298.3,348.1,301.4
1005.6,77,25.5,22.1,82,16.93,46,6.8,298.2,347.6,301.2
1005.0,82,25.3,22.1,82,16.89,47,7.1,298.0,347.3,301.0
1004.5,87,25.1,22.1,83,16.88,47,7.4,297.9,347.1,300.9
1003.9,92,25.0,22.0,83,16.86,48,7.6,297.8,346.9,300.9
1003.3,97,25.0,22.0,84,16.84,49,7.8,297.8,346.9,300.8
1002.7,102,24.9,22.0,84,16.83,49,8.1,297.9,346.9,300.9
1002.1,108,24.9,22.0,84,16.82,50,8.3,297.9,346.8,300.9
1001.5,113,24.8,22.0,84,16.83,50,8.4,297.9,346.9,300.9
1000.9,119,24.8,22.0,84,16.82,50,8.6,297.9,346.8,300.9
1000.3,124,24.7,21.9,84,16.80,51,8.8,297.9,346.8,300.9
1000.0,126,24.7,21.9,85,16.82,51,8.9,297.9,346.9,300.9
999.7,129,24.7,21.9,85,16.83,51,8.9,297.9,346.9,300.9
999.1,135,24.6,21.9,85,16.84,51,9.0,297.9,346.9,300.9
998.5,140,24.6,21.9,85,16.80,51,9.1,297.9,346.8,300.9
997.9,145,24.5,21.8,85,16.70,51,9.2,297.9,346.5,300.8
997.3,150,24.5,21.7,84,16.56,52,9.3,297.9,346.1,300.8
996.8,155,24.5,21.7,84,16.58,52,9.3,297.9,346.2,300.8
996.2,160,24.4,21.8,85,16.69,51,9.4,297.9,346.5,300.9
995.7,165,24.4,21.7,85,16.65,51,9.4,297.9,346.4,300.9
995.1,169,24.4,21.5,84,16.45,51,9.5,297.9,345.9,300.9
994.6,174,24.4,21.3,83,16.27,51,9.5,298.0,345.4,300.9
994.0,179,24.4,21.3,83,16.24,51,9.5,298.0,345.4,300.9
993.5,184,24.4,21.4,83,16.32,50,9.5,298.1,345.6,301.0
993.0,188,24.3,21.5,84,16.45,50,9.5,298.0,346.0,301.0
992.4,193,24.2,21.5,85,16.53,49,9.5,298.0,346.2,300.9
991.8,198,24.1,21.5,85,16.54,49,9.5,298.0,346.2,300.9
991.2,204,24.1,21.5,85,16.49,48,9.5,298.0,346.1,300.9
990.6,209,24.1,21.4,85,16.41,47,9.5,298.0,345.8,300.9
990.0,215,24.0,21.3,85,16.29,47,9.5,298.0,345.5,300.9
989.4,220,24.0,21.2,84,16.20,46,9.5,298.0,345.2,300.9
988.8,226,23.9,21.2,85,16.22,45,9.4,298.0,345.3,300.9
988.2,231,23.9,21.3,85,16.33,44,9.4,298.0,345.7,301.0
987.6,236,23.8,21.4,86,16.46,44,9.4,298.0,346.0,301.0
987.0,242,23.8,21.4,87,16.46,43,9.3,298.0,346.0,300.9
986.4,247,23.7,21.4,87,16.46,42,9.3,298.0,346.0,301.0
985.8,252,23.7,21.4,87,16.49,41,9.2,298.0,346.1,301.0
985.3,257,23.6,21.4,88,16.50,40,9.2,298.0,346.1,300.9
984.7,262,23.5,21.3,87,16.44,39,9.1,298.0,345.9,300.9
984.2,266,23.5,21.2,87,16.28,38,9.1,298.0,345.4,300.9
983.7,271,23.6,20.9,85,16.05,37,9.0,298.1,344.9,301.0
983.1,276,23.6,20.8,84,15.92,36,9.0,298.2,344.6,301.0
982.6,280,23.6,20.7,84,15.88,35,8.9,298.3,344.6,301.1
982.1,285,23.6,20.7,84,15.87,34,8.8,298.3,344.6,301.1
981.5,290,23.6,20.7,84,15.87,33,8.8,298.3,344.6,301.2
981.0,295,23.6,20.7,84,15.88,32,8.7,298.4,344.7,301.2
980.5,300,23.6,20.7,84,15.91,31,8.6,298.4,344.8,301.2
979.9,305,23.5,20.8,85,15.95,30,8.6,298.4,345.0,301.2
979.4,310,23.5,20.7,84,15.92,29,8.5,298.4,344.9,301.3
978.8,314,23.5,20.6,84,15.84,28,8.5,298.5,344.7,301.3
978.3,319,23.5,20.6,84,15.77,27,8.4,298.5,344.6,301.3
977.7,324,23.5,20.5,83,15.73,26,8.3,298.5,344.5,301.3
977.2,329,23.5,20.5,83,15.70,25,8.3,298.6,344.4,301.4
976.7,334,23.4,20.4,83,15.66,25,8.2,298.6,344.3,301.4
976.1,339,23.4,20.4,83,15.62,24,8.2,298.6,344.3,301.4
975.6,344,23.4,20.3,83,15.55,23,8.1,298.7,344.1,301.4
975.0,349,23.4,20.2,82,15.48,22,8.1,298.7,344.0,301.5
974.5,353,23.4,20.1,82,15.42,21,8.0,298.8,343.9,301.5
973.9,358,23.5,20.2,82,15.46,20,8.0,298.8,344.1,301.6
973.4,363,23.5,20.2,82,15.51,20,8.0,298.9,344.3,301.7
972.8,368,23.4,20.2,82,15.48,19,7.9,298.9,344.2,301.7
972.3,373,23.4,20.0,81,15.35,18,7.9,299.0,343.9,301.7
971.7,378,23.4,19.9,81,15.22,17,7.9,299.0,343.6,301.7
971.2,383,23.4,19.8,80,15.12,17,7.8,299.1,343.4,301.8
970.6,388,23.4,19.7,80,15.07,16,7.8,299.1,343.3,301.8
970.1,393,23.4,19.7,80,15.04,15,7.8,299.1,343.2,301.8
969.5,398,23.4,19.7,80,15.03,15,7.8,299.2,343.2,301.8
969.0,403,23.3,19.6,80,15.02,14,7.8,299.1,343.2,301.8
968.4,408,23.3,19.6,80,14.99,14,7.8,299.2,343.1,301.8
967.8,413,23.3,19.6,80,14.96,13,7.8,299.2,343.0,301.9
967.3,418,23.2,19.5,80,14.93,13,7.8,299.2,342.9,301.9
966.8,423,23.2,19.5,80,14.91,12,7.8,299.2,342.9,301.9
966.2,428,23.2,19.5,80,14.91,12,7.8,299.3,343.0,301.9
965.7,432,23.2,19.4,79,14.87,12,7.8,299.3,342.9,302.0
965.2,437,23.2,19.4,79,14.81,11,7.8,299.3,342.7,302.0
964.7,442,23.1,19.3,79,14.75,11,7.8,299.3,342.6,302.0
964.2,446,23.1,19.2,79,14.72,11,7.8,299.3,342.5,302.0
963.7,451,23.0,19.3,79,14.74,11,7.8,299.3,342.5,302.0
963.2,455,23.0,19.3,80,14.81,10,7.8,299.3,342.8,302.0
962.7,460,22.9,19.4,81,14.91,10,7.8,299.3,343.0,302.0
962.1,465,22.9,19.5,81,14.96,10,7.8,299.3,343.2,302.0
961.6,470,22.9,19.5,81,14.96,10,7.8,299.3,343.2,302.0
961.0,475,22.8,19.4,81,14.96,10,7.7,299.3,343.2,302.0
960.4,481,22.8,19.5,82,14.99,10,7.7,299.4,343.3,302.0
959.9,486,22.7,19.5,82,15.02,10,7.7,299.4,343.4,302.1
959.3,491,22.7,19.5,82,15.06,10,7.7,299.4,343.5,302.1
958.7,496,22.7,19.6,83,15.13,10,7.7,299.4,343.8,302.1
958.2,501,22.6,19.6,83,15.16,10,7.6,299.4,343.8,302.1
957.7,506,22.6,19.6,83,15.16,10,7.6,299.4,343.8,302.1
957.1,511,22.5,19.6,83,15.16,10,7.6,299.4,343.8,302.1
956.6,515,22.5,19.6,84,15.14,10,7.5,299.4,343.8,302.1
956.1,520,22.4,19.6,84,15.14,10,7.5,299.4,343.8,302.1
955.6,524,22.4,19.5,84,15.09,10,7.5,299.4,343.7,302.1
955.1,529,22.4,19.4,83,15.05,10,7.5,299.4,343.6,302.1
954.6,533,22.4,19.4,83,15.01,10,7.4,299.5,343.5,302.2
954.1,538,22.3,19.4,83,14.98,10,7.4,299.5,343.4,302.2
953.7,542,22.3,19.3,83,14.97,10,7.4,299.5,343.4,302.2
953.2,547,22.3,19.3,83,14.96,10,7.4,299.5,343.4,302.2
952.7,551,22.3,19.3,83,14.97,10,7.4,299.5,343.4,302.2
952.2,556,22.2,19.3,83,14.96,10,7.4,299.5,343.4,302.2
951.7,560,22.2,19.2,83,14.89,10,7.4,299.6,343.3,302.2
951.2,565,22.2,19.1,83,14.81,10,7.4,299.6,343.1,302.3
950.7,570,22.2,19.1,82,14.76,10,7.4,299.7,343.0,302.3
950.1,574,22.3,19.1,82,14.77,10,7.4,299.8,343.1,302.4
949.6,579,22.2,19.1,82,14.80,10,7.4,299.8,343.3,302.4
949.1,584,22.2,19.1,82,14.79,10,7.4,299.8,343.3,302.5
948.6,588,22.2,19.0,82,14.78,10,7.4,299.8,343.2,302.5
948.1,593,22.2,19.0,82,14.78,10,7.4,299.8,343.2,302.5
947.7,597,22.1,19.0,82,14.76,10,7.4,299.8,343.2,302.5
947.3,601,22.1,19.0,83,14.75,10,7.4,299.8,343.2,302.5
946.8,605,22.1,19.0,83,14.75,10,7.5,299.8,343.2,302.5
946.4,609,22.0,19.0,83,14.73,10,7.5,299.9,343.1,302.5
945.9,613,22.0,18.9,83,14.71,10,7.5,299.9,343.1,302.5
945.5,617,22.0,18.9,82,14.68,10,7.5,299.9,343.1,302.6
945.0,622,22.0,18.8,82,14.63,10,7.5,299.9,343.0,302.6
944.4,627,22.0,18.8,82,14.58,10,7.5,300.0,342.8,302.6
943.9,632,21.9,18.7,82,14.54,10,7.4,300.0,342.7,302.6
943.3,637,21.9,18.6,82,14.48,10,7.4,300.0,342.6,302.6
942.8,642,21.8,18.6,82,14.44,9,7.4,300.0,342.4,302.6
942.2,647,21.8,18.5,82,14.39,9,7.4,300.0,342.3,302.6
941.7,652,21.8,18.4,81,14.28,9,7.3,300.0,342.0,302.6
941.2,657,21.8,18.3,80,14.17,8,7.3,300.1,341.8,302.6
940.7,662,21.8,18.2,80,14.11,8,7.3,300.1,341.6,302.7
940.2,666,21.8,18.2,80,14.09,8,7.3,300.2,341.6,302.7
939.7,671,21.7,18.1,80,14.08,7,7.2,300.2,341.6,302.7
939.2,675,21.7,18.1,80,14.06,7,7.2,300.2,341.6,302.7
938.7,680,21.7,18.1,80,14.05,7,7.2,300.2,341.6,302.8
938.3,684,21.7,18.1,80,14.08,6,7.1,300.2,341.7,302.8
937.8,688,21.6,18.1,81,14.11,6,7.1,300.2,341.8,302.8
937.3,693,21.6,18.2,81,14.14,5,7.1,300.2,341.8,302.8
936.8,697,21.5,18.2,81,14.16,5,7.1,300.2,341.9,302.8
936.4,702,21.5,18.2,81,14.15,5,7.1,300.2,341.9,302.8
935.9,706,21.4,18.1,81,14.10,4,7.1,300.2,341.7,302.8
935.4,710,21.4,18.0,81,14.02,4,7.1,300.3,341.6,302.8
934.9,715,21.4,17.9,80,13.93,3,7.1,300.3,341.3,302.8
934.5,719,21.4,17.8,80,13.89,3,7.1,300.3,341.2,302.8
934.0,724,21.4,17.9,80,13.91,3,7.1,300.3,341.3,302.8
933.5,729,21.3,17.9,81,13.94,3,7.1,300.3,341.4,302.8
933.0,733,21.3,17.9,81,13.95,2,7.1,300.3,341.4,302.8
932.5,738,21.2,17.9,81,13.93,2,7.1,300.3,341.3,302.8
932.0,743,21.2,17.9,81,13.96,2,7.1,300.3,341.4,302.8
931.4,747,21.1,17.9,82,14.00,1,7.1,300.3,341.6,302.8
930.9,752,21.1,17.9,82,14.02,1,7.1,300.3,341.6,302.8
930.4,757,21.0,17.9,82,14.00,1,7.1,300.3,341.5,302.8
929.9,762,21.0,17.8,82,13.93,360,7.1,300.3,341.3,302.8
929.3,767,21.0,17.6,81,13.79,360,7.1,300.3,341.0,302.8
928.8,772,21.0,17.4,80,13.55,360,7.0,300.4,340.3,302.8
928.3,777,21.0,17.1,78,13.34,359,7.0,300.5,339.8,302.9
927.8,781,21.0,16.9,77,13.17,359,6.9,300.5,339.4,302.9
927.3,786,21.0,16.8,77,13.11,358,6.8,300.6,339.3,303.0
926.8,790,21.0,16.9,77,13.18,358,6.8,300.6,339.5,303.0
926.3,795,21.0,17.0,78,13.29,357,6.7,300.6,339.9,303.0
925.8,800,20.9,17.1,79,13.36,357,6.6,300.6,340.0,303.0
925.3,804,20.9,17.1,79,13.40,356,6.5,300.6,340.1,303.0
925.0,808,20.8,17.1,79,13.39,356,6.5,300.6,340.1,303.0
924.9,809,20.8,17.1,79,13.39,355,6.4,300.6,340.1,303.0
924.4,814,20.8,17.1,79,13.36,355,6.2,300.6,340.0,303.0
923.9,818,20.7,17.0,79,13.29,354,6.1,300.6,339.8,303.0
923.4,822,20.7,16.9,79,13.20,353,6.0,300.6,339.6,303.0
923.0,827,20.7,16.8,78,13.13,352,5.9,300.6,339.4,303.0
922.5,831,20.7,16.7,78,13.07,352,5.8,300.7,339.3,303.0
922.1,835,20.7,16.6,77,12.99,351,5.6,300.7,339.1,303.1
921.6,840,20.7,16.5,77,12.89,350,5.5,300.8,338.8,303.1
921.1,844,20.7,16.3,76,12.77,349,5.4,300.8,338.6,303.1
920.7,849,20.7,16.2,75,12.67,349,5.3,300.9,338.3,303.2
920.2,853,20.8,16.1,75,12.60,348,5.2,301.0,338.3,303.3
919.7,858,20.8,16.1,74,12.58,347,5.1,301.0,338.3,303.3
919.2,862,20.8,16.1,75,12.64,347,5.1,301.1,338.5,303.3
918.7,867,20.7,16.2,75,12.71,346,5.0,301.1,338.7,303.4
918.3,871,20.7,16.3,76,12.76,346,4.9,301.1,338.9,303.4
917.8,876,20.7,16.4,76,12.89,346,4.9,301.2,339.3,303.5
917.3,880,20.7,16.7,78,13.11,345,4.8,301.2,340.0,303.5
916.9,884,20.7,16.9,79,13.31,345,4.8,301.2,340.6,303.6
916.4,889,20.6,17.0,79,13.39,345,4.8,301.2,340.8,303.6
915.9,894,20.6,16.9,79,13.37,345,4.8,301.2,340.8,303.7
915.4,898,20.6,16.9,79,13.35,345,4.7,301.3,340.8,303.7
914.9,903,20.6,16.9,79,13.35,345,4.7,301.3,340.8,303.7
914.4,908,20.5,16.9,80,13.36,344,4.7,301.3,340.8,303.7
913.9,913,20.4,16.9,80,13.36,344,4.7,301.2,340.8,303.7
913.4,918,20.4,16.9,80,13.35,344,4.8,301.2,340.7,303.7
912.8,923,20.4,16.8,80,13.31,344,4.8,301.3,340.7,303.7
912.3,928,20.4,16.7,80,13.25,344,4.8,301.3,340.5,303.7
911.8,933,20.3,16.7,79,13.19,344,4.8,301.3,340.4,303.7
911.2,938,20.3,16.6,79,13.16,343,4.8,301.3,340.3,303.7
910.7,943,20.2,16.6,80,13.16,343,4.8,301.3,340.3,303.7
910.2,948,20.2,16.6,80,13.17,342,4.8,301.3,340.3,303.7
909.7,953,20.1,16.7,80,13.22,342,4.8,301.3,340.4,303.7
909.1,958,20.1,16.7,81,13.25,341,4.8,301.3,340.5,303.7
908.6,963,20.0,16.7,81,13.25,340,4.8,301.3,340.5,303.7
908.1,968,20.0,16.6,81,13.21,340,4.8,301.3,340.4,303.7
907.6,973,19.9,16.6,81,13.20,339,4.8,301.3,340.4,303.7
907.0,978,19.9,16.6,81,13.21,338,4.8,301.3,340.5,303.7
906.5,983,19.9,16.6,81,13.21,337,4.8,301.4,340.5,303.7
905.9,989,19.8,16.6,82,13.23,335,4.8,301.4,340.5,303.8
905.3,994,19.8,16.6,82,13.25,334,4.8,301.4,340.6,303.8
904.6,1000,19.7,16.6,82,13.27,333,4.8,301.4,340.7,303.8
904.0,1007,19.7,16.6,83,13.26,331,4.9,301.4,340.6,303.8
903.3,1013,19.6,16.5,82,13.22,330,4.9,301.4,340.5,303.8
902.7,1019,19.6,16.4,82,13.14,329,4.9,301.4,340.3,303.8
902.0,1025,19.5,16.3,82,13.06,327,5.0,301.4,340.1,303.8
901.4,1031,19.5,16.2,81,12.98,326,5.0,301.4,339.9,303.8
900.8,1037,19.5,16.1,81,12.92,325,5.1,301.5,339.8,303.8
900.2,1043,19.5,16.1,81,12.88,323,5.2,301.5,339.7,303.9
899.7,1048,19.4,16.0,81,12.83,322,5.2,301.6,339.6,303.9
899.1,1053,19.4,15.9,80,12.77,321,5.3,301.6,339.5,303.9
898.6,1058,19.4,15.9,80,12.72,320,5.4,301.6,339.4,303.9
898.1,1064,19.4,15.8,80,12.68,319,5.5,301.7,339.3,303.9
897.5,1068,19.3,15.8,80,12.67,319,5.5,301.7,339.2,304.0
897.0,1073,19.3,15.8,80,12.65,318,5.6,301.7,339.2,303.9
896.6,1078,19.3,15.6,80,12.56,318,5.7,301.7,338.9,303.9
896.1,1082,19.2,15.6,79,12.52,318,5.8,301.7,338.8,303.9
895.6,1087,19.2,15.6,80,12.57,317,5.8,301.7,339.0,304.0
895.2,1091,19.2,15.7,80,12.61,317,5.9,301.7,339.1,304.0
894.7,1095,19.1,15.7,80,12.63,318,5.9,301.7,339.2,304.0
894.3,1100,19.1,15.6,80,12.60,318,6.0,301.7,339.1,304.0
893.8,1104,19.1,15.5,80,12.51,318,6.0,301.7,338.9,304.0
893.4,1109,19.1,15.3,79,12.34,319,6.0,301.8,338.4,304.0
892.9,1113,19.1,15.0,77,12.12,320,6.0,301.8,337.8,304.0
892.5,1118,19.1,14.9,76,11.99,321,6.0,301.9,337.5,304.1
892.0,1122,19.1,14.8,76,11.94,322,5.9,302.0,337.5,304.1
891.5,1127,19.1,14.7,76,11.88,323,5.9,302.0,337.4,304.2
890.9,1132,19.1,14.6,75,11.79,324,5.8,302.1,337.2,304.2
890.4,1137,19.1,14.4,74,11.70,326,5.8,302.1,336.9,304.3
889.9,1143,19.1,14.3,74,11.62,327,5.7,302.2,336.8,304.3
889.3,1148,19.1,14.3,73,11.58,329,5.6,302.2,336.7,304.3
888.8,1153,19.1,14.2,73,11.56,331,5.5,302.3,336.7,304.4
888.2,1158,19.1,14.2,73,11.51,333,5.5,302.3,336.6,304.4
887.7,1163,19.1,14.1,73,11.43,335,5.4,302.4,336.4,304.4
887.2,1168,19.1,14.0,72,11.38,337,5.3,302.4,336.3,304.4
886.7,1173,19.0,14.0,72,11.39,340,5.2,302.4,336.4,304.5
886.2,1178,19.0,14.1,73,11.48,342,5.2,302.4,336.6,304.5
885.8,1182,19.0,14.3,74,11.66,345,5.1,302.4,337.2,304.6
885.3,1186,19.0,14.6,75,11.85,347,5.1,302.5,337.8,304.7
884.9,1191,19.0,14.6,75,11.89,349,5.1,302.6,338.0,304.7
884.5,1195,19.1,14.5,75,11.81,352,5.1,302.6,337.9,304.8
884.1,1199,19.2,14.4,74,11.73,354,5.0,302.8,337.8,304.9
883.6,1203,19.3,14.3,73,11.70,356,5.1,303.0,337.9,305.1
883.2,1207,19.3,14.4,73,11.72,358,5.1,303.0,338.0,305.1
882.7,1212,19.3,14.4,73,11.75,359,5.1,303.0,338.1,305.2
882.2,1217,19.2,14.4,73,11.74,1,5.1,303.0,338.1,305.2
881.7,1222,19.2,14.3,73,11.67,2,5.1,303.0,337.9,305.2
881.2,1227,19.1,14.1,73,11.59,3,5.2,303.0,337.7,305.1
880.7,1232,19.1,14.1,73,11.55,4,5.2,303.0,337.6,305.1
880.2,1237,19.1,14.0,72,11.47,5,5.2,303.1,337.4,305.2
879.7,1242,19.1,13.8,71,11.34,6,5.3,303.1,337.0,305.2
879.2,1247,19.0,13.8,72,11.35,6,5.3,303.1,337.1,305.2
878.7,1251,19.0,14.0,73,11.50,6,5.3,303.2,337.5,305.3
878.2,1256,19.0,14.2,74,11.64,7,5.4,303.2,338.0,305.3
877.7,1261,18.9,14.3,74,11.74,7,5.4,303.2,338.3,305.3
877.2,1266,18.9,14.4,75,11.81,6,5.4,303.2,338.5,305.3
876.7,1271,18.8,14.2,75,11.73,6,5.5,303.2,338.2,305.3
876.3,1275,18.8,14.2,75,11.72,6,5.5,303.2,338.2,305.3
875.8,1280,18.7,14.4,76,11.84,6,5.5,303.2,338.5,305.3
875.3,1284,18.7,14.5,77,11.93,5,5.5,303.1,338.8,305.3
874.9,1289,18.6,14.4,76,11.88,5,5.5,303.1,338.6,305.3
874.4,1293,18.6,14.2,76,11.73,4,5.5,303.1,338.2,305.3
874.0,1298,18.6,13.9,74,11.53,4,5.5,303.2,337.6,305.3
873.5,1302,18.5,13.9,74,11.49,3,5.5,303.2,337.6,305.3
873.1,1306,18.5,14.0,75,11.60,3,5.5,303.2,337.8,305.3
872.6,1311,18.4,14.1,76,11.68,2,5.5,303.2,338.1,305.3
872.2,1315,18.4,14.2,76,11.72,1,5.5,303.2,338.2,305.3
871.8,1319,18.4,14.2,77,11.76,1,5.5,303.2,338.3,305.3
871.3,1324,18.3,14.3,77,11.81,360,5.5,303.2,338.4,305.3
870.9,1328,18.3,14.3,78,11.83,359,5.5,303.1,338.5,305.3
870.5,1332,18.2,14.3,78,11.85,358,5.5,303.1,338.6,305.3
870.0,1337,18.2,14.3,78,11.86,358,5.5,303.2,338.6,305.3
869.6,1341,18.2,14.3,78,11.86,357,5.5,303.2,338.6,305.3
869.1,1346,18.1,14.3,78,11.84,356,5.5,303.2,338.6,305.3
868.7,1350,18.1,14.2,78,11.83,355,5.5,303.2,338.5,305.3
868.2,1355,18.0,14.2,78,11.81,354,5.5,303.2,338.5,305.3
867.7,1359,18.0,14.1,78,11.75,354,5.5,303.2,338.3,305.3
867.3,1364,18.0,13.9,77,11.61,353,5.5,303.2,337.9,305.3
866.8,1369,18.0,13.7,76,11.44,352,5.4,303.3,337.5,305.4
866.3,1373,18.0,13.7,76,11.43,351,5.4,303.4,337.6,305.4
865.9,1377,18.0,13.7,76,11.44,351,5.4,303.4,337.6,305.5
865.5,1382,18.0,13.7,76,11.46,350,5.4,303.4,337.7,305.5
865.0,1386,18.0,13.7,76,11.48,349,5.4,303.4,337.8,305.5
864.6,1390,17.9,13.7,76,11.50,349,5.4,303.4,337.8,305.5
864.2,1394,17.9,13.8,77,11.59,348,5.4,303.4,338.1,305.6
863.8,1398,17.9,14.1,78,11.77,348,5.3,303.5,338.7,305.6
863.4,1403,17.8,14.3,80,11.92,347,5.3,303.5,339.1,305.6
862.9,1407,17.8,14.3,80,11.98,347,5.3,303.5,339.3,305.7
862.5,1411,17.8,14.3,80,11.97,346,5.3,303.5,339.3,305.7
862.0,1416,17.7,14.3,80,11.96,346,5.2,303.5,339.3,305.7
861.5,1421,17.7,14.3,81,11.99,346,5.2,303.5,339.4,305.7
861.0,1426,17.7,14.4,81,12.06,346,5.2,303.5,339.6,305.7
860.5,1431,17.6,14.4,82,12.11,345,5.2,303.5,339.8,305.7
860.0,1436,17.7,14.3,81,12.01,345,5.1,303.6,339.6,305.8
859.4,1442,17.7,13.9,78,11.73,345,5.1,303.7,338.9,305.9
858.9,1447,17.8,13.6,76,11.48,346,5.1,303.9,338.3,306.0
858.4,1452,17.9,13.4,75,11.36,346,5.0,304.0,338.1,306.1
857.9,1457,17.9,13.3,75,11.30,346,5.0,304.0,337.9,306.1
857.5,1461,17.9,13.3,75,11.26,346,5.0,304.1,337.9,306.1
857.0,1466,17.8,13.3,75,11.31,347,4.9,304.1,338.0,306.2
856.6,1470,17.8,13.5,76,11.40,347,4.9,304.1,338.3,306.2
856.2,1474,17.8,13.5,76,11.46,348,4.9,304.1,338.5,306.2
855.7,1479,17.8,13.5,76,11.45,349,4.8,304.2,338.6,306.3
855.3,1483,17.7,13.5,76,11.41,349,4.8,304.2,338.5,306.3
854.8,1488,17.7,13.4,76,11.38,350,4.8,304.2,338.4,306.3
854.4,1493,17.7,13.4,76,11.36,351,4.7,304.2,338.3,306.3
853.9,1497,17.6,13.4,76,11.37,352,4.7,304.2,338.3,306.3
853.4,1502,17.6,13.4,76,11.39,353,4.7,304.2,338.4,306.3
853.0,1506,17.5,13.4,77,11.42,354,4.6,304.2,338.5,306.3
852.5,1511,17.5,13.5,77,11.46,355,4.6,304.2,338.6,306.3
852.1,1516,17.5,13.5,78,11.51,356,4.6,304.2,338.8,306.3
851.6,1520,17.5,13.6,78,11.60,358,4.5,304.2,339.1,306.4
851.1,1525,17.5,13.6,78,11.55,359,4.5,304.3,339.0,306.4
850.6,1530,17.5,13.3,77,11.39,360,4.4,304.4,338.6,306.4
850.1,1535,17.4,13.1,76,11.21,1,4.4,304.4,338.1,306.4
850.0,1536,17.4,13.0,75,11.15,2,4.3,304.4,337.9,306.4
849.6,1540,17.5,12.8,74,10.97,2,4.3,304.5,337.5,306.5
849.1,1545,17.5,12.3,72,10.68,3,4.3,304.6,336.7,306.5
848.6,1551,17.5,12.1,71,10.52,4,4.2,304.6,336.4,306.6
848.1,1556,17.5,12.1,70,10.49,5,4.2,304.7,336.3,306.6
847.5,1561,17.5,11.9,70,10.40,6,4.1,304.7,336.1,306.6
847.0,1567,17.5,11.7,69,10.26,6,4.0,304.8,335.7,306.7
846.5,1572,17.6,11.6,68,10.19,7,4.0,304.9,335.7,306.7
845.9,1578,17.6,11.7,68,10.24,8,3.9,305.0,335.9,306.8
845.4,1583,17.6,11.7,69,10.30,8,3.8,305.0,336.1,306.9
844.9,1588,17.6,11.7,68,10.28,8,3.7,305.1,336.1,306.9
844.4,1593,17.5,11.6,68,10.25,9,3.7,305.1,336.0,307.0
843.9,1598,17.5,11.7,69,10.26,9,3.6,305.1,336.1,307.0
843.4,1604,17.5,11.8,69,10.38,9,3.5,305.1,336.5,307.0
842.8,1609,17.4,12.2,71,10.64,9,3.4,305.1,337.2,307.1
842.3,1614,17.4,12.5,73,10.85,9,3.4,305.1,337.8,307.1
841.8,1620,17.3,12.5,73,10.87,9,3.3,305.1,337.9,307.1
841.2,1626,17.3,12.4,73,10.79,8,3.2,305.1,337.7,307.1
840.6,1631,17.2,12.2,72,10.71,8,3.2,305.1,337.5,307.1
840.1,1637,17.2,12.2,72,10.68,8,3.1,305.1,337.4,307.1
839.5,1643,17.1,12.2,73,10.71,7,3.0,305.2,337.5,307.1
838.9,1649,17.1,12.3,73,10.75,7,3.0,305.2,337.6,307.1
838.3,1655,17.0,12.3,74,10.75,6,2.9,305.1,337.6,307.1
837.8,1660,16.9,12.2,74,10.72,6,2.8,305.1,337.5,307.1
837.2,1666,16.9,12.2,74,10.70,5,2.8,305.1,337.4,307.1
836.7,1671,16.9,12.1,74,10.67,5,2.7,305.2,337.4,307.1
836.3,1676,16.8,12.2,74,10.71,4,2.7,305.1,337.5,307.1
835.8,1680,16.8,12.4,75,10.87,4,2.6,305.2,338.0,307.1
835.4,1685,16.7,12.8,78,11.20,4,2.5,305.1,338.9,307.2
834.9,1689,16.7,13.2,80,11.52,3,2.5,305.1,339.9,307.3
834.5,1694,16.6,13.5,82,11.72,3,2.4,305.1,340.4,307.3
834.0,1699,16.6,13.5,82,11.76,3,2.3,305.1,340.6,307.3
833.5,1704,16.6,13.4,81,11.65,3,2.2,305.2,340.3,307.3
833.1,1709,16.6,13.1,80,11.46,3,2.1,305.2,339.8,307.3
832.6,1714,16.6,12.9,79,11.29,4,2.1,305.3,339.4,307.4
832.1,1719,16.6,12.7,78,11.17,4,2.0,305.4,339.1,307.5
831.6,1724,16.7,12.6,77,11.08,5,1.9,305.5,338.9,307.5
831.1,1729,16.7,12.4,76,10.98,6,1.8,305.6,338.7,307.6
830.6,1733,16.7,12.3,75,10.90,7,1.7,305.6,338.6,307.6
830.2,1738,16.7,12.2,75,10.82,8,1.7,305.7,338.4,307.6
829.7,1743,16.7,12.1,74,10.75,10,1.6,305.7,338.2,307.7
829.2,1748,16.7,12.0,74,10.66,12,1.5,305.7,338.0,307.7
828.8,1753,16.7,11.7,73,10.48,15,1.5,305.8,337.5,307.7
828.3,1758,16.7,11.3,71,10.21,17,1.4,305.8,336.8,307.7
827.7,1763,16.7,10.8,68,9.90,20,1.4,305.9,336.0,307.7
827.2,1769,16.7,10.4,66,9.61,23,1.3,306.0,335.2,307.8
826.7,1774,16.7,10.1,65,9.44,26,1.3,306.1,334.8,307.8
826.2,1780,16.7,10.1,65,9.43,29,1.3,306.1,334.8,307.8
