PRES,HGHT,TEMP,DWPT,RELH,MIXR,DRCT,SPED,THTA,THTE,THTV
1013.7,31,28.6,20.6,62,15.28,71,6.7,300.6,345.7,303.3
1012.5,41,27.3,20.9,68,15.56,61,4.7,299.4,345.0,302.2
1011.9,46,26.6,20.8,70,15.47,57,4.4,298.8,344.0,301.5
1011.3,51,26.3,20.7,71,15.37,56,4.6,298.5,343.4,301.2
1010.8,56,26.3,20.5,71,15.23,56,4.9,298.5,343.0,301.2
1010.3,60,26.4,20.4,70,15.14,57,5.2,298.7,343.0,301.4
1009.6,66,26.4,20.3,69,15.02,57,5.5,298.7,342.7,301.4
1008.9,72,26.1,20.1,69,14.80,57,5.7,298.5,341.7,301.1
1008.2,78,25.8,19.9,70,14.69,58,6.0,298.2,341.1,300.9
1007.5,85,25.7,20.0,71,14.73,58,6.2,298.2,341.2,300.9
1006.8,91,25.7,20.0,71,14.80,58,6.4,298.3,341.5,300.9
1006.0,98,25.7,20.0,71,14.81,58,6.6,298.3,341.5,300.9
1005.2,105,25.6,20.0,71,14.79,58,6.8,298.3,341.4,300.9
1004.4,112,25.5,20.0,72,14.80,58,7.0,298.2,341.4,300.9
1003.6,119,25.4,20.0,72,14.79,58,7.2,298.2,341.4,300.9
1002.7,127,25.3,19.9,72,14.79,58,7.3,298.2,341.4,300.9
1001.9,134,25.2,19.9,73,14.79,58,7.4,298.2,341.3,300.8
1001.1,141,25.1,19.9,73,14.79,58,7.6,298.1,341.3,300.8
1000.4,148,25.0,19.9,73,14.75,59,7.7,298.1,341.1,300.7
1000.0,151,24.9,19.9,73,14.74,59,7.8,298.1,341.1,300.7
999.6,154,24.9,19.8,74,14.72,59,7.8,298.0,341.0,300.7
998.9,160,24.7,19.7,74,14.62,59,7.9,298.0,340.6,300.6
998.3,166,24.6,19.5,73,14.43,59,8.0,297.9,340.0,300.5
997.6,172,24.5,19.4,73,14.32,59,8.0,297.9,339.7,300.5
997.0,177,24.5,19.3,73,14.31,59,8.1,297.9,339.6,300.4
996.4,183,24.4,19.3,73,14.30,60,8.2,297.9,339.6,300.4
995.8,188,24.4,19.3,73,14.30,60,8.2,297.9,339.5,300.4
995.1,194,24.3,19.3,74,14.34,60,8.3,297.9,339.7,300.4
994.5,199,24.3,19.4,74,14.40,61,8.3,297.9,339.8,300.4
993.9,205,24.2,19.4,75,14.42,61,8.4,297.9,339.9,300.4
993.2,210,24.1,19.4,75,14.43,61,8.4,297.9,339.9,300.4
992.6,216,24.1,19.4,75,14.46,62,8.5,297.9,340.0,300.5
992.0,221,24.1,19.5,76,14.51,62,8.5,297.9,340.2,300.5
991.4,227,24.0,19.4,76,14.49,63,8.5,297.9,340.1,300.5
990.8,232,23.9,19.4,76,14.44,63,8.6,297.9,340.0,300.5
990.1,238,23.9,19.4,76,14.44,64,8.6,297.9,340.0,300.5
989.5,243,23.8,19.4,76,14.44,64,8.6,297.9,340.0,300.5
988.9,249,23.8,19.4,76,14.45,64,8.6,297.9,340.0,300.4
988.2,255,23.7,19.4,77,14.46,65,8.7,297.9,340.0,300.5
987.6,260,23.7,19.4,77,14.46,65,8.7,297.9,340.0,300.5
987.0,266,23.6,19.3,77,14.44,66,8.7,297.9,340.0,300.5
986.3,272,23.6,19.2,77,14.37,66,8.7,297.9,339.8,300.5
985.7,277,23.5,19.2,76,14.33,66,8.7,297.9,339.7,300.5
985.0,283,23.5,19.2,77,14.36,67,8.7,297.9,339.8,300.5
984.4,289,23.4,19.2,77,14.41,67,8.7,297.9,339.9,300.5
983.8,294,23.4,19.3,78,14.44,67,8.7,297.9,340.0,300.5
983.1,300,23.4,19.3,78,14.45,68,8.7,298.0,340.1,300.5
982.5,305,23.3,19.2,78,14.44,68,8.7,298.0,340.1,300.6
981.9,311,23.3,19.2,78,14.41,68,8.7,298.0,340.0,300.6
981.3,316,23.2,19.2,78,14.43,68,8.7,298.0,340.0,300.5
980.7,322,23.2,19.2,79,14.44,68,8.7,298.0,340.0,300.5
980.1,327,23.1,19.2,79,14.44,69,8.7,297.9,340.0,300.5
979.4,333,23.0,19.2,79,14.42,69,8.7,297.9,340.0,300.5
978.8,338,23.0,19.1,79,14.39,69,8.6,298.0,339.9,300.5
978.2,344,22.9,19.1,79,14.35,69,8.6,298.0,339.8,300.5
977.6,349,22.9,19.0,79,14.28,69,8.6,297.9,339.6,300.5
977.0,355,22.8,18.9,79,14.25,69,8.6,297.9,339.5,300.5
976.4,360,22.8,19.0,79,14.28,69,8.6,297.9,339.6,300.5
975.8,365,22.7,19.0,80,14.35,69,8.6,297.9,339.7,300.5
975.2,371,22.7,19.1,80,14.42,69,8.6,297.9,340.0,300.5
974.6,376,22.6,19.1,81,14.47,69,8.6,297.9,340.1,300.5
974.0,381,22.6,19.1,81,14.47,70,8.6,297.9,340.1,300.5
973.4,387,22.5,19.1,81,14.46,70,8.6,297.9,340.1,300.5
972.8,392,22.5,19.1,81,14.45,70,8.6,297.9,340.1,300.5
972.2,398,22.4,19.0,81,14.40,70,8.6,297.9,339.9,300.5
971.6,403,22.3,18.9,81,14.31,70,8.6,297.9,339.6,300.5
971.0,409,22.3,18.8,81,14.20,70,8.6,297.9,339.3,300.5
970.3,414,22.2,18.7,80,14.13,70,8.6,297.9,339.1,300.5
969.7,420,22.2,18.7,81,14.13,70,8.6,297.9,339.1,300.5
969.0,426,22.1,18.7,81,14.15,70,8.6,297.9,339.2,300.5
968.4,432,22.1,18.7,81,14.14,70,8.7,297.9,339.2,300.5
967.7,438,22.0,18.7,81,14.14,70,8.7,298.0,339.2,300.5
967.1,444,22.0,18.7,81,14.14,70,8.7,298.0,339.2,300.5
966.4,450,21.9,18.6,82,14.13,70,8.7,298.0,339.2,300.5
965.8,456,21.9,18.7,82,14.15,71,8.7,298.0,339.2,300.5
965.1,461,21.8,18.7,83,14.23,71,8.7,298.0,339.5,300.5
964.5,467,21.8,18.8,83,14.32,71,8.8,298.0,339.7,300.5
963.8,473,21.7,18.8,84,14.32,71,8.8,298.0,339.7,300.5
963.2,479,21.6,18.7,84,14.26,71,8.8,298.0,339.5,300.5
962.5,485,21.6,18.7,83,14.21,71,8.8,298.0,339.4,300.5
961.9,490,21.5,18.6,83,14.16,71,8.8,298.0,339.3,300.5
961.3,496,21.5,18.5,83,14.09,71,8.9,298.0,339.1,300.5
960.7,501,21.4,18.5,83,14.10,71,8.9,298.0,339.1,300.5
960.2,506,21.4,18.7,85,14.29,71,9.0,298.0,339.6,300.5
959.6,512,21.4,18.9,86,14.49,71,9.0,298.0,340.2,300.6
959.0,517,21.3,18.9,86,14.52,71,9.1,298.0,340.3,300.6
958.4,522,21.3,18.8,86,14.41,71,9.1,298.0,340.0,300.6
957.8,528,21.2,18.6,85,14.23,71,9.2,298.0,339.5,300.5
957.2,533,21.1,18.5,85,14.13,71,9.2,298.0,339.2,300.5
956.5,539,21.1,18.5,85,14.15,71,9.3,298.0,339.2,300.5
955.9,545,21.0,18.6,86,14.22,71,9.3,298.0,339.4,300.5
955.3,550,20.9,18.6,86,14.25,72,9.4,297.9,339.5,300.5
954.7,556,20.9,18.6,87,14.25,72,9.5,297.9,339.5,300.5
954.1,561,20.8,18.6,87,14.24,72,9.5,297.9,339.4,300.5
953.5,567,20.7,18.5,87,14.24,72,9.6,297.9,339.4,300.4
952.9,572,20.7,18.5,87,14.25,72,9.7,297.9,339.4,300.5
952.4,577,20.7,18.5,88,14.25,72,9.8,297.9,339.5,300.5
951.8,582,20.6,18.5,88,14.26,72,9.8,297.9,339.5,300.5
951.3,587,20.6,18.5,88,14.22,72,9.9,297.9,339.4,300.5
950.8,592,20.5,18.4,87,14.11,72,10.0,297.9,339.0,300.5
950.2,596,20.5,18.2,87,14.00,73,10.0,297.9,338.8,300.4
949.7,601,20.4,18.2,87,13.98,73,10.1,298.0,338.7,300.4
949.2,606,20.4,18.3,88,14.04,73,10.2,297.9,338.9,300.5
948.7,611,20.4,18.3,88,14.13,73,10.2,297.9,339.1,300.5
948.2,615,20.3,18.4,89,14.20,73,10.3,297.9,339.3,300.5
947.6,620,20.2,18.5,90,14.26,73,10.3,297.9,339.5,300.5
947.1,625,20.2,18.5,90,14.30,73,10.4,297.9,339.6,300.5
946.6,630,20.1,18.5,90,14.27,73,10.4,297.9,339.5,300.5
946.1,634,20.1,18.4,90,14.19,73,10.4,297.9,339.2,300.4
945.6,639,20.1,18.3,89,14.11,73,10.5,297.9,339.1,300.4
945.1,643,20.0,18.2,89,14.08,73,10.5,297.9,339.0,300.5
944.7,647,20.0,18.2,89,14.08,73,10.5,298.0,339.0,300.5
944.3,651,20.0,18.2,90,14.07,73,10.5,298.0,339.0,300.5
943.9,655,20.0,18.2,90,14.06,73,10.5,298.0,339.0,300.5
943.4,659,19.9,18.2,90,14.05,73,10.5,298.0,338.9,300.5
943.0,663,19.9,18.2,90,14.06,72,10.4,298.0,339.0,300.5
942.5,667,19.8,18.2,90,14.09,72,10.4,298.0,339.0,300.5
942.0,672,19.8,18.2,91,14.12,72,10.4,298.0,339.1,300.5
941.5,677,19.7,18.2,91,14.14,72,10.3,298.0,339.2,300.5
940.9,682,19.7,18.2,91,14.12,72,10.3,298.0,339.1,300.5
940.3,687,19.6,18.2,91,14.11,72,10.2,298.0,339.1,300.5
939.8,692,19.6,18.2,92,14.11,72,10.2,297.9,339.1,300.5
939.2,698,19.5,18.1,92,14.08,71,10.1,297.9,339.0,300.4
938.6,703,19.4,18.1,92,14.07,71,10.1,297.9,339.0,300.4
938.0,708,19.4,18.1,92,14.10,71,10.0,297.9,339.0,300.5
937.5,713,19.3,18.1,93,14.12,71,9.9,297.9,339.1,300.5
936.9,718,19.3,18.1,93,14.11,71,9.9,297.9,339.1,300.5
936.4,723,19.3,18.1,93,14.07,71,9.8,297.9,339.0,300.5
935.9,728,19.2,18.0,93,14.02,71,9.7,297.9,338.8,300.5
935.3,733,19.2,18.0,93,13.99,70,9.6,298.0,338.7,300.5
934.8,738,19.1,17.9,93,13.94,70,9.6,298.0,338.6,300.5
934.3,743,19.1,17.8,92,13.88,70,9.5,298.0,338.4,300.5
933.7,748,19.1,17.8,92,13.87,70,9.4,298.0,338.4,300.5
933.2,753,19.0,17.9,93,13.95,70,9.4,298.0,338.7,300.5
932.7,757,19.0,17.9,94,14.00,70,9.3,298.0,338.8,300.5
932.2,762,18.9,17.9,94,13.97,70,9.3,298.0,338.7,300.5
931.7,767,18.9,17.8,93,13.90,70,9.2,298.0,338.5,300.5
931.2,771,18.9,17.7,93,13.85,70,9.1,298.0,338.4,300.5
930.7,776,18.8,17.7,93,13.81,69,9.1,298.0,338.3,300.5
930.2,781,18.8,17.7,93,13.79,69,9.0,298.0,338.2,300.5
929.6,786,18.7,17.7,94,13.83,69,9.0,298.0,338.4,300.5
929.0,791,18.7,17.7,94,13.84,69,9.0,298.0,338.4,300.5
928.5,797,18.7,17.5,93,13.68,69,8.9,298.1,338.0,300.5
927.9,802,18.6,17.0,90,13.29,69,8.9,298.1,336.9,300.5
927.2,808,18.6,16.5,87,12.83,69,8.9,298.2,335.6,300.5
926.6,814,18.7,16.1,85,12.54,69,8.8,298.3,334.9,300.5
926.0,820,18.7,15.8,83,12.31,69,8.8,298.4,334.4,300.6
925.3,826,18.7,15.5,81,12.06,69,8.8,298.4,333.7,300.6
925.0,829,18.7,15.4,81,11.97,69,8.8,298.5,333.5,300.6
924.7,832,18.7,15.3,80,11.89,69,8.8,298.5,333.3,300.6
924.1,838,18.7,15.2,80,11.80,69,8.8,298.5,333.1,300.6
923.4,844,18.7,15.1,80,11.78,69,8.8,298.6,333.1,300.7
922.8,849,18.7,15.1,80,11.80,68,8.7,298.6,333.2,300.7
922.2,855,18.6,15.1,80,11.82,68,8.7,298.6,333.2,300.7
921.6,861,18.6,15.1,80,11.79,68,8.7,298.6,333.1,300.7
921.0,866,18.5,15.0,80,11.76,68,8.7,298.6,333.1,300.7
920.5,871,18.5,15.0,80,11.75,68,8.7,298.6,333.1,300.7
919.9,876,18.4,15.1,81,11.79,68,8.7,298.6,333.2,300.7
919.4,881,18.4,15.1,81,11.81,68,8.7,298.6,333.2,300.7
918.8,886,18.3,15.1,81,11.81,68,8.7,298.6,333.2,300.7
918.3,891,18.3,15.1,81,11.80,68,8.7,298.6,333.2,300.7
917.8,896,18.2,15.0,82,11.78,68,8.7,298.6,333.1,300.7
917.2,902,18.2,15.0,82,11.77,68,8.7,298.6,333.1,300.7
916.7,907,18.1,15.0,82,11.77,68,8.7,298.6,333.1,300.7
916.1,912,18.1,15.0,82,11.76,68,8.7,298.6,333.1,300.7
915.5,918,18.1,15.0,82,11.76,68,8.7,298.6,333.1,300.7
914.9,923,18.0,15.0,82,11.77,68,8.7,298.6,333.1,300.8
914.3,929,17.9,15.0,83,11.77,68,8.7,298.6,333.1,300.8
913.7,934,17.9,14.9,83,11.76,68,8.6,298.6,333.1,300.7
913.1,940,17.8,14.9,83,11.74,68,8.6,298.6,333.0,300.7
912.5,945,17.8,14.8,83,11.70,68,8.6,298.6,333.0,300.7
912.0,951,17.7,14.8,83,11.69,68,8.6,298.6,332.9,300.7
911.4,956,17.7,14.8,83,11.70,69,8.6,298.7,333.0,300.8
910.9,961,17.7,14.9,84,11.76,69,8.5,298.7,333.1,300.8
910.3,966,17.6,15.0,84,11.84,69,8.5,298.7,333.4,300.8
909.8,971,17.6,15.1,85,11.92,69,8.5,298.7,333.7,300.9
909.3,976,17.6,15.1,86,11.99,69,8.5,298.7,333.9,300.9
908.7,981,17.5,15.2,86,12.07,69,8.5,298.8,334.1,300.9
908.2,987,17.5,15.3,87,12.14,69,8.5,298.7,334.3,300.9
907.6,992,17.4,15.3,87,12.15,68,8.5,298.7,334.3,300.9
907.1,997,17.4,15.3,88,12.14,68,8.5,298.7,334.3,300.9
906.6,1002,17.3,15.3,88,12.14,68,8.5,298.7,334.3,300.9
906.1,1007,17.3,15.3,88,12.13,68,8.5,298.7,334.3,300.9
905.5,1011,17.3,15.3,88,12.14,68,8.5,298.8,334.3,300.9
905.0,1016,17.2,15.3,88,12.16,68,8.6,298.8,334.4,300.9
904.5,1021,17.2,15.3,89,12.19,68,8.6,298.8,334.5,301.0
904.0,1026,17.1,15.4,89,12.23,68,8.7,298.8,334.6,301.0
903.4,1031,17.1,15.4,90,12.26,68,8.7,298.8,334.7,301.0
902.9,1037,17.0,15.4,90,12.25,67,8.8,298.8,334.7,301.0
902.3,1042,17.0,15.3,90,12.21,67,8.9,298.8,334.6,301.0
901.6,1048,16.9,15.2,90,12.17,67,8.9,298.8,334.5,301.0
901.0,1054,16.9,15.2,90,12.16,67,9.0,298.8,334.4,301.0
900.4,1060,16.8,15.2,90,12.15,67,9.1,298.8,334.4,301.0
899.7,1067,16.8,15.2,90,12.13,67,9.2,298.8,334.3,301.0
899.1,1073,16.7,15.1,90,12.07,67,9.3,298.8,334.2,301.0
898.5,1078,16.7,15.0,90,12.01,67,9.4,298.8,334.0,301.0
897.9,1084,16.6,14.9,90,11.96,67,9.4,298.8,333.9,301.0
897.3,1090,16.6,14.9,90,11.94,67,9.5,298.9,333.9,301.0
896.7,1095,16.6,14.9,90,11.93,67,9.6,298.9,333.9,301.0
896.1,1101,16.6,14.8,89,11.90,67,9.7,298.9,333.8,301.1
895.6,1106,16.5,14.7,89,11.86,67,9.8,298.9,333.7,301.1
895.0,1112,16.5,14.7,89,11.83,67,9.9,299.0,333.7,301.1
894.4,1117,16.5,14.7,89,11.81,67,9.9,299.0,333.6,301.1
893.9,1122,16.4,14.6,89,11.76,68,10.0,299.0,333.5,301.1
893.3,1128,16.4,14.5,88,11.67,68,10.1,299.0,333.3,301.1
892.7,1133,16.4,14.3,87,11.53,68,10.1,299.1,332.9,301.1
892.2,1138,16.4,14.0,86,11.35,68,10.2,299.1,332.5,301.2
891.6,1144,16.4,13.8,85,11.21,69,10.3,299.2,332.2,301.2
891.1,1149,16.4,13.7,84,11.14,69,10.3,299.2,332.0,301.3
890.5,1154,16.4,13.7,84,11.14,69,10.4,299.3,332.1,301.3
890.0,1160,16.4,13.7,84,11.13,70,10.4,299.3,332.1,301.3
889.4,1165,16.4,13.6,84,11.08,70,10.4,299.4,332.0,301.4
888.9,1170,16.4,13.5,83,11.02,70,10.5,299.4,331.9,301.4
888.4,1175,16.4,13.5,83,11.00,71,10.5,299.5,331.9,301.4
887.9,1180,16.4,13.5,83,11.01,71,10.5,299.5,331.9,301.5
887.4,1185,16.3,13.5,83,11.04,71,10.5,299.5,332.1,301.5
886.9,1189,16.3,13.5,84,11.04,71,10.6,299.5,332.1,301.5
886.4,1194,16.3,13.4,83,10.95,72,10.6,299.6,331.8,301.5
885.9,1199,16.2,13.2,82,10.85,72,10.6,299.6,331.6,301.5
885.4,1203,16.2,13.2,82,10.80,72,10.6,299.6,331.5,301.6
885.0,1208,16.2,13.1,82,10.80,72,10.6,299.6,331.5,301.6
884.5,1212,16.2,13.2,82,10.81,72,10.6,299.6,331.5,301.6
884.0,1217,16.1,13.2,83,10.84,72,10.6,299.7,331.6,301.6
883.6,1221,16.1,13.2,83,10.85,72,10.6,299.7,331.7,301.6
883.1,1226,16.1,13.2,83,10.84,72,10.6,299.7,331.6,301.6
882.6,1231,16.1,13.1,83,10.82,72,10.5,299.7,331.6,301.7
882.1,1235,16.0,13.1,83,10.79,72,10.5,299.7,331.6,301.7
881.6,1240,16.0,13.0,83,10.76,71,10.5,299.8,331.5,301.7
881.1,1245,16.0,13.0,82,10.73,71,10.5,299.8,331.5,301.7
880.5,1251,16.0,12.9,82,10.71,71,10.4,299.8,331.4,301.7
880.0,1256,15.9,13.0,83,10.73,71,10.4,299.8,331.5,301.7
879.4,1262,15.9,13.0,83,10.78,71,10.3,299.8,331.6,301.8
878.8,1267,15.8,13.0,84,10.80,70,10.3,299.8,331.7,301.8
878.2,1273,15.8,13.0,84,10.78,70,10.3,299.8,331.6,301.8
877.6,1279,15.7,12.9,83,10.68,70,10.2,299.8,331.4,301.8
877.0,1285,15.7,12.8,83,10.62,70,10.2,299.9,331.2,301.8
876.4,1290,15.6,12.7,83,10.62,69,10.1,299.9,331.2,301.8
875.8,1296,15.6,12.8,83,10.66,69,10.1,299.9,331.4,301.8
875.3,1302,15.5,12.9,84,10.71,69,10.0,299.9,331.5,301.8
874.7,1307,15.5,12.8,84,10.71,69,10.0,299.9,331.5,301.8
874.1,1313,15.5,12.7,84,10.65,68,9.9,299.9,331.4,301.9
873.6,1318,15.5,12.6,83,10.55,68,9.9,300.0,331.1,301.9
873.1,1323,15.5,12.5,82,10.48,68,9.8,300.1,331.0,301.9
872.6,1328,15.5,12.5,82,10.48,68,9.7,300.1,331.1,302.0
872.1,1332,15.5,12.5,82,10.51,68,9.7,300.1,331.2,302.0
871.7,1336,15.5,12.6,83,10.54,68,9.6,300.2,331.4,302.1
871.3,1341,15.5,12.6,83,10.57,67,9.6,300.2,331.5,302.1
870.9,1345,15.5,12.6,83,10.60,67,9.5,300.2,331.6,302.1
870.4,1349,15.4,12.7,83,10.63,67,9.5,300.3,331.7,302.2
870.0,1353,15.4,12.7,84,10.66,67,9.4,300.3,331.8,302.2
869.6,1357,15.4,12.7,84,10.66,67,9.3,300.3,331.8,302.2
869.1,1361,15.4,12.7,84,10.65,67,9.3,300.3,331.8,302.2
868.7,1366,15.4,12.6,84,10.64,67,9.2,300.4,331.8,302.3
868.2,1371,15.4,12.6,83,10.62,67,9.1,300.4,331.9,302.3
867.7,1375,15.4,12.6,83,10.61,67,9.0,300.5,331.9,302.4
867.3,1380,15.4,12.6,83,10.61,66,9.0,300.5,331.9,302.4
866.8,1384,15.4,12.5,83,10.58,66,8.9,300.6,331.9,302.5
866.3,1389,15.4,12.5,83,10.56,66,8.8,300.6,331.9,302.5
865.8,1394,15.4,12.5,83,10.55,66,8.7,300.6,331.9,302.5
865.4,1398,15.3,12.4,83,10.54,66,8.6,300.6,331.9,302.5
864.9,1403,15.3,12.4,83,10.54,66,8.6,300.6,331.9,302.5
864.4,1408,15.2,12.4,83,10.54,66,8.5,300.6,331.8,302.5
863.9,1412,15.2,12.4,84,10.53,66,8.4,300.6,331.8,302.5
863.5,1417,15.1,12.4,84,10.54,66,8.3,300.6,331.8,302.5
863.1,1421,15.1,12.4,84,10.54,66,8.2,300.6,331.8,302.5
862.6,1425,15.1,12.4,84,10.53,66,8.2,300.6,331.8,302.5
862.2,1429,15.0,12.4,84,10.52,66,8.1,300.7,331.8,302.6
861.8,1434,15.0,12.4,84,10.53,66,8.0,300.7,331.8,302.6
861.3,1438,15.0,12.4,85,10.55,66,8.0,300.7,331.9,302.6
860.8,1443,14.9,12.4,85,10.58,67,7.9,300.7,332.0,302.6
860.4,1447,14.9,12.4,85,10.59,67,7.9,300.7,332.0,302.6
859.9,1452,14.8,12.4,85,10.58,67,7.8,300.7,332.0,302.6
859.4,1457,14.8,12.4,86,10.62,68,7.8,300.7,332.1,302.6
858.9,1462,14.8,12.5,86,10.66,68,7.8,300.7,332.3,302.6
858.5,1466,14.7,12.5,87,10.70,68,7.7,300.7,332.4,302.6
858.0,1471,14.7,12.5,86,10.68,69,7.7,300.8,332.4,302.7
857.6,1475,14.8,12.3,85,10.57,69,7.7,300.8,332.2,302.7
857.1,1480,14.8,12.2,84,10.47,70,7.7,300.9,332.0,302.8
856.6,1484,14.8,12.1,84,10.43,70,7.7,301.0,331.9,302.8
856.2,1489,14.8,12.1,84,10.43,71,7.7,301.0,331.9,302.9
855.7,1493,14.8,12.1,84,10.41,72,7.8,301.0,331.9,302.9
855.3,1498,14.7,12.0,84,10.38,72,7.8,301.0,331.8,302.9
854.8,1503,14.7,11.9,83,10.32,73,7.8,301.1,331.7,303.0
854.3,1507,14.8,11.8,82,10.24,74,7.8,301.1,331.6,303.0
853.9,1512,14.8,11.6,82,10.12,74,7.8,301.2,331.3,303.0
853.4,1516,14.8,11.5,81,10.03,75,7.9,301.3,331.1,303.1
853.0,1521,14.8,11.4,80,9.95,76,7.9,301.3,330.9,303.1
852.5,1525,14.8,11.3,79,9.91,76,7.9,301.4,330.9,303.2
852.1,1529,14.8,11.2,79,9.88,77,7.9,301.4,330.9,303.2
851.7,1534,14.8,11.2,79,9.87,78,7.9,301.4,330.8,303.2
851.2,1538,14.8,11.2,79,9.87,78,8.0,301.5,330.8,303.3
850.8,1542,14.7,11.2,79,9.85,79,8.0,301.5,330.8,303.3
850.3,1547,14.7,11.1,79,9.82,79,8.0,301.5,330.7,303.3
850.0,1550,14.7,11.1,79,9.80,79,8.0,301.5,330.7,303.3
849.9,1551,14.7,11.1,79,9.79,80,8.0,301.5,330.7,303.3
849.5,1555,14.6,11.0,79,9.75,80,8.0,301.5,330.6,303.3
849.1,1559,14.6,11.0,79,9.73,81,8.0,301.5,330.5,303.3
848.7,1563,14.6,10.9,79,9.71,81,7.9,301.5,330.5,303.3
848.3,1567,14.6,10.9,79,9.69,82,7.9,301.6,330.5,303.3
847.9,1571,14.6,10.9,78,9.68,82,7.9,301.6,330.4,303.4
847.5,1575,14.5,10.8,78,9.67,82,7.9,301.6,330.4,303.4
847.0,1580,14.5,10.8,79,9.66,82,7.8,301.6,330.4,303.4
846.6,1584,14.5,10.8,78,9.63,82,7.8,301.6,330.4,303.4
846.1,1589,14.5,10.7,78,9.60,82,7.8,301.7,330.3,303.4
845.6,1594,14.4,10.7,78,9.59,82,7.7,301.7,330.3,303.4
845.0,1600,14.4,10.7,78,9.59,82,7.7,301.7,330.3,303.4
844.5,1606,14.3,10.6,78,9.57,81,7.7,301.7,330.3,303.4
843.9,1612,14.3,10.6,78,9.53,81,7.6,301.7,330.2,303.5
843.3,1618,14.3,10.5,78,9.47,81,7.6,301.7,330.0,303.5
842.7,1624,14.2,10.4,78,9.42,80,7.6,301.8,329.9,303.5
842.1,1629,14.2,10.3,77,9.38,80,7.6,301.8,329.8,303.5
841.6,1635,14.1,10.2,77,9.34,79,7.5,301.8,329.7,303.5
841.0,1640,14.1,10.2,77,9.32,79,7.5,301.8,329.7,303.5
840.6,1645,14.1,10.2,77,9.34,78,7.5,301.8,329.7,303.5
840.1,1649,14.1,10.3,78,9.38,77,7.5,301.9,329.9,303.6
839.6,1654,14.0,10.3,78,9.42,77,7.5,301.9,330.0,303.6
839.2,1659,14.0,10.3,79,9.43,76,7.5,301.9,330.0,303.6
838.7,1663,13.9,10.3,79,9.41,76,7.6,301.9,330.0,303.6
838.2,1668,13.9,10.2,78,9.38,75,7.6,301.9,329.9,303.6
837.8,1673,13.9,10.2,78,9.34,75,7.6,301.9,329.8,303.6
837.3,1677,13.8,10.1,78,9.30,75,7.6,301.9,329.7,303.6
836.9,1682,13.8,10.0,78,9.27,74,7.6,301.9,329.6,303.6
836.4,1687,13.7,10.0,78,9.24,74,7.7,301.9,329.5,303.6
836.0,1691,13.7,9.9,78,9.20,74,7.7,301.9,329.4,303.6
835.6,1695,13.7,9.8,77,9.16,74,7.7,301.9,329.3,303.6
835.2,1699,13.7,9.8,77,9.14,74,7.7,302.0,329.3,303.6
834.8,1703,13.7,9.7,77,9.10,74,7.8,302.0,329.2,303.6
834.3,1708,13.6,9.6,77,9.03,74,7.8,302.0,329.0,303.7
833.9,1712,13.6,9.5,76,8.95,74,7.8,302.0,328.8,303.7
833.5,1716,13.6,9.4,75,8.90,75,7.8,302.1,328.7,303.7
833.1,1721,13.6,9.3,75,8.87,75,7.8,302.1,328.7,303.7
832.6,1725,13.5,9.3,76,8.87,75,7.8,302.1,328.7,303.7
832.2,1729,13.5,9.3,76,8.86,76,7.8,302.1,328.6,303.7
831.8,1734,13.5,9.2,75,8.84,76,7.8,302.1,328.6,303.7
831.3,1738,13.4,9.2,76,8.82,77,7.7,302.1,328.6,303.7
830.9,1743,13.4,9.2,75,8.80,77,7.7,302.1,328.5,303.7
830.4,1747,13.4,9.1,75,8.76,77,7.7,302.2,328.4,303.8
829.9,1752,13.4,9.0,75,8.73,78,7.6,302.2,328.4,303.8
829.5,1757,13.3,9.0,75,8.73,78,7.6,302.2,328.4,303.8
829.0,1762,13.3,9.0,75,8.73,79,7.5,302.2,328.4,303.8
828.4,1767,13.3,9.0,75,8.71,79,7.5,302.2,328.3,303.8
827.9,1773,13.2,8.9,75,8.69,79,7.4,302.2,328.3,303.8
827.4,1778,13.2,8.9,75,8.66,79,7.4,302.3,328.2,303.8
826.8,1784,13.1,8.8,75,8.62,79,7.3,302.3,328.1,303.8
826.2,1790,13.1,8.6,74,8.54,79,7.3,302.3,327.9,303.8
825.7,1796,13.1,8.5,74,8.45,79,7.2,302.3,327.7,303.8
825.1,1801,13.0,8.3,73,8.36,79,7.2,302.3,327.4,303.9
824.6,1807,13.0,8.2,73,8.32,79,7.1,302.4,327.4,303.9
824.0,1812,13.0,8.2,73,8.34,79,7.0,302.4,327.4,303.9
823.5,1817,12.9,8.3,73,8.35,78,7.0,302.4,327.5,303.9
823.1,1822,12.9,8.3,73,8.35,78,6.9,302.4,327.5,303.9
822.6,1827,12.9,8.3,74,8.36,77,6.9,302.4,327.6,304.0
822.1,1832,12.8,8.3,74,8.39,77,6.9,302.5,327.7,304.0
821.6,1837,12.8,8.4,74,8.42,76,6.8,302.5,327.8,304.0
821.1,1842,12.8,8.4,75,8.46,75,6.8,302.5,327.9,304.0
820.6,1847,12.7,8.4,75,8.46,75,6.8,302.5,327.9,304.0
820.1,1852,12.7,8.3,75,8.42,74,6.8,302.5,327.8,304.0
819.6,1858,12.7,8.3,74,8.39,73,6.9,302.5,327.7,304.1
819.1,1863,12.7,8.2,74,8.37,73,6.9,302.6,327.7,304.1
818.6,1868,12.6,8.2,75,8.37,72,6.9,302.6,327.7,304.1
818.1,1874,12.6,8.2,75,8.36,71,6.9,302.6,327.7,304.1
817.5,1879,12.5,8.1,75,8.35,71,7.0,302.6,327.7,304.1
817.0,1884,12.5,8.1,75,8.33,70,7.1,302.6,327.6,304.1
816.5,1889,12.4,8.1,75,8.32,70,7.1,302.6,327.6,304.1
816.0,1894,12.4,8.1,75,8.35,70,7.2,302.6,327.8,304.2
815.6,1899,12.4,8.2,75,8.37,70,7.2,302.7,327.8,304.2
