PRES,HGHT,TEMP,DWPT,RELH,MIXR,DRCT,SPED,THTA,THTE,THTV
1013.5,31,22.7,20.3,86,14.91,344,1.0,294.7,337.6,297.4
1013.1,34,24.1,20.7,81,15.32,358,1.1,296.2,340.5,298.9
1012.4,40,23.2,20.3,84,15.01,3,1.2,295.3,338.6,298.0
1011.8,45,22.8,20.2,86,14.93,5,1.3,294.9,337.9,297.6
1010.8,54,22.6,20.1,86,14.79,5,1.4,294.8,337.4,297.4
1010.3,58,22.5,20.0,85,14.68,4,1.5,294.8,337.0,297.4
1009.7,63,22.5,20.0,86,14.75,4,1.6,294.8,337.2,297.4
1008.9,70,22.5,20.1,87,14.86,4,1.6,294.9,337.6,297.5
1008.2,76,22.4,20.2,87,14.95,3,1.7,294.9,337.8,297.5
1007.5,82,22.3,20.2,88,15.00,3,1.8,294.8,338.0,297.5
1006.9,88,22.3,20.2,88,14.95,3,1.8,294.8,337.8,297.5
1006.2,94,22.2,20.0,87,14.75,3,1.8,294.9,337.3,297.5
1005.6,99,22.2,19.6,85,14.46,2,1.9,294.9,336.5,297.4
1005.0,104,22.2,19.5,85,14.33,2,1.9,294.9,336.1,297.4
1004.4,110,22.1,19.6,85,14.40,2,1.8,294.9,336.3,297.5
1003.8,115,22.1,19.5,85,14.40,1,1.8,294.9,336.3,297.5
1003.2,120,22.0,19.5,85,14.32,1,1.8,294.9,336.1,297.5
1002.7,124,22.0,19.4,85,14.29,360,1.7,294.9,336.0,297.4
1002.2,129,22.0,19.3,85,14.18,360,1.6,294.9,335.7,297.4
1001.7,133,21.9,19.2,85,14.14,359,1.5,294.9,335.6,297.4
1001.2,137,21.9,19.1,84,14.07,358,1.4,294.9,335.4,297.4
1000.8,141,21.9,19.1,84,14.07,358,1.3,294.9,335.4,297.4
1000.3,145,21.8,19.3,85,14.21,357,1.2,294.9,335.8,297.5
1000.0,148,21.8,19.4,86,14.34,357,1.2,294.9,336.2,297.5
999.8,149,21.8,19.5,87,14.42,357,1.1,294.9,336.4,297.5
999.4,153,21.7,19.6,88,14.56,357,0.9,294.9,336.8,297.5
998.9,157,21.7,19.6,88,14.50,357,0.8,294.9,336.6,297.5
998.4,161,21.6,19.4,87,14.30,358,0.6,294.9,336.1,297.4
998.0,165,21.6,19.2,86,14.13,1,0.4,294.9,335.6,297.4
997.5,169,21.6,19.1,86,14.07,8,0.3,295.0,335.5,297.5
997.0,173,21.6,19.1,86,14.11,31,0.1,295.0,335.6,297.5
996.6,177,21.6,19.2,86,14.15,108,0.1,295.0,335.7,297.5
996.1,181,21.5,19.2,87,14.19,139,0.3,295.0,335.8,297.5
995.6,186,21.5,19.2,87,14.21,147,0.4,295.0,335.9,297.5
995.1,190,21.4,19.2,87,14.22,149,0.6,295.0,335.9,297.5
994.5,195,21.4,19.3,88,14.28,150,0.7,295.0,336.1,297.5
993.9,201,21.4,19.4,89,14.40,150,0.9,295.0,336.4,297.6
993.3,206,21.3,19.5,89,14.51,149,1.0,295.0,336.8,297.6
992.6,212,21.3,19.5,90,14.54,148,1.1,295.1,336.9,297.6
992.0,218,21.2,19.4,90,14.47,147,1.3,295.0,336.7,297.6
991.3,223,21.2,19.3,89,14.37,146,1.4,295.0,336.4,297.6
990.7,229,21.1,19.3,89,14.37,145,1.5,295.0,336.4,297.6
990.2,234,21.1,19.4,90,14.44,143,1.6,295.0,336.6,297.6
989.6,238,21.0,19.4,90,14.48,142,1.7,295.0,336.7,297.6
989.1,243,21.0,19.4,91,14.51,140,1.8,295.1,336.8,297.6
988.6,247,21.0,19.5,91,14.55,139,1.9,295.1,337.0,297.7
988.1,252,20.9,19.5,91,14.57,138,2.0,295.1,337.0,297.7
987.6,256,20.9,19.5,92,14.57,136,2.1,295.1,337.0,297.7
987.1,261,20.9,19.5,92,14.56,135,2.2,295.1,337.0,297.7
986.6,265,20.8,19.4,92,14.54,133,2.2,295.1,337.0,297.7
986.1,270,20.8,19.4,92,14.54,132,2.3,295.1,337.0,297.7
985.5,274,20.8,19.4,92,14.57,131,2.4,295.1,337.1,297.7
985.0,279,20.7,19.4,93,14.59,129,2.4,295.1,337.1,297.7
984.5,283,20.6,19.4,93,14.56,128,2.5,295.1,337.0,297.7
984.0,287,20.6,19.4,93,14.53,127,2.6,295.1,336.9,297.7
983.6,292,20.6,19.3,93,14.51,127,2.6,295.1,336.9,297.7
983.1,295,20.6,19.3,92,14.47,126,2.7,295.1,336.8,297.7
982.7,299,20.5,19.3,92,14.44,125,2.8,295.1,336.7,297.7
982.3,303,20.5,19.3,93,14.45,125,2.8,295.1,336.7,297.7
981.9,307,20.5,19.2,93,14.45,125,2.9,295.1,336.7,297.7
981.4,310,20.4,19.2,93,14.43,124,2.9,295.2,336.7,297.7
981.0,314,20.5,19.2,92,14.39,124,3.0,295.2,336.6,297.8
980.6,318,20.5,19.1,92,14.37,125,3.1,295.3,336.7,297.8
980.2,322,20.5,19.1,92,14.36,125,3.1,295.3,336.7,297.8
979.7,325,20.4,19.1,92,14.37,125,3.2,295.3,336.7,297.9
979.3,329,20.4,19.1,92,14.36,126,3.3,295.3,336.7,297.9
978.9,333,20.4,19.1,92,14.36,127,3.3,295.4,336.7,297.9
978.4,337,20.4,19.1,92,14.35,128,3.4,295.4,336.8,297.9
977.9,341,20.4,19.1,92,14.34,129,3.5,295.4,336.7,297.9
977.5,345,20.4,19.0,92,14.32,130,3.5,295.4,336.7,298.0
977.0,350,20.4,19.0,92,14.29,131,3.6,295.5,336.7,298.0
976.5,354,20.4,19.0,91,14.26,132,3.6,295.6,336.7,298.1
976.0,358,20.4,18.9,91,14.23,133,3.7,295.6,336.7,298.1
975.5,363,20.4,18.9,91,14.20,134,3.8,295.6,336.6,298.2
975.0,367,20.4,18.8,91,14.19,136,3.8,295.7,336.6,298.2
974.5,372,20.3,18.9,91,14.22,137,3.9,295.6,336.7,298.2
974.0,376,20.3,18.9,92,14.26,138,3.9,295.6,336.8,298.2
973.5,381,20.3,18.9,92,14.29,140,4.0,295.7,336.9,298.2
973.0,385,20.3,18.9,92,14.30,141,4.1,295.7,337.0,298.3
972.5,390,20.3,18.9,92,14.27,142,4.1,295.8,337.0,298.3
971.9,395,20.3,18.8,91,14.23,143,4.2,295.8,336.9,298.4
971.4,399,20.3,18.8,91,14.19,144,4.2,295.9,336.9,298.4
970.9,404,20.3,18.8,91,14.18,146,4.3,295.9,336.9,298.5
970.4,409,20.3,18.8,91,14.20,147,4.3,295.9,337.0,298.5
969.9,413,20.2,18.8,91,14.22,148,4.4,296.0,337.0,298.5
969.4,417,20.2,18.8,92,14.24,149,4.5,296.0,337.1,298.5
968.9,422,20.2,18.9,92,14.29,149,4.5,296.0,337.3,298.5
968.4,426,20.1,18.9,92,14.31,150,4.6,296.0,337.4,298.5
967.9,430,20.1,18.9,93,14.31,151,4.6,296.0,337.3,298.5
967.4,435,20.1,18.8,93,14.29,152,4.7,296.0,337.3,298.5
966.9,439,20.0,18.8,93,14.26,152,4.7,296.0,337.2,298.5
966.4,444,20.0,18.8,93,14.26,153,4.8,296.0,337.2,298.5
965.9,448,20.0,18.8,93,14.25,153,4.8,296.0,337.2,298.5
965.4,453,19.9,18.7,93,14.22,154,4.9,296.0,337.1,298.6
964.9,458,19.9,18.7,93,14.20,154,4.9,296.1,337.1,298.6
964.4,462,19.9,18.7,93,14.20,155,5.0,296.1,337.1,298.6
963.9,467,19.8,18.7,93,14.19,155,5.0,296.1,337.1,298.6
963.4,471,19.8,18.6,93,14.16,156,5.1,296.1,337.0,298.6
962.8,476,19.8,18.6,93,14.12,156,5.1,296.1,337.0,298.6
962.3,481,19.8,18.6,92,14.11,156,5.2,296.2,337.0,298.7
961.8,485,19.8,18.6,93,14.15,157,5.2,296.2,337.2,298.8
961.3,490,19.8,18.6,93,14.21,157,5.3,296.2,337.3,298.8
960.7,495,19.7,18.7,94,14.25,158,5.3,296.2,337.4,298.7
960.2,500,19.6,18.7,95,14.27,158,5.4,296.1,337.4,298.6
959.7,504,19.5,18.7,95,14.27,158,5.4,296.1,337.3,298.6
959.2,509,19.4,18.7,96,14.29,159,5.5,296.1,337.4,298.6
958.7,513,19.4,18.7,96,14.29,159,5.5,296.1,337.4,298.6
958.2,518,19.4,18.7,96,14.27,160,5.5,296.1,337.3,298.6
957.7,522,19.3,18.6,96,14.24,160,5.6,296.1,337.3,298.6
957.3,526,19.3,18.6,96,14.22,161,5.6,296.1,337.3,298.7
956.8,530,19.3,18.6,96,14.22,161,5.6,296.1,337.3,298.7
956.4,534,19.2,18.6,96,14.22,161,5.7,296.1,337.2,298.6
955.9,538,19.1,18.6,97,14.25,162,5.7,296.1,337.3,298.6
955.5,542,19.1,18.6,97,14.28,162,5.7,296.1,337.3,298.6
955.0,547,19.1,18.6,97,14.26,163,5.7,296.1,337.3,298.6
954.5,551,19.1,18.5,97,14.21,163,5.7,296.2,337.3,298.7
954.1,555,19.1,18.5,96,14.16,164,5.7,296.2,337.2,298.7
953.6,560,19.1,18.4,96,14.13,164,5.8,296.3,337.1,298.8
953.1,564,19.1,18.4,95,14.07,165,5.8,296.3,337.0,298.8
952.6,569,19.1,18.3,95,14.05,165,5.8,296.3,337.0,298.8
952.1,573,19.0,18.3,96,14.05,165,5.8,296.3,337.0,298.8
951.6,578,19.0,18.3,96,14.08,166,5.8,296.3,337.1,298.8
951.1,582,18.9,18.3,96,14.09,166,5.8,296.3,337.1,298.8
950.5,587,18.9,18.2,96,14.01,167,5.8,296.3,336.9,298.8
950.0,592,18.9,18.1,95,13.85,167,5.8,296.4,336.5,298.8
949.5,597,18.9,17.9,94,13.74,167,5.8,296.4,336.2,298.8
948.9,601,18.9,17.9,94,13.70,167,5.8,296.4,336.1,298.9
948.4,606,18.9,17.8,93,13.62,168,5.8,296.5,335.9,298.9
947.9,611,18.8,17.6,92,13.46,168,5.8,296.5,335.5,298.9
947.4,616,18.8,17.4,92,13.33,168,5.8,296.5,335.1,298.9
946.9,620,18.8,17.2,91,13.19,168,5.8,296.5,334.8,298.9
946.3,625,18.8,17.1,90,13.09,169,5.9,296.6,334.5,298.9
945.8,630,18.8,17.1,90,13.08,169,5.9,296.6,334.5,298.9
945.3,635,18.7,17.1,90,13.08,169,5.9,296.6,334.6,298.9
944.7,640,18.7,17.1,90,13.08,169,5.9,296.6,334.6,299.0
944.2,645,18.7,17.1,90,13.07,169,5.9,296.6,334.6,299.0
943.6,650,18.6,17.0,91,13.06,169,5.9,296.6,334.5,299.0
943.1,655,18.6,17.0,91,13.06,169,6.0,296.6,334.5,299.0
942.6,660,18.5,17.0,91,13.03,170,6.0,296.6,334.4,299.0
942.0,664,18.5,16.9,90,12.96,170,6.0,296.7,334.3,299.0
941.5,669,18.5,16.8,90,12.86,170,6.0,296.7,334.0,299.0
940.9,675,18.4,16.6,89,12.77,170,6.0,296.7,333.8,299.0
940.4,680,18.4,16.6,89,12.74,170,6.1,296.7,333.7,299.0
939.8,685,18.4,16.6,89,12.75,170,6.1,296.7,333.7,299.0
939.2,690,18.3,16.6,90,12.74,170,6.1,296.7,333.7,299.0
938.7,695,18.3,16.5,90,12.71,170,6.1,296.7,333.7,299.0
938.2,700,18.2,16.5,89,12.67,170,6.1,296.7,333.5,299.0
937.6,705,18.2,16.5,90,12.67,170,6.1,296.8,333.6,299.0
937.1,709,18.2,16.5,90,12.70,170,6.1,296.8,333.6,299.0
936.6,714,18.1,16.5,90,12.71,170,6.1,296.8,333.7,299.0
936.1,719,18.1,16.5,90,12.70,170,6.1,296.8,333.6,299.0
935.6,724,18.0,16.5,91,12.70,170,6.1,296.8,333.6,299.0
935.0,729,18.0,16.4,91,12.68,170,6.2,296.8,333.6,299.0
934.5,734,18.0,16.4,90,12.63,170,6.2,296.8,333.5,299.0
933.9,739,17.9,16.3,90,12.56,171,6.2,296.8,333.3,299.0
933.4,744,17.9,16.2,90,12.51,171,6.2,296.8,333.1,299.0
932.8,749,17.8,16.1,90,12.47,171,6.2,296.8,333.0,299.0
932.2,754,17.8,16.1,90,12.44,171,6.2,296.8,333.0,299.1
931.7,759,17.8,16.1,90,12.42,171,6.2,296.8,332.9,299.1
931.1,765,17.7,16.1,90,12.43,171,6.2,296.9,333.0,299.1
930.5,770,17.7,16.1,90,12.44,171,6.2,296.9,333.0,299.1
929.9,776,17.6,16.1,91,12.45,171,6.2,296.9,333.1,299.1
929.3,781,17.6,16.1,91,12.45,171,6.2,296.9,333.1,299.1
928.7,787,17.5,16.1,91,12.45,171,6.2,296.9,333.1,299.1
928.1,792,17.5,16.0,91,12.40,171,6.2,296.9,332.9,299.1
927.5,798,17.4,15.9,91,12.34,171,6.2,296.9,332.8,299.1
926.9,803,17.4,15.9,91,12.31,171,6.2,296.9,332.7,299.1
926.3,809,17.4,15.8,91,12.27,170,6.2,296.9,332.6,299.1
925.7,815,17.3,15.7,90,12.18,170,6.2,297.0,332.4,299.1
925.1,820,17.3,15.6,90,12.14,170,6.2,297.0,332.3,299.2
925.0,821,17.3,15.6,90,12.15,170,6.2,297.0,332.3,299.2
924.5,826,17.3,15.7,90,12.19,170,6.2,297.0,332.4,299.2
923.9,831,17.2,15.7,91,12.23,170,6.2,297.0,332.5,299.2
923.3,837,17.1,15.7,91,12.22,170,6.2,297.0,332.5,299.2
922.7,842,17.1,15.6,91,12.16,170,6.2,297.0,332.3,299.1
922.1,848,17.0,15.5,90,12.08,170,6.2,297.0,332.1,299.1
921.6,853,17.0,15.4,91,12.06,170,6.1,297.0,332.1,299.1
921.1,858,17.0,15.4,91,12.06,170,6.1,297.0,332.1,299.2
920.5,862,16.9,15.5,91,12.08,170,6.1,297.0,332.2,299.2
920.0,867,16.9,15.4,91,12.06,170,6.0,297.0,332.1,299.2
919.5,872,16.9,15.3,91,11.99,170,6.0,297.0,331.9,299.2
919.0,876,16.9,15.2,90,11.91,170,5.9,297.1,331.7,299.2
918.5,881,16.8,15.2,90,11.88,170,5.9,297.1,331.7,299.2
918.0,886,16.8,15.1,90,11.86,170,5.8,297.1,331.6,299.2
917.5,891,16.8,15.0,89,11.77,170,5.8,297.1,331.4,299.2
916.9,896,16.8,14.8,88,11.59,170,5.7,297.2,331.0,299.3
916.4,901,16.8,14.4,86,11.32,170,5.7,297.3,330.3,299.3
915.9,906,16.8,14.2,84,11.16,171,5.7,297.4,329.9,299.3
915.3,911,16.8,14.2,85,11.19,171,5.6,297.4,330.0,299.4
914.8,916,16.8,14.3,85,11.26,171,5.6,297.4,330.2,299.4
914.3,921,16.7,14.3,86,11.31,172,5.6,297.4,330.4,299.4
913.8,925,16.7,14.4,86,11.32,172,5.6,297.4,330.4,299.4
913.3,930,16.6,14.3,86,11.28,172,5.6,297.4,330.3,299.4
912.8,935,16.6,14.2,86,11.19,173,5.6,297.4,330.0,299.4
912.3,939,16.6,14.1,85,11.12,173,5.6,297.4,329.9,299.4
911.8,944,16.5,14.0,85,11.06,173,5.6,297.4,329.7,299.4
911.3,948,16.5,13.9,85,11.03,174,5.7,297.4,329.7,299.4
910.9,953,16.5,13.9,85,11.05,174,5.7,297.5,329.7,299.4
910.4,957,16.5,14.0,85,11.10,174,5.8,297.5,329.9,299.5
909.9,962,16.4,14.0,86,11.11,175,5.9,297.5,329.9,299.5
909.4,966,16.4,14.0,86,11.13,175,6.0,297.5,330.0,299.5
908.9,971,16.3,14.1,86,11.16,175,6.1,297.5,330.1,299.5
908.3,976,16.3,14.1,87,11.18,175,6.2,297.5,330.1,299.5
907.7,982,16.2,14.0,87,11.17,176,6.3,297.5,330.1,299.5
907.1,988,16.2,14.0,87,11.14,176,6.4,297.5,330.0,299.5
906.5,993,16.2,13.9,86,11.09,176,6.5,297.5,329.9,299.5
905.9,999,16.2,13.8,86,11.03,176,6.6,297.6,329.8,299.6
905.3,1005,16.2,13.7,86,10.98,176,6.7,297.7,329.8,299.6
904.7,1010,16.2,13.7,85,10.94,176,6.8,297.7,329.7,299.7
904.2,1016,16.1,13.6,85,10.89,176,6.8,297.7,329.6,299.7
903.6,1021,16.1,13.5,84,10.81,176,6.9,297.8,329.4,299.7
903.1,1026,16.1,13.3,83,10.69,176,7.0,297.8,329.1,299.7
902.5,1031,16.1,13.1,82,10.56,176,7.1,297.9,328.8,299.8
902.0,1036,16.2,12.9,81,10.43,176,7.1,298.0,328.5,299.8
901.5,1041,16.2,12.7,80,10.30,176,7.1,298.1,328.3,299.9
901.0,1046,16.2,12.5,79,10.17,176,7.2,298.1,328.0,299.9
900.4,1051,16.2,12.4,78,10.09,176,7.2,298.2,327.8,300.0
899.9,1056,16.2,12.3,78,10.07,176,7.2,298.2,327.8,300.0
899.3,1061,16.2,12.4,78,10.13,176,7.2,298.2,328.0,300.1
898.8,1067,16.1,12.6,79,10.22,176,7.2,298.2,328.2,300.1
898.2,1072,16.1,12.6,80,10.28,176,7.2,298.2,328.4,300.1
897.6,1078,16.0,12.6,80,10.26,176,7.1,298.2,328.3,300.0
897.0,1083,15.9,12.5,80,10.21,176,7.1,298.2,328.2,300.0
896.5,1089,15.9,12.5,80,10.19,176,7.1,298.2,328.1,300.0
895.9,1094,15.8,12.4,80,10.16,176,7.0,298.2,328.0,300.0
895.3,1100,15.8,12.3,80,10.11,175,7.0,298.2,327.9,300.0
894.7,1106,15.7,12.2,80,10.03,175,7.0,298.2,327.6,300.0
894.1,1111,15.6,12.0,79,9.92,175,6.9,298.2,327.3,299.9
893.5,1117,15.6,11.9,79,9.85,174,6.9,298.2,327.1,299.9
892.8,1123,15.5,11.8,79,9.81,174,6.9,298.2,327.0,299.9
892.2,1129,15.5,11.7,78,9.70,173,6.9,298.2,326.7,299.9
891.6,1134,15.5,11.5,77,9.61,173,6.9,298.2,326.5,300.0
891.0,1140,15.4,11.4,77,9.56,172,6.9,298.3,326.4,300.0
890.4,1146,15.4,11.5,77,9.61,172,6.9,298.3,326.6,300.0
889.8,1152,15.4,11.6,78,9.68,171,6.9,298.4,326.8,300.1
889.2,1158,15.4,11.6,78,9.72,171,6.9,298.4,327.0,300.1
888.6,1163,15.4,11.6,78,9.71,170,7.0,298.4,327.0,300.1
888.0,1169,15.3,11.6,79,9.70,169,7.0,298.4,326.9,300.2
887.5,1174,15.3,11.6,79,9.70,169,7.1,298.4,326.9,300.1
886.9,1179,15.2,11.6,79,9.71,168,7.1,298.4,327.0,300.2
886.4,1184,15.2,11.6,79,9.75,167,7.2,298.4,327.1,300.2
885.9,1189,15.1,11.7,80,9.78,167,7.3,298.4,327.2,300.2
885.4,1194,15.1,11.7,80,9.78,166,7.3,298.4,327.2,300.2
884.8,1199,15.0,11.7,80,9.79,166,7.4,298.4,327.2,300.2
884.3,1204,15.0,11.7,81,9.79,166,7.5,298.4,327.2,300.2
883.8,1209,14.9,11.6,81,9.78,165,7.5,298.4,327.2,300.2
883.3,1214,14.9,11.6,81,9.76,165,7.6,298.4,327.2,300.2
882.8,1219,14.9,11.6,81,9.77,165,7.6,298.5,327.2,300.2
882.3,1224,14.8,11.7,81,9.82,165,7.7,298.5,327.3,300.2
881.7,1229,14.8,11.7,82,9.85,165,7.7,298.5,327.4,300.2
881.2,1234,14.8,11.7,82,9.83,165,7.7,298.5,327.4,300.3
880.7,1239,14.7,11.6,82,9.82,165,7.7,298.5,327.4,300.3
880.1,1245,14.7,11.7,82,9.83,166,7.7,298.5,327.4,300.3
879.5,1250,14.6,11.6,82,9.82,166,7.7,298.5,327.4,300.3
879.0,1256,14.5,11.6,83,9.81,167,7.7,298.5,327.3,300.2
878.3,1262,14.5,11.6,83,9.83,167,7.7,298.5,327.4,300.3
877.7,1268,14.4,11.7,84,9.89,168,7.6,298.5,327.6,300.3
877.1,1274,14.4,11.7,84,9.91,169,7.6,298.5,327.6,300.3
876.5,1279,14.3,11.7,84,9.88,169,7.5,298.5,327.5,300.3
876.0,1285,14.3,11.5,84,9.81,170,7.4,298.5,327.4,300.3
875.4,1290,14.3,11.4,83,9.73,171,7.4,298.6,327.2,300.3
874.9,1295,14.3,11.3,82,9.68,172,7.3,298.6,327.1,300.4
874.4,1300,14.3,11.3,82,9.69,173,7.2,298.7,327.2,300.4
873.9,1305,14.3,11.4,83,9.74,174,7.1,298.7,327.4,300.5
873.4,1310,14.2,11.4,83,9.76,175,7.1,298.7,327.4,300.5
872.9,1314,14.2,11.4,83,9.74,176,7.0,298.7,327.4,300.5
872.5,1319,14.2,11.4,83,9.73,176,6.9,298.7,327.4,300.5
872.0,1323,14.2,11.4,83,9.73,177,6.8,298.8,327.4,300.5
871.6,1327,14.1,11.4,83,9.74,178,6.7,298.8,327.5,300.5
871.1,1332,14.1,11.4,83,9.74,179,6.7,298.8,327.5,300.6
870.6,1336,14.1,11.4,83,9.74,179,6.6,298.9,327.6,300.6
870.2,1341,14.1,11.4,84,9.76,180,6.5,298.9,327.7,300.7
869.7,1346,14.1,11.4,84,9.81,180,6.5,298.9,327.8,300.7
869.2,1351,14.0,11.4,84,9.82,180,6.4,298.9,327.8,300.7
868.7,1356,14.0,11.2,83,9.68,181,6.3,298.9,327.4,300.6
868.1,1361,13.9,11.0,83,9.55,181,6.3,298.9,327.1,300.6
867.6,1366,13.9,11.0,83,9.52,181,6.2,298.9,327.0,300.6
867.1,1371,13.8,11.0,83,9.53,180,6.2,298.9,327.0,300.6
866.6,1376,13.8,11.0,83,9.53,180,6.1,298.9,327.0,300.6
866.1,1380,13.7,11.0,83,9.54,180,6.1,298.9,327.0,300.6
865.7,1385,13.7,11.0,84,9.54,179,6.0,298.9,327.1,300.6
865.2,1389,13.7,11.0,84,9.55,179,6.0,298.9,327.1,300.7
864.8,1393,13.7,11.0,84,9.56,178,5.9,299.0,327.1,300.7
864.4,1397,13.6,11.0,84,9.59,178,5.9,299.0,327.3,300.7
864.0,1402,13.6,11.1,85,9.64,177,5.9,299.0,327.4,300.7
863.5,1406,13.5,11.2,86,9.70,176,5.8,299.0,327.5,300.7
863.1,1410,13.5,11.2,86,9.70,175,5.8,299.0,327.6,300.7
862.7,1414,13.5,11.1,86,9.67,175,5.8,299.0,327.5,300.7
862.2,1418,13.4,11.1,86,9.64,174,5.8,299.0,327.4,300.7
861.8,1423,13.4,11.0,86,9.62,173,5.8,299.0,327.3,300.7
861.4,1427,13.4,11.0,86,9.62,172,5.8,299.0,327.4,300.7
860.9,1431,13.3,11.0,86,9.64,171,5.9,299.0,327.5,300.8
860.5,1436,13.3,11.0,86,9.65,170,5.9,299.0,327.5,300.8
860.0,1441,13.3,10.9,86,9.60,169,5.9,299.0,327.3,300.8
859.5,1445,13.3,10.8,85,9.48,168,6.0,299.1,327.1,300.8
859.0,1450,13.3,10.7,84,9.45,167,6.0,299.1,327.0,300.8
858.5,1455,13.3,10.8,85,9.50,166,6.1,299.2,327.2,300.9
858.0,1460,13.3,10.8,85,9.51,165,6.1,299.2,327.3,301.0
857.5,1465,13.3,10.7,84,9.48,164,6.2,299.3,327.3,301.0
857.1,1469,13.3,10.7,84,9.47,163,6.3,299.4,327.3,301.1
856.6,1474,13.3,10.7,84,9.50,162,6.4,299.4,327.5,301.1
856.1,1479,13.3,10.8,85,9.56,162,6.5,299.5,327.7,301.2
855.6,1483,13.3,10.8,85,9.58,161,6.6,299.5,327.8,301.2
855.2,1488,13.3,10.8,85,9.58,160,6.7,299.5,327.8,301.2
854.7,1493,13.2,10.8,85,9.59,159,6.8,299.5,327.9,301.2
854.2,1497,13.2,10.9,86,9.62,158,6.9,299.5,327.9,301.3
853.8,1502,13.2,10.9,86,9.63,157,7.0,299.5,328.0,301.3
853.3,1506,13.2,10.9,86,9.65,156,7.1,299.6,328.1,301.3
852.9,1510,13.2,10.9,86,9.66,155,7.2,299.6,328.2,301.4
852.5,1515,13.2,10.9,86,9.68,155,7.3,299.7,328.3,301.4
852.0,1519,13.1,10.9,87,9.69,154,7.5,299.7,328.3,301.4
851.6,1523,13.1,10.9,86,9.65,153,7.6,299.7,328.3,301.5
851.1,1528,13.1,10.8,86,9.61,153,7.7,299.8,328.2,301.5
850.7,1532,13.1,10.8,86,9.60,152,7.8,299.8,328.2,301.5
850.2,1537,13.1,10.8,86,9.62,152,7.9,299.8,328.3,301.6
850.0,1539,13.1,10.8,86,9.63,152,7.9,299.8,328.3,301.6
849.7,1541,13.1,10.8,86,9.64,152,7.9,299.9,328.4,301.6
849.2,1547,13.1,10.8,86,9.65,151,8.0,299.9,328.5,301.6
848.7,1552,13.1,10.8,86,9.63,151,8.1,300.0,328.5,301.7
848.1,1558,13.1,10.8,86,9.65,151,8.1,300.0,328.6,301.8
847.5,1564,13.0,10.9,87,9.71,151,8.2,300.0,328.8,301.8
846.9,1570,13.0,10.9,87,9.71,151,8.2,300.1,328.8,301.8
846.3,1576,13.0,10.8,86,9.63,151,8.2,300.1,328.6,301.8
845.7,1582,12.9,10.6,86,9.54,152,8.2,300.1,328.4,301.8
845.1,1588,12.9,10.5,85,9.47,152,8.2,300.2,328.2,301.9
844.6,1593,12.9,10.4,85,9.40,152,8.2,300.2,328.1,301.9
844.1,1598,12.9,10.3,84,9.35,153,8.2,300.2,327.9,301.9
843.6,1603,12.9,10.2,84,9.33,153,8.1,300.3,327.9,301.9
843.1,1607,12.8,10.2,84,9.32,154,8.1,300.3,328.0,302.0
842.7,1612,12.8,10.2,84,9.33,154,8.0,300.3,328.0,302.0
842.2,1616,12.8,10.2,84,9.32,155,7.9,300.3,328.0,302.0
841.8,1621,12.8,10.1,84,9.29,155,7.9,300.3,327.9,302.0
841.3,1625,12.7,10.1,84,9.28,156,7.8,300.4,327.9,302.0
840.9,1630,12.7,10.1,84,9.27,157,7.7,300.4,327.9,302.1
840.5,1634,12.7,10.1,84,9.27,157,7.6,300.4,327.9,302.1
840.0,1639,12.7,10.1,84,9.28,158,7.5,300.4,328.0,302.1
839.5,1643,12.7,10.1,84,9.28,158,7.5,300.5,328.0,302.1
839.1,1648,12.7,10.1,85,9.30,158,7.4,300.5,328.1,302.2
838.6,1653,12.6,10.1,85,9.30,159,7.3,300.5,328.1,302.2
838.1,1657,12.6,10.1,84,9.27,159,7.2,300.6,328.1,302.2
837.6,1662,12.6,10.0,84,9.22,159,7.2,300.6,328.0,302.2
837.1,1667,12.6,9.9,84,9.18,159,7.1,300.6,327.9,302.3
836.6,1672,12.5,9.8,83,9.13,159,7.1,300.6,327.8,302.3
836.1,1678,12.5,9.7,83,9.05,159,7.0,300.7,327.6,302.3
835.6,1683,12.5,9.6,82,8.99,159,7.0,300.7,327.4,302.3
835.0,1688,12.5,9.5,82,8.94,159,7.0,300.7,327.3,302.3
834.5,1694,12.4,9.4,82,8.90,158,7.0,300.7,327.3,302.4
834.0,1699,12.4,9.4,82,8.93,158,7.0,300.8,327.4,302.4
833.5,1704,12.4,9.5,83,9.00,157,7.0,300.8,327.6,302.4
833.0,1709,12.4,9.5,83,9.01,157,7.0,300.8,327.6,302.4
832.5,1714,12.3,9.5,83,9.01,156,7.0,300.8,327.7,302.5
832.0,1719,12.3,9.5,83,9.01,156,7.0,300.9,327.7,302.5
831.5,1724,12.3,9.5,83,8.99,155,7.0,300.9,327.6,302.5
831.0,1729,12.3,9.4,83,8.94,154,7.0,300.9,327.5,302.5
830.6,1734,12.2,9.3,82,8.87,154,7.0,300.9,327.4,302.5
830.1,1738,12.2,9.2,82,8.83,153,7.1,300.9,327.3,302.5
829.7,1743,12.2,9.2,82,8.82,153,7.1,300.9,327.2,302.5
829.2,1747,12.1,9.1,82,8.80,152,7.1,301.0,327.2,302.5
828.8,1751,12.1,9.1,82,8.77,152,7.1,301.0,327.1,302.6
828.4,1756,12.1,9.0,81,8.73,151,7.1,301.0,327.0,302.6
827.9,1760,12.0,8.9,81,8.67,151,7.1,301.0,326.9,302.6
827.5,1765,12.0,8.8,80,8.61,150,7.0,301.0,326.7,302.6
827.0,1770,12.0,8.7,80,8.58,150,7.0,301.1,326.7,302.6
