PRES,HGHT,TEMP,DWPT,RELH,MIXR,DRCT,SPED,THTA,THTE,THTV
1014.3,31,25.9,19.3,67,14.06,61,2.7,297.8,338.8,300.3
1013.5,37,25.4,18.9,67,13.72,64,2.0,297.4,337.3,299.8
1012.8,43,24.6,18.7,70,13.51,64,1.9,296.6,335.8,299.0
1012.2,49,24.2,18.6,71,13.40,63,2.0,296.3,335.1,298.7
1011.5,55,24.1,18.5,71,13.35,61,2.2,296.3,334.9,298.6
1010.7,61,24.1,18.4,70,13.25,59,2.4,296.3,334.8,298.7
1010.0,68,24.2,18.3,70,13.18,57,2.6,296.5,334.7,298.8
1009.2,75,24.2,18.2,69,13.14,56,2.8,296.6,334.7,298.9
1008.4,82,24.1,18.0,69,12.97,55,3.1,296.5,334.2,298.8
1007.7,88,23.9,17.7,69,12.78,54,3.3,296.3,333.4,298.6
1006.9,95,23.8,17.7,69,12.79,53,3.5,296.4,333.5,298.6
1006.1,102,23.8,17.9,69,12.90,52,3.7,296.5,333.9,298.8
1005.3,109,23.8,17.9,69,12.95,51,4.0,296.5,334.1,298.8
1004.5,116,23.8,17.9,70,12.96,51,4.2,296.6,334.2,298.9
1003.6,123,23.7,17.9,70,12.94,50,4.4,296.5,334.1,298.8
1002.8,130,23.5,17.8,70,12.90,50,4.6,296.4,333.8,298.7
1002.0,138,23.2,17.7,71,12.81,50,4.8,296.2,333.3,298.5
1001.2,145,23.1,17.8,72,12.87,49,5.0,296.2,333.5,298.5
1000.3,152,23.2,17.9,72,13.01,49,5.2,296.3,334.0,298.6
1000.0,155,23.2,17.9,72,13.00,49,5.4,296.3,334.0,298.6
999.5,159,23.1,17.8,72,12.97,49,5.4,296.3,333.9,298.6
998.7,166,22.7,17.6,73,12.76,49,5.5,296.0,332.9,298.2
998.0,173,22.5,17.5,73,12.69,49,5.7,295.8,332.5,298.0
997.2,179,22.4,17.6,74,12.79,49,5.8,295.8,332.7,298.0
996.5,185,22.3,17.6,74,12.77,49,6.0,295.8,332.7,298.0
995.9,191,22.2,17.4,74,12.66,49,6.1,295.7,332.3,298.0
995.2,197,22.2,17.3,74,12.58,49,6.2,295.7,332.1,298.0
994.6,202,22.1,17.3,74,12.55,49,6.3,295.7,332.0,298.0
994.0,207,22.1,17.1,74,12.47,49,6.4,295.7,331.8,297.9
993.5,212,22.0,17.1,74,12.44,49,6.4,295.7,331.7,297.9
992.9,217,22.0,17.2,74,12.51,49,6.5,295.7,331.9,297.9
992.3,223,21.9,17.3,75,12.64,49,6.5,295.7,332.3,298.0
991.7,228,21.9,17.5,76,12.80,49,6.5,295.7,332.7,298.0
991.1,233,21.8,17.6,77,12.87,49,6.6,295.7,333.0,298.0
990.6,238,21.8,17.5,77,12.80,49,6.6,295.7,332.8,298.0
990.0,242,21.7,17.3,76,12.65,49,6.6,295.7,332.3,298.0
989.5,247,21.7,17.2,76,12.56,50,6.6,295.7,332.0,297.9
988.9,252,21.6,17.2,76,12.56,50,6.6,295.7,332.0,297.9
988.3,257,21.6,17.2,76,12.60,50,6.5,295.7,332.2,298.0
987.7,263,21.5,17.3,77,12.65,50,6.5,295.7,332.3,298.0
987.1,268,21.5,17.3,77,12.68,50,6.5,295.7,332.4,298.0
986.5,274,21.4,17.3,77,12.68,50,6.5,295.7,332.4,298.0
985.8,279,21.4,17.3,78,12.67,50,6.4,295.7,332.3,298.0
985.2,285,21.3,17.2,77,12.64,50,6.4,295.7,332.3,298.0
984.6,290,21.3,17.2,77,12.61,50,6.3,295.7,332.2,297.9
983.9,296,21.2,17.1,78,12.59,51,6.3,295.7,332.1,298.0
983.4,301,21.2,17.1,78,12.58,51,6.2,295.7,332.1,297.9
982.8,306,21.1,17.1,78,12.57,51,6.2,295.7,332.1,298.0
982.2,311,21.1,17.1,78,12.57,51,6.1,295.7,332.1,298.0
981.6,316,21.0,17.2,79,12.65,51,6.1,295.7,332.3,298.0
981.1,321,21.0,17.3,79,12.77,51,6.1,295.7,332.7,298.0
980.4,327,20.9,17.4,80,12.82,52,6.0,295.7,332.8,298.0
979.8,332,20.9,17.3,80,12.74,52,6.0,295.7,332.6,298.0
979.2,338,20.8,17.2,80,12.67,52,5.9,295.7,332.4,298.0
978.6,343,20.7,17.1,80,12.62,52,5.9,295.7,332.2,298.0
978.0,348,20.7,17.0,79,12.58,53,5.9,295.7,332.1,298.0
977.4,353,20.7,17.0,79,12.55,53,5.8,295.7,332.0,298.0
976.9,358,20.6,17.0,80,12.55,53,5.8,295.7,332.0,297.9
976.3,363,20.6,17.0,80,12.59,53,5.7,295.7,332.1,298.0
975.8,368,20.5,17.1,81,12.67,54,5.7,295.7,332.3,298.0
975.2,373,20.5,17.2,81,12.73,54,5.7,295.7,332.5,298.0
974.7,378,20.4,17.2,82,12.75,54,5.7,295.7,332.6,298.0
974.1,383,20.4,17.2,82,12.75,55,5.6,295.7,332.6,298.0
973.6,388,20.3,17.1,82,12.73,55,5.6,295.7,332.5,298.0
973.0,393,20.3,17.1,82,12.74,55,5.6,295.7,332.5,298.0
972.4,398,20.2,17.1,83,12.74,55,5.6,295.7,332.5,298.0
971.8,403,20.1,17.1,83,12.73,56,5.6,295.7,332.5,298.0
971.3,408,20.1,17.0,83,12.68,56,5.5,295.7,332.4,297.9
970.7,413,20.1,17.0,83,12.65,56,5.5,295.7,332.3,297.9
970.2,418,20.0,17.0,83,12.63,57,5.5,295.7,332.2,297.9
969.6,423,20.0,16.9,83,12.62,57,5.5,295.7,332.2,297.9
969.1,427,19.9,16.9,83,12.62,57,5.5,295.7,332.2,297.9
968.6,432,19.9,16.9,83,12.61,57,5.5,295.7,332.1,297.9
968.0,437,19.8,16.9,83,12.60,58,5.5,295.7,332.1,297.9
967.4,442,19.8,16.9,83,12.58,58,5.5,295.7,332.1,297.9
966.9,447,19.7,16.8,83,12.56,58,5.5,295.7,332.0,297.9
966.3,452,19.7,16.8,84,12.55,58,5.5,295.7,332.0,297.9
965.8,457,19.6,16.8,83,12.52,59,5.5,295.7,331.9,297.9
965.3,462,19.6,16.7,84,12.52,59,5.5,295.7,331.9,297.9
964.7,467,19.5,16.8,84,12.54,59,5.6,295.7,332.0,297.9
964.2,471,19.5,16.8,84,12.56,59,5.6,295.7,332.0,297.9
963.7,476,19.4,16.8,85,12.56,59,5.6,295.7,332.0,297.9
963.2,480,19.4,16.7,85,12.52,59,5.6,295.7,331.9,297.9
962.8,484,19.4,16.7,84,12.49,59,5.6,295.7,331.8,297.9
962.3,488,19.3,16.6,84,12.47,59,5.6,295.7,331.7,297.9
961.8,492,19.3,16.6,85,12.46,58,5.6,295.7,331.7,297.9
961.4,497,19.3,16.6,85,12.44,58,5.6,295.7,331.7,297.9
960.9,501,19.2,16.6,85,12.42,58,5.6,295.7,331.6,297.9
960.4,505,19.2,16.5,85,12.41,57,5.6,295.7,331.6,297.9
959.9,510,19.1,16.4,84,12.34,56,5.6,295.7,331.4,297.9
959.4,514,19.1,16.3,83,12.20,56,5.6,295.8,331.1,297.9
958.9,519,19.1,16.1,83,12.10,55,5.6,295.8,330.8,297.9
958.4,523,19.1,16.1,83,12.08,54,5.6,295.8,330.8,298.0
958.0,527,19.1,16.1,83,12.06,54,5.6,295.8,330.7,298.0
957.5,531,19.0,16.0,83,12.03,53,5.6,295.8,330.6,298.0
957.1,535,19.0,16.0,83,12.00,52,5.6,295.8,330.6,297.9
956.6,539,19.0,15.9,83,11.97,51,5.5,295.8,330.5,298.0
956.2,543,18.9,15.8,82,11.91,50,5.5,295.8,330.3,298.0
955.8,546,18.9,15.8,82,11.87,50,5.5,295.9,330.2,298.0
955.5,550,18.9,15.8,82,11.88,49,5.5,295.9,330.2,298.0
955.1,553,18.8,15.8,82,11.89,48,5.5,295.8,330.3,298.0
954.7,557,18.8,15.8,83,11.91,48,5.5,295.8,330.3,298.0
954.3,560,18.8,15.8,83,11.93,47,5.5,295.8,330.4,298.0
953.9,563,18.7,15.9,83,11.96,47,5.5,295.8,330.5,298.0
953.5,567,18.7,15.9,84,12.00,47,5.5,295.8,330.6,298.0
953.1,571,18.6,16.0,84,12.05,47,5.5,295.8,330.7,298.0
952.7,575,18.6,16.0,85,12.11,47,5.5,295.8,330.8,297.9
952.3,579,18.5,16.1,85,12.14,47,5.5,295.8,330.9,297.9
951.8,583,18.5,16.0,85,12.12,47,5.5,295.8,330.9,297.9
951.4,587,18.5,15.9,85,12.05,48,5.5,295.8,330.7,297.9
950.9,591,18.5,15.8,85,11.99,49,5.5,295.8,330.5,298.0
950.5,595,18.4,15.9,85,12.00,49,5.5,295.8,330.6,298.0
950.0,599,18.4,16.0,86,12.09,50,5.5,295.8,330.8,298.0
949.5,604,18.3,16.0,86,12.14,51,5.5,295.8,330.9,298.0
949.0,608,18.3,16.0,86,12.12,52,5.4,295.8,330.9,298.0
948.4,613,18.2,15.9,86,12.05,53,5.5,295.8,330.7,298.0
947.9,618,18.2,15.7,85,11.92,54,5.5,295.8,330.3,298.0
947.4,623,18.2,15.5,84,11.79,55,5.5,295.9,330.0,298.0
946.8,628,18.2,15.5,84,11.74,56,5.5,295.9,329.9,298.0
946.3,633,18.1,15.5,84,11.75,57,5.5,295.9,329.9,298.0
945.8,637,18.1,15.4,84,11.72,59,5.5,295.9,329.9,298.0
945.3,642,18.0,15.3,84,11.67,60,5.6,295.9,329.7,298.0
944.7,647,18.0,15.3,84,11.67,61,5.6,295.9,329.7,298.0
944.2,652,18.0,15.3,85,11.68,61,5.6,295.9,329.8,298.0
943.7,656,17.9,15.3,85,11.64,62,5.6,295.9,329.7,298.0
943.2,660,17.9,15.2,84,11.59,63,5.6,295.9,329.5,298.0
942.8,665,17.9,15.1,84,11.54,64,5.7,296.0,329.4,298.0
942.3,669,17.8,15.1,84,11.50,64,5.7,296.0,329.3,298.0
941.8,673,17.8,15.0,84,11.46,65,5.7,296.0,329.2,298.0
941.4,677,17.8,14.9,83,11.41,65,5.7,296.0,329.1,298.0
940.9,682,17.8,14.8,83,11.35,66,5.8,296.0,329.0,298.1
940.5,686,17.8,14.8,83,11.33,66,5.8,296.1,328.9,298.1
940.0,690,17.7,14.8,83,11.34,66,5.8,296.1,329.0,298.1
939.5,694,17.7,14.9,83,11.38,67,5.8,296.1,329.1,298.1
939.1,698,17.7,14.9,84,11.40,67,5.8,296.1,329.2,298.1
938.6,703,17.6,14.9,84,11.40,67,5.8,296.1,329.2,298.1
938.1,707,17.6,14.9,84,11.40,67,5.9,296.1,329.2,298.1
937.7,711,17.6,14.8,84,11.38,67,5.9,296.1,329.1,298.1
937.2,715,17.5,14.7,84,11.32,67,5.9,296.1,329.0,298.1
936.7,720,17.5,14.7,83,11.26,67,5.9,296.2,328.8,298.2
936.3,724,17.5,14.6,83,11.22,67,5.9,296.2,328.7,298.2
935.8,728,17.5,14.5,83,11.19,67,5.9,296.2,328.7,298.2
935.3,733,17.5,14.5,83,11.15,67,5.9,296.2,328.6,298.2
934.9,737,17.4,14.4,82,11.09,67,5.9,296.2,328.4,298.2
934.4,741,17.4,14.3,82,11.02,67,6.0,296.2,328.2,298.2
934.0,745,17.4,14.2,81,10.94,67,6.0,296.3,328.1,298.2
933.5,749,17.4,14.1,81,10.89,67,6.0,296.3,327.9,298.2
933.1,753,17.3,14.0,81,10.86,67,6.0,296.3,327.9,298.2
932.7,757,17.3,14.1,81,10.87,66,6.1,296.3,327.9,298.2
932.2,761,17.3,14.1,81,10.88,66,6.1,296.3,327.9,298.2
931.8,765,17.2,14.0,81,10.85,66,6.1,296.3,327.8,298.2
931.4,769,17.2,13.9,81,10.78,66,6.2,296.3,327.7,298.2
930.9,773,17.2,13.8,80,10.71,66,6.2,296.3,327.5,298.2
930.4,778,17.2,13.7,80,10.67,66,6.3,296.4,327.4,298.3
929.9,782,17.1,13.7,80,10.65,66,6.3,296.4,327.4,298.3
929.4,787,17.1,13.7,80,10.63,66,6.4,296.4,327.3,298.3
928.9,791,17.1,13.7,80,10.65,66,6.4,296.4,327.4,298.3
928.4,796,17.1,13.7,81,10.70,66,6.5,296.5,327.6,298.4
927.8,802,17.1,13.8,81,10.78,66,6.5,296.5,327.9,298.4
927.2,807,17.0,13.9,82,10.82,66,6.5,296.5,328.0,298.4
926.6,813,17.0,13.9,82,10.84,66,6.6,296.5,328.0,298.4
926.0,818,16.9,13.9,82,10.82,66,6.6,296.5,328.0,298.4
925.3,824,16.9,13.8,82,10.76,66,6.6,296.5,327.8,298.4
925.0,828,16.9,13.7,82,10.71,66,6.6,296.5,327.7,298.4
924.7,830,16.8,13.6,81,10.66,66,6.6,296.5,327.6,298.5
924.0,836,16.8,13.5,81,10.58,66,6.7,296.6,327.4,298.5
923.4,842,16.8,13.4,81,10.54,66,6.7,296.6,327.3,298.5
922.8,848,16.7,13.4,81,10.53,66,6.6,296.6,327.3,298.5
922.2,853,16.7,13.4,81,10.52,66,6.6,296.6,327.3,298.5
921.6,859,16.7,13.4,81,10.52,66,6.6,296.7,327.3,298.5
921.1,864,16.6,13.4,81,10.51,67,6.6,296.7,327.3,298.5
920.5,869,16.6,13.4,81,10.53,67,6.6,296.7,327.4,298.6
920.0,874,16.6,13.4,82,10.55,67,6.5,296.7,327.4,298.6
919.4,879,16.5,13.4,82,10.57,67,6.5,296.7,327.5,298.6
918.8,885,16.5,13.4,82,10.58,67,6.4,296.7,327.5,298.6
918.3,890,16.4,13.4,82,10.58,67,6.4,296.7,327.5,298.6
917.7,895,16.4,13.4,82,10.56,67,6.4,296.7,327.5,298.6
917.2,900,16.3,13.2,82,10.48,67,6.3,296.7,327.3,298.6
916.6,905,16.3,13.0,81,10.35,67,6.3,296.8,326.9,298.6
916.1,910,16.3,12.8,80,10.19,67,6.3,296.8,326.5,298.6
915.6,915,16.3,12.6,78,10.04,67,6.2,296.8,326.1,298.6
915.1,920,16.3,12.4,78,9.94,67,6.2,296.9,325.9,298.7
914.6,924,16.3,12.4,78,9.92,67,6.2,296.9,325.9,298.7
914.1,929,16.3,12.4,78,9.94,67,6.2,296.9,326.0,298.7
913.6,933,16.2,12.4,78,9.97,67,6.2,297.0,326.1,298.7
913.1,938,16.2,12.4,78,9.98,67,6.2,297.0,326.1,298.8
912.7,942,16.2,12.4,78,9.98,66,6.2,297.0,326.1,298.8
912.2,947,16.2,12.4,78,9.95,66,6.2,297.0,326.1,298.8
911.7,951,16.1,12.3,78,9.93,66,6.2,297.0,326.0,298.8
911.2,956,16.1,12.3,78,9.89,65,6.3,297.0,326.0,298.8
910.7,960,16.1,12.2,78,9.86,65,6.3,297.1,325.9,298.8
910.2,965,16.1,12.2,78,9.85,64,6.4,297.1,325.9,298.9
909.7,970,16.1,12.2,78,9.88,64,6.4,297.1,326.0,298.9
909.1,975,16.0,12.3,78,9.91,63,6.4,297.2,326.1,298.9
908.5,981,16.0,12.3,79,9.94,63,6.5,297.2,326.3,299.0
907.9,986,16.0,12.3,79,9.96,62,6.5,297.2,326.3,299.0
907.3,992,15.9,12.3,79,9.95,62,6.5,297.2,326.3,299.0
906.7,998,15.9,12.3,79,9.94,61,6.6,297.2,326.3,299.0
906.0,1004,15.8,12.3,79,9.94,61,6.6,297.2,326.3,299.0
905.4,1010,15.8,12.2,79,9.91,60,6.6,297.2,326.2,299.0
904.8,1016,15.7,12.1,79,9.86,60,6.7,297.2,326.1,299.0
904.2,1021,15.7,12.1,79,9.83,59,6.7,297.2,326.0,299.0
903.7,1026,15.6,12.0,79,9.80,59,6.7,297.2,325.9,299.0
903.1,1031,15.6,12.0,79,9.80,58,6.7,297.3,326.0,299.0
902.6,1036,15.6,12.0,79,9.80,58,6.7,297.3,326.0,299.0
902.1,1041,15.5,12.0,79,9.80,57,6.7,297.3,326.0,299.1
901.6,1045,15.5,12.0,79,9.80,57,6.6,297.3,326.0,299.1
901.2,1050,15.5,12.0,80,9.80,57,6.6,297.3,326.0,299.1
900.7,1054,15.4,12.0,80,9.80,56,6.6,297.3,326.0,299.1
900.2,1059,15.4,12.0,80,9.81,56,6.6,297.4,326.1,299.1
899.7,1064,15.4,12.0,80,9.83,55,6.6,297.4,326.2,299.2
899.2,1069,15.4,12.0,80,9.84,55,6.6,297.4,326.2,299.2
898.6,1074,15.4,12.0,80,9.82,54,6.5,297.5,326.2,299.2
898.0,1080,15.3,11.9,80,9.80,54,6.5,297.5,326.2,299.2
897.4,1085,15.3,11.9,80,9.80,53,6.5,297.5,326.2,299.3
896.8,1091,15.3,11.9,80,9.81,53,6.5,297.6,326.3,299.3
896.2,1097,15.3,11.9,80,9.79,52,6.5,297.6,326.3,299.3
895.6,1103,15.2,11.8,80,9.77,52,6.5,297.6,326.3,299.4
895.0,1108,15.2,11.8,80,9.77,51,6.5,297.6,326.3,299.4
894.4,1114,15.1,11.8,80,9.76,51,6.6,297.6,326.2,299.4
893.9,1119,15.1,11.7,80,9.74,50,6.6,297.6,326.2,299.4
893.3,1124,15.1,11.7,80,9.72,50,6.6,297.6,326.1,299.4
892.8,1130,15.0,11.7,80,9.70,49,6.6,297.7,326.1,299.4
892.2,1135,15.0,11.6,80,9.66,49,6.7,297.7,326.0,299.4
891.7,1140,15.0,11.5,80,9.60,48,6.7,297.7,325.9,299.4
891.2,1145,14.9,11.4,79,9.52,48,6.7,297.7,325.7,299.4
890.6,1150,14.9,11.3,79,9.48,48,6.8,297.8,325.6,299.5
890.1,1155,14.9,11.2,79,9.45,47,6.8,297.8,325.5,299.5
889.6,1159,14.9,11.2,79,9.45,47,6.8,297.8,325.6,299.5
889.1,1164,14.9,11.3,79,9.48,47,6.8,297.9,325.7,299.6
888.6,1169,14.8,11.4,80,9.55,47,6.8,297.9,325.9,299.6
888.1,1174,14.8,11.5,80,9.62,47,6.8,297.9,326.1,299.6
887.6,1179,14.8,11.5,81,9.62,47,6.8,297.9,326.1,299.6
887.1,1183,14.7,11.3,80,9.55,47,6.8,297.9,325.9,299.6
886.6,1188,14.7,11.2,80,9.49,47,6.8,297.9,325.8,299.6
886.2,1193,14.7,11.2,80,9.46,47,6.8,297.9,325.7,299.6
885.7,1197,14.7,11.2,80,9.48,47,6.7,298.0,325.8,299.7
885.2,1202,14.6,11.2,80,9.51,48,6.7,298.0,325.9,299.7
884.7,1207,14.6,11.3,81,9.53,48,6.6,298.0,325.9,299.7
884.2,1211,14.5,11.2,81,9.52,48,6.5,298.0,325.9,299.7
883.7,1216,14.5,11.2,81,9.49,48,6.5,298.0,325.9,299.7
883.2,1221,14.5,11.2,81,9.47,48,6.4,298.0,325.8,299.7
882.8,1225,14.4,11.1,80,9.44,49,6.3,298.0,325.8,299.7
882.3,1229,14.4,11.0,80,9.37,49,6.2,298.1,325.6,299.7
881.9,1234,14.4,10.7,78,9.23,49,6.1,298.1,325.2,299.8
881.4,1238,14.5,10.5,77,9.07,49,6.1,298.2,324.9,299.8
881.0,1242,14.5,10.3,76,8.97,49,6.0,298.2,324.6,299.8
880.5,1247,14.5,10.3,76,8.95,49,5.9,298.3,324.7,299.9
880.0,1251,14.5,10.3,76,8.96,49,5.8,298.3,324.7,299.9
879.6,1256,14.5,10.3,76,8.98,48,5.7,298.3,324.8,300.0
879.1,1261,14.4,10.4,77,9.03,48,5.6,298.4,325.0,300.0
878.6,1265,14.4,10.5,77,9.08,48,5.5,298.4,325.1,300.0
878.1,1270,14.4,10.5,78,9.13,47,5.5,298.4,325.3,300.0
877.6,1275,14.3,10.6,78,9.19,47,5.4,298.4,325.5,300.1
877.1,1280,14.3,10.7,79,9.23,46,5.3,298.4,325.6,300.1
876.6,1284,14.3,10.6,79,9.22,45,5.3,298.4,325.6,300.1
876.1,1289,14.2,10.6,79,9.19,44,5.2,298.4,325.5,300.1
875.7,1293,14.2,10.6,79,9.19,43,5.2,298.4,325.5,300.1
875.2,1298,14.2,10.6,79,9.21,42,5.1,298.5,325.6,300.1
874.8,1302,14.1,10.6,79,9.22,41,5.1,298.5,325.6,300.1
874.3,1307,14.1,10.6,80,9.23,40,5.1,298.5,325.7,300.1
873.8,1311,14.1,10.6,80,9.23,39,5.0,298.5,325.7,300.2
873.3,1316,14.0,10.6,80,9.22,39,5.0,298.5,325.7,300.2
872.8,1321,14.0,10.5,79,9.19,38,5.0,298.6,325.7,300.2
872.4,1325,14.0,10.5,79,9.18,37,5.0,298.6,325.7,300.2
871.9,1330,14.0,10.5,79,9.17,36,5.0,298.6,325.7,300.3
871.4,1335,14.0,10.5,79,9.17,35,5.0,298.7,325.7,300.3
870.9,1340,14.0,10.5,79,9.18,34,5.0,298.7,325.8,300.3
870.4,1344,14.0,10.4,79,9.16,34,5.0,298.7,325.7,300.4
869.9,1349,13.9,10.4,79,9.14,33,5.0,298.7,325.7,300.4
869.4,1354,13.9,10.4,79,9.12,33,5.0,298.8,325.7,300.4
868.9,1359,13.9,10.3,79,9.11,32,5.0,298.8,325.7,300.4
868.4,1363,13.8,10.3,79,9.10,32,5.1,298.8,325.7,300.4
868.0,1368,13.8,10.3,79,9.10,32,5.1,298.8,325.7,300.4
867.5,1373,13.8,10.3,79,9.10,32,5.1,298.8,325.7,300.5
867.0,1378,13.8,10.3,80,9.10,32,5.1,298.9,325.7,300.5
866.5,1382,13.7,10.3,80,9.09,32,5.1,298.9,325.7,300.5
866.0,1387,13.7,10.2,79,9.07,32,5.1,298.9,325.7,300.5
865.5,1392,13.7,10.2,80,9.09,32,5.1,298.9,325.7,300.6
865.1,1396,13.6,10.3,80,9.10,33,5.1,298.9,325.8,300.6
864.6,1401,13.6,10.3,80,9.11,33,5.0,298.9,325.8,300.6
864.1,1406,13.5,10.2,80,9.11,33,5.0,298.9,325.8,300.5
863.6,1410,13.5,10.2,80,9.08,34,5.0,298.9,325.7,300.6
863.2,1415,13.5,10.1,80,9.06,34,5.0,298.9,325.7,300.5
862.7,1419,13.4,10.1,80,9.04,35,5.0,298.9,325.6,300.6
862.3,1424,13.4,10.1,80,9.02,35,5.0,299.0,325.6,300.6
861.8,1428,13.4,10.0,80,9.00,36,5.0,299.0,325.6,300.6
861.4,1432,13.4,10.0,80,8.99,36,4.9,299.1,325.6,300.7
861.0,1436,13.4,10.0,80,8.99,37,4.9,299.1,325.7,300.7
860.6,1440,13.4,10.0,80,9.01,37,4.9,299.1,325.7,300.7
860.2,1444,13.3,10.0,80,9.03,38,4.9,299.1,325.8,300.7
859.7,1449,13.3,10.0,81,9.03,38,4.9,299.1,325.8,300.7
859.2,1453,13.3,10.0,81,9.03,38,4.9,299.1,325.8,300.7
858.8,1458,13.2,10.0,81,9.03,39,4.9,299.1,325.8,300.7
858.3,1462,13.2,10.0,81,9.02,39,4.9,299.1,325.8,300.7
857.8,1467,13.1,10.0,81,9.00,39,4.9,299.1,325.7,300.7
857.3,1472,13.1,9.9,81,8.95,39,4.9,299.1,325.6,300.7
856.9,1477,13.1,9.8,80,8.90,40,4.9,299.1,325.5,300.7
856.4,1481,13.1,9.8,80,8.89,40,5.0,299.2,325.5,300.8
855.9,1486,13.0,9.8,81,8.89,40,5.0,299.2,325.5,300.8
855.5,1490,13.0,9.7,81,8.89,40,5.0,299.2,325.5,300.8
855.1,1494,13.0,9.7,81,8.88,39,5.0,299.2,325.5,300.8
854.7,1498,12.9,9.7,81,8.87,39,5.0,299.2,325.4,300.8
854.4,1501,12.9,9.7,81,8.88,39,5.1,299.2,325.5,300.8
854.0,1505,12.9,9.8,81,8.91,39,5.1,299.2,325.6,300.8
853.6,1509,12.9,9.8,82,8.97,39,5.1,299.3,325.8,300.9
853.2,1513,12.8,10.0,83,9.06,38,5.2,299.3,326.0,300.9
852.8,1517,12.8,10.1,84,9.13,38,5.2,299.3,326.3,300.9
852.4,1521,12.8,10.2,84,9.18,38,5.2,299.3,326.4,300.9
851.9,1525,12.7,10.2,85,9.21,38,5.3,299.3,326.5,300.9
851.5,1530,12.7,10.2,85,9.24,37,5.3,299.3,326.6,300.9
851.0,1535,12.7,10.3,85,9.27,37,5.3,299.3,326.7,301.0
850.5,1539,12.6,10.3,86,9.32,36,5.3,299.3,326.8,301.0
850.1,1544,12.6,10.3,86,9.32,36,5.4,299.3,326.8,301.0
850.0,1544,12.6,10.3,86,9.31,35,5.4,299.3,326.8,301.0
849.6,1548,12.6,10.2,86,9.26,35,5.4,299.3,326.7,301.0
849.2,1553,12.5,10.1,85,9.16,35,5.4,299.3,326.4,301.0
848.7,1557,12.5,9.9,84,9.07,34,5.4,299.4,326.2,301.0
848.3,1561,12.5,9.8,84,9.03,33,5.4,299.4,326.2,301.1
847.9,1565,12.5,9.8,83,9.00,33,5.4,299.5,326.1,301.1
847.4,1570,12.5,9.7,83,8.94,32,5.4,299.5,326.0,301.1
847.0,1574,12.5,9.6,82,8.87,31,5.4,299.5,325.8,301.1
846.6,1578,12.5,9.5,82,8.81,30,5.3,299.5,325.7,301.1
846.1,1583,12.5,9.4,82,8.78,29,5.3,299.6,325.6,301.2
845.6,1588,12.4,9.4,82,8.76,28,5.3,299.6,325.6,301.2
845.1,1593,12.4,9.4,82,8.77,27,5.3,299.6,325.6,301.2
844.5,1599,12.4,9.4,82,8.79,26,5.3,299.6,325.7,301.2
844.0,1604,12.3,9.4,82,8.83,25,5.2,299.7,325.8,301.2
843.4,1610,12.3,9.5,83,8.85,24,5.2,299.7,325.9,301.3
842.9,1615,12.2,9.5,83,8.86,22,5.2,299.7,325.9,301.3
842.3,1621,12.2,9.5,84,8.89,21,5.2,299.7,326.0,301.3
841.8,1626,12.2,9.6,85,8.97,20,5.1,299.7,326.3,301.3
841.3,1631,12.1,9.7,85,9.01,19,5.1,299.7,326.4,301.3
840.7,1636,12.1,9.7,85,9.03,18,5.1,299.7,326.5,301.3
840.2,1642,12.0,9.6,85,8.98,17,5.1,299.7,326.3,301.3
839.7,1646,12.0,9.5,84,8.89,16,5.0,299.7,326.1,301.3
839.2,1651,12.0,9.2,83,8.76,15,5.0,299.8,325.8,301.4
838.7,1656,12.0,9.1,83,8.69,14,5.0,299.8,325.6,301.4
838.3,1661,11.9,9.1,83,8.66,13,4.9,299.8,325.5,301.4
837.8,1666,11.9,9.0,83,8.64,13,4.9,299.8,325.5,301.4
837.3,1671,11.9,9.0,82,8.61,12,4.8,299.8,325.4,301.4
836.8,1676,11.8,8.8,82,8.55,11,4.8,299.9,325.3,301.4
836.3,1681,11.8,8.7,81,8.45,11,4.8,299.9,325.0,301.4
835.8,1686,11.8,8.5,80,8.37,11,4.7,300.0,324.8,301.5
835.3,1691,11.8,8.4,80,8.32,10,4.7,300.0,324.8,301.5
834.8,1696,11.8,8.4,79,8.31,10,4.6,300.1,324.8,301.6
834.3,1701,11.8,8.4,79,8.31,10,4.5,300.1,324.8,301.6
833.9,1705,11.8,8.4,79,8.30,10,4.5,300.1,324.8,301.6
833.4,1710,11.8,8.4,80,8.30,10,4.4,300.1,324.9,301.7
832.9,1715,11.8,8.3,80,8.30,10,4.4,300.2,324.9,301.7
832.4,1720,11.8,8.3,79,8.30,10,4.3,300.2,325.0,301.7
832.0,1724,11.8,8.3,79,8.30,11,4.2,300.3,325.0,301.8
831.5,1729,11.7,8.3,80,8.31,11,4.2,300.3,325.0,301.8
831.0,1734,11.7,8.3,80,8.32,11,4.1,300.3,325.1,301.8
830.5,1739,11.7,8.3,80,8.31,12,4.1,300.4,325.1,301.9
830.0,1744,11.6,8.3,80,8.30,12,4.0,300.4,325.1,301.9
829.5,1749,11.6,8.3,80,8.29,13,4.0,300.3,325.0,301.8
829.0,1754,11.5,8.3,80,8.29,14,3.9,300.3,325.0,301.9
828.5,1759,11.5,8.2,80,8.27,14,3.9,300.4,325.0,301.9
828.1,1764,11.5,8.2,80,8.24,15,3.8,300.4,324.9,301.9
827.6,1769,11.4,8.1,80,8.23,16,3.8,300.4,324.9,301.9
827.1,1774,11.4,8.1,81,8.25,17,3.8,300.4,325.0,301.9
826.6,1779,11.3,8.2,81,8.28,18,3.8,300.4,325.0,301.9
826.1,1784,11.3,8.2,82,8.31,19,3.8,300.4,325.1,301.9
825.6,1789,11.2,8.3,82,8.33,20,3.8,300.4,325.2,301.9
825.1,1794,11.1,8.3,82,8.34,22,3.8,300.3,325.2,301.9
824.6,1799,11.1,8.3,83,8.36,23,3.8,300.3,325.2,301.8
824.1,1804,11.0,8.3,83,8.36,24,3.8,300.3,325.2,301.8
823.6,1809,11.0,8.2,83,8.33,25,3.8,300.3,325.1,301.8
823.1,1814,10.9,8.2,83,8.31,27,3.9,300.3,325.1,301.8
