PRES,HGHT,TEMP,DWPT,RELH,MIXR,DRCT,SPED,THTA,THTE,THTV
1014.2,31,25.4,23.1,87,17.81,80,5.2,297.3,349.1,300.5
1013.7,35,25.4,23.2,88,17.96,89,4.1,297.4,349.6,300.6
1013.2,39,25.5,23.2,87,17.91,92,4.1,297.5,349.6,300.7
1012.5,45,25.5,23.1,87,17.81,93,4.3,297.6,349.4,300.7
1011.7,52,25.5,22.8,85,17.56,93,4.6,297.6,348.7,300.8
1011.1,57,25.5,22.6,84,17.28,93,5.0,297.7,348.0,300.8
1010.5,63,25.5,22.3,83,17.04,92,5.3,297.7,347.3,300.8
1009.8,69,25.4,22.2,82,16.88,92,5.6,297.7,346.9,300.7
1009.2,75,25.4,22.1,82,16.80,92,5.8,297.7,346.6,300.7
1008.5,80,25.3,22.0,82,16.76,92,6.1,297.7,346.5,300.7
1007.9,85,25.3,22.0,82,16.74,92,6.3,297.7,346.5,300.7
1007.4,90,25.2,22.0,82,16.72,91,6.6,297.7,346.4,300.7
1006.8,95,25.2,22.0,82,16.72,91,6.8,297.7,346.4,300.7
1006.2,100,25.1,22.0,83,16.72,91,7.0,297.7,346.4,300.7
1005.7,105,25.1,21.9,83,16.72,90,7.2,297.7,346.4,300.7
1005.2,109,25.0,21.9,83,16.72,90,7.4,297.7,346.4,300.7
1004.6,114,25.0,21.9,83,16.73,90,7.6,297.7,346.4,300.7
1004.1,119,24.9,22.0,84,16.76,89,7.7,297.7,346.5,300.7
1003.6,123,24.9,22.0,84,16.79,89,7.9,297.7,346.6,300.7
1003.1,128,24.8,22.0,84,16.79,89,8.0,297.7,346.6,300.7
1002.5,133,24.8,22.0,84,16.79,88,8.1,297.7,346.6,300.7
1002.0,137,24.8,22.0,84,16.80,88,8.3,297.7,346.6,300.7
1001.5,142,24.7,21.9,85,16.79,87,8.4,297.7,346.6,300.7
1000.9,147,24.7,21.9,85,16.79,87,8.5,297.7,346.6,300.7
1000.4,151,24.6,21.9,85,16.80,86,8.6,297.7,346.6,300.7
1000.0,155,24.6,22.0,85,16.83,86,8.6,297.7,346.7,300.7
999.9,156,24.6,22.0,85,16.83,86,8.7,297.7,346.7,300.7
999.3,161,24.5,22.0,86,16.86,86,8.7,297.7,346.8,300.7
998.7,166,24.5,22.0,86,16.86,85,8.8,297.7,346.8,300.7
998.2,171,24.4,21.9,86,16.83,85,8.9,297.7,346.7,300.7
997.6,176,24.4,21.9,86,16.81,84,9.0,297.7,346.7,300.7
997.0,181,24.3,21.9,86,16.79,84,9.0,297.7,346.6,300.7
996.5,186,24.3,21.8,86,16.75,84,9.1,297.7,346.5,300.7
995.9,191,24.2,21.8,86,16.72,83,9.1,297.7,346.4,300.7
995.4,196,24.2,21.8,86,16.74,83,9.2,297.7,346.5,300.7
994.8,201,24.2,21.9,87,16.84,83,9.2,297.8,346.8,300.7
994.2,206,24.1,21.9,88,16.90,83,9.3,297.8,346.9,300.8
993.6,212,24.1,21.9,88,16.92,83,9.3,297.8,347.0,300.8
993.0,217,24.0,21.9,88,16.93,83,9.4,297.8,347.0,300.8
992.4,222,24.0,21.9,88,16.91,83,9.4,297.7,347.0,300.8
991.8,227,23.9,21.8,88,16.86,83,9.4,297.7,346.8,300.7
991.2,232,23.9,21.8,88,16.84,83,9.4,297.8,346.8,300.7
990.7,237,23.8,21.9,89,16.89,84,9.5,297.8,346.9,300.8
990.1,242,23.8,21.9,89,16.96,84,9.5,297.8,347.1,300.8
989.6,247,23.7,21.9,90,17.00,84,9.5,297.8,347.3,300.8
989.1,251,23.7,21.9,90,17.01,84,9.5,297.8,347.3,300.8
988.6,256,23.7,21.9,90,16.99,85,9.5,297.8,347.2,300.8
988.1,260,23.6,21.9,90,16.96,85,9.5,297.8,347.2,300.8
987.6,265,23.6,21.9,90,16.94,86,9.5,297.8,347.1,300.8
987.0,270,23.5,21.8,90,16.93,86,9.5,297.8,347.1,300.8
986.5,275,23.5,21.8,90,16.91,87,9.5,297.8,347.0,300.8
985.9,280,23.4,21.8,90,16.88,87,9.5,297.8,346.9,300.8
985.3,285,23.4,21.7,90,16.84,87,9.5,297.8,346.8,300.8
984.7,290,23.3,21.7,91,16.85,88,9.5,297.8,346.8,300.8
984.1,296,23.3,21.8,91,16.91,88,9.5,297.8,347.0,300.8
983.5,301,23.2,21.8,92,16.92,88,9.5,297.8,347.0,300.8
982.9,306,23.2,21.7,92,16.90,88,9.5,297.8,347.0,300.8
982.3,312,23.1,21.7,92,16.88,89,9.5,297.8,346.9,300.8
981.7,317,23.1,21.7,92,16.86,89,9.5,297.8,346.9,300.8
981.2,322,23.0,21.7,92,16.84,89,9.5,297.8,346.8,300.8
980.6,327,23.0,21.6,92,16.80,89,9.5,297.8,346.7,300.8
980.0,332,22.9,21.6,92,16.76,89,9.6,297.8,346.6,300.8
979.5,337,22.9,21.5,92,16.73,89,9.6,297.8,346.5,300.8
978.9,342,22.8,21.5,92,16.74,88,9.6,297.8,346.5,300.8
978.4,347,22.8,21.5,93,16.75,88,9.6,297.8,346.5,300.8
977.8,352,22.7,21.5,93,16.75,88,9.6,297.8,346.6,300.8
977.3,357,22.7,21.6,93,16.80,88,9.7,297.8,346.7,300.8
976.7,362,22.6,21.6,94,16.88,88,9.7,297.8,346.9,300.8
976.1,367,22.6,21.6,94,16.89,87,9.7,297.8,347.0,300.8
975.6,372,22.5,21.5,94,16.81,87,9.7,297.8,346.7,300.8
975.0,377,22.5,21.4,94,16.72,87,9.8,297.8,346.5,300.8
974.5,382,22.5,21.4,94,16.66,86,9.8,297.8,346.3,300.8
973.9,387,22.4,21.4,94,16.66,86,9.8,297.8,346.3,300.8
973.3,392,22.4,21.4,94,16.69,86,9.9,297.8,346.4,300.8
972.8,397,22.3,21.4,94,16.70,86,9.9,297.8,346.4,300.8
972.2,403,22.3,21.4,95,16.70,86,9.9,297.8,346.4,300.8
971.5,408,22.2,21.4,95,16.73,85,10.0,297.8,346.5,300.8
970.9,413,22.2,21.4,96,16.76,85,10.0,297.8,346.6,300.8
970.3,419,22.1,21.4,96,16.78,85,10.0,297.8,346.6,300.8
969.7,424,22.0,21.4,96,16.77,85,10.1,297.8,346.6,300.8
969.1,430,22.0,21.4,96,16.74,85,10.1,297.8,346.5,300.8
968.6,435,21.9,21.3,96,16.71,85,10.1,297.8,346.4,300.8
968.0,440,21.9,21.3,96,16.69,85,10.2,297.8,346.4,300.8
967.4,445,21.9,21.3,97,16.71,85,10.2,297.8,346.4,300.8
966.9,450,21.8,21.3,97,16.73,85,10.2,297.8,346.5,300.8
966.3,455,21.8,21.3,97,16.74,85,10.3,297.8,346.5,300.8
965.7,461,21.7,21.3,97,16.73,85,10.3,297.8,346.5,300.8
965.2,466,21.7,21.3,98,16.70,85,10.4,297.8,346.4,300.8
964.6,471,21.6,21.2,98,16.69,85,10.4,297.8,346.4,300.8
964.0,476,21.6,21.2,98,16.68,85,10.5,297.8,346.4,300.8
963.5,480,21.5,21.2,98,16.68,85,10.5,297.8,346.4,300.8
963.0,485,21.5,21.2,98,16.69,85,10.6,297.8,346.4,300.8
962.5,490,21.4,21.2,99,16.70,86,10.6,297.8,346.4,300.8
961.9,495,21.4,21.2,99,16.72,86,10.7,297.8,346.5,300.8
961.4,499,21.3,21.2,99,16.73,86,10.7,297.8,346.5,300.8
960.9,504,21.3,21.2,99,16.71,86,10.8,297.8,346.4,300.8
960.4,509,21.3,21.2,99,16.69,86,10.8,297.8,346.4,300.8
959.9,514,21.2,21.2,99,16.69,87,10.9,297.9,346.4,300.8
959.3,518,21.2,21.1,100,16.69,87,11.0,297.9,346.5,300.8
958.8,523,21.2,21.1,100,16.67,87,11.0,297.9,346.4,300.8
958.2,528,21.1,21.1,100,16.65,87,11.1,297.9,346.4,300.9
957.6,534,21.1,21.1,100,16.65,88,11.1,297.9,346.4,300.9
957.1,539,21.1,21.1,100,16.65,88,11.2,298.0,346.4,300.9
956.5,544,21.1,21.0,100,16.62,88,11.3,298.0,346.4,300.9
955.9,549,21.0,21.0,100,16.56,89,11.3,298.0,346.2,300.9
955.4,554,21.0,20.9,100,16.54,89,11.4,298.0,346.2,301.0
954.8,559,21.0,20.9,100,16.52,89,11.5,298.0,346.2,301.0
954.2,564,20.9,20.8,100,16.46,89,11.6,298.0,346.0,301.0
953.7,570,20.9,20.8,99,16.38,90,11.6,298.0,345.8,300.9
953.1,575,20.9,20.7,99,16.30,90,11.7,298.1,345.6,301.0
952.6,580,20.9,20.5,98,16.15,90,11.8,298.1,345.2,301.0
952.0,585,20.8,20.3,97,15.97,91,11.8,298.1,344.7,301.0
951.5,590,20.8,20.2,97,15.88,91,11.9,298.1,344.4,301.0
950.9,595,20.8,20.2,96,15.82,91,12.0,298.2,344.3,301.0
950.4,600,20.8,20.1,96,15.77,91,12.1,298.2,344.2,301.0
949.9,605,20.8,20.1,96,15.74,92,12.1,298.2,344.1,301.1
949.3,609,20.7,20.1,96,15.75,92,12.2,298.3,344.2,301.1
948.8,614,20.7,20.1,96,15.77,92,12.3,298.3,344.3,301.1
948.2,619,20.7,20.1,96,15.78,92,12.3,298.3,344.3,301.1
947.7,624,20.6,20.0,96,15.75,92,12.4,298.3,344.3,301.1
947.1,629,20.6,20.0,96,15.71,92,12.5,298.3,344.2,301.1
946.6,634,20.5,19.9,96,15.66,92,12.5,298.3,344.0,301.1
946.0,640,20.5,19.8,96,15.59,92,12.6,298.4,343.9,301.1
945.5,645,20.5,19.7,95,15.50,92,12.6,298.4,343.6,301.2
944.9,650,20.5,19.6,95,15.42,92,12.7,298.5,343.5,301.2
944.3,655,20.6,19.6,94,15.37,92,12.7,298.5,343.4,301.3
943.8,661,20.5,19.5,94,15.33,92,12.7,298.6,343.3,301.3
943.2,666,20.5,19.5,94,15.29,92,12.8,298.6,343.3,301.3
942.6,671,20.5,19.4,93,15.26,92,12.8,298.7,343.3,301.4
942.0,676,20.5,19.4,93,15.24,92,12.8,298.7,343.3,301.5
941.5,681,20.5,19.4,93,15.21,92,12.9,298.8,343.2,301.5
940.9,687,20.5,19.3,93,15.17,92,12.9,298.8,343.2,301.5
940.4,692,20.5,19.3,93,15.12,92,12.9,298.8,343.0,301.5
939.8,697,20.4,19.2,93,15.09,92,12.9,298.8,343.0,301.5
939.3,702,20.4,19.2,93,15.07,92,12.9,298.8,342.9,301.5
938.7,707,20.4,19.2,93,15.05,91,13.0,298.9,342.9,301.6
938.2,712,20.3,19.1,93,15.03,91,13.0,298.9,342.8,301.6
937.6,717,20.3,19.1,93,15.02,91,13.0,298.9,342.9,301.6
937.1,722,20.3,19.1,93,14.99,91,13.0,298.9,342.8,301.6
936.5,727,20.2,19.0,93,14.95,91,13.0,298.9,342.7,301.6
936.0,732,20.2,19.0,93,14.91,91,13.0,298.9,342.6,301.6
935.5,737,20.2,19.0,93,14.90,91,13.0,298.9,342.5,301.6
935.0,741,20.1,19.0,93,14.92,91,13.0,298.9,342.6,301.6
934.5,746,20.1,19.0,93,14.93,91,13.0,299.0,342.6,301.6
934.0,750,20.1,18.9,93,14.92,91,13.0,299.0,342.6,301.6
933.5,755,20.0,18.9,93,14.90,91,13.1,299.0,342.6,301.7
933.0,760,20.0,18.9,93,14.88,92,13.1,299.0,342.6,301.7
932.5,764,20.0,18.9,93,14.87,92,13.1,299.0,342.5,301.7
932.0,769,19.9,18.8,93,14.86,92,13.1,299.0,342.5,301.7
931.4,774,19.9,18.8,94,14.87,92,13.1,299.1,342.6,301.7
930.9,779,19.9,18.8,94,14.85,92,13.1,299.1,342.5,301.7
930.3,785,19.8,18.8,94,14.83,92,13.1,299.1,342.5,301.7
929.7,790,19.8,18.7,94,14.79,92,13.1,299.1,342.4,301.7
929.1,796,19.8,18.7,94,14.76,92,13.1,299.1,342.3,301.8
928.5,801,19.7,18.7,94,14.74,92,13.1,299.1,342.3,301.8
927.9,807,19.7,18.7,94,14.74,92,13.1,299.1,342.3,301.8
927.3,813,19.6,18.7,94,14.77,92,13.1,299.2,342.4,301.8
926.7,818,19.6,18.7,94,14.78,92,13.1,299.2,342.5,301.8
926.2,823,19.6,18.6,94,14.75,92,13.0,299.2,342.4,301.8
925.6,828,19.5,18.6,95,14.76,92,13.0,299.2,342.5,301.9
925.1,833,19.5,18.7,95,14.80,93,13.0,299.2,342.6,301.9
925.0,834,19.5,18.7,95,14.80,93,13.0,299.2,342.6,301.9
924.6,838,19.5,18.7,95,14.83,93,13.0,299.2,342.7,301.9
924.0,843,19.4,18.7,95,14.84,93,12.9,299.3,342.8,301.9
923.5,848,19.4,18.7,96,14.85,93,12.9,299.3,342.8,301.9
922.9,854,19.3,18.7,96,14.83,93,12.9,299.3,342.7,301.9
922.4,859,19.3,18.6,96,14.79,93,12.8,299.3,342.6,301.9
921.8,864,19.2,18.6,96,14.76,93,12.8,299.3,342.5,301.9
921.3,869,19.2,18.5,96,14.74,93,12.8,299.3,342.5,301.9
920.8,874,19.2,18.5,96,14.73,94,12.7,299.3,342.4,301.9
920.3,879,19.1,18.5,96,14.71,94,12.7,299.3,342.4,301.9
919.7,884,19.1,18.5,96,14.69,94,12.6,299.3,342.4,302.0
919.2,888,19.1,18.4,96,14.67,94,12.6,299.3,342.3,302.0
918.7,893,19.0,18.4,96,14.65,94,12.5,299.3,342.3,302.0
918.2,898,19.0,18.4,96,14.66,94,12.5,299.3,342.3,302.0
917.6,904,18.9,18.4,97,14.68,94,12.5,299.4,342.4,302.0
917.0,909,18.9,18.4,97,14.71,95,12.4,299.4,342.5,302.0
916.4,915,18.9,18.4,97,14.73,95,12.4,299.4,342.6,302.0
915.9,920,18.8,18.4,98,14.73,95,12.4,299.4,342.6,302.0
915.3,926,18.8,18.4,98,14.70,95,12.3,299.4,342.5,302.0
914.7,931,18.7,18.3,98,14.67,95,12.3,299.4,342.4,302.0
914.2,936,18.7,18.3,98,14.65,96,12.3,299.4,342.3,302.0
913.6,941,18.6,18.3,98,14.64,96,12.3,299.4,342.3,302.0
913.1,946,18.6,18.3,98,14.63,96,12.3,299.4,342.3,302.1
912.6,951,18.6,18.2,98,14.61,96,12.2,299.4,342.3,302.1
912.1,956,18.5,18.2,98,14.57,96,12.2,299.4,342.2,302.1
911.5,961,18.5,18.1,98,14.53,97,12.2,299.5,342.1,302.1
911.0,966,18.5,18.2,98,14.56,97,12.2,299.5,342.2,302.1
910.4,971,18.5,18.3,99,14.69,97,12.2,299.5,342.6,302.2
909.8,977,18.5,18.4,100,14.81,97,12.2,299.6,343.1,302.3
909.3,982,18.5,18.5,100,14.87,97,12.2,299.6,343.3,302.3
908.7,988,18.5,18.5,100,14.87,97,12.2,299.7,343.3,302.4
908.1,993,18.5,18.4,100,14.84,97,12.2,299.8,343.3,302.4
907.5,999,18.5,18.3,99,14.78,97,12.2,299.8,343.2,302.5
907.0,1004,18.4,18.3,99,14.73,97,12.2,299.8,343.1,302.5
906.5,1008,18.4,18.2,99,14.63,97,12.2,299.8,342.8,302.4
906.0,1013,18.3,18.1,99,14.55,97,12.2,299.8,342.5,302.4
905.5,1018,18.2,18.0,99,14.51,97,12.2,299.8,342.4,302.4
905.0,1022,18.2,17.9,98,14.43,97,12.2,299.8,342.1,302.4
904.6,1027,18.2,17.8,98,14.33,96,12.2,299.8,341.9,302.3
904.1,1031,18.2,17.6,97,14.19,96,12.2,299.8,341.5,302.4
903.6,1036,18.2,17.5,95,14.02,96,12.2,299.9,341.1,302.4
903.2,1040,18.3,17.3,94,13.86,96,12.2,300.0,340.8,302.5
902.7,1045,18.4,17.1,93,13.76,96,12.2,300.2,340.7,302.6
902.2,1049,18.4,17.1,92,13.76,95,12.1,300.3,340.8,302.7
901.7,1054,18.4,17.2,92,13.79,95,12.1,300.3,340.9,302.8
901.3,1058,18.4,17.2,93,13.83,95,12.1,300.3,341.1,302.8
900.8,1063,18.4,17.2,93,13.86,94,12.1,300.4,341.2,302.9
900.3,1068,18.4,17.2,93,13.85,94,12.1,300.4,341.2,302.9
899.8,1073,18.3,17.1,93,13.80,94,12.1,300.4,341.1,302.9
899.3,1077,18.3,17.1,92,13.74,93,12.0,300.5,341.0,302.9
898.8,1082,18.4,17.0,92,13.68,93,12.0,300.5,340.9,303.0
898.3,1087,18.4,16.9,91,13.64,93,12.0,300.6,340.8,303.0
897.8,1091,18.4,16.9,91,13.62,92,12.0,300.6,340.8,303.1
897.3,1096,18.3,16.9,91,13.60,92,11.9,300.6,340.8,303.1
896.9,1100,18.3,16.8,91,13.58,92,11.9,300.7,340.7,303.1
896.4,1105,18.3,16.8,91,13.57,92,11.9,300.7,340.7,303.1
895.9,1110,18.2,16.8,91,13.58,91,11.8,300.7,340.7,303.1
895.4,1114,18.2,16.8,92,13.60,91,11.8,300.7,340.8,303.1
894.9,1119,18.2,16.8,92,13.61,91,11.7,300.7,340.9,303.2
894.4,1124,18.1,16.9,92,13.66,91,11.7,300.7,341.0,303.2
893.9,1129,18.1,16.9,93,13.68,90,11.6,300.7,341.1,303.2
893.5,1133,18.1,16.9,93,13.69,90,11.6,300.7,341.1,303.2
893.0,1138,18.0,16.9,93,13.70,90,11.5,300.7,341.1,303.2
892.5,1142,18.0,16.9,93,13.69,90,11.5,300.7,341.1,303.2
892.1,1147,17.9,16.9,93,13.67,90,11.4,300.7,341.1,303.2
891.6,1151,17.9,16.9,94,13.70,90,11.4,300.7,341.2,303.2
891.2,1155,17.9,16.9,94,13.75,89,11.3,300.7,341.3,303.2
890.7,1159,17.8,17.0,95,13.84,89,11.2,300.8,341.6,303.3
890.3,1164,17.8,17.1,96,13.92,89,11.2,300.8,341.8,303.3
889.8,1168,17.8,17.1,96,13.96,89,11.1,300.8,342.0,303.3
889.4,1172,17.7,17.1,96,13.97,89,11.1,300.8,342.0,303.3
888.9,1177,17.7,17.1,96,13.95,89,11.0,300.8,341.9,303.3
888.5,1181,17.6,17.1,97,13.93,89,10.9,300.8,341.9,303.3
888.0,1186,17.6,17.1,97,13.94,89,10.9,300.8,341.9,303.3
887.5,1190,17.6,17.1,97,13.98,89,10.8,300.8,342.1,303.3
887.1,1195,17.5,17.1,98,14.01,89,10.8,300.8,342.1,303.3
886.6,1199,17.5,17.1,98,13.97,89,10.8,300.8,342.0,303.3
886.1,1204,17.5,17.0,97,13.88,89,10.7,300.8,341.8,303.3
885.6,1209,17.5,16.8,96,13.76,89,10.7,300.9,341.5,303.4
885.1,1213,17.5,16.7,95,13.68,90,10.6,301.0,341.4,303.4
884.7,1218,17.5,16.7,95,13.63,90,10.6,301.0,341.3,303.5
884.2,1223,17.5,16.7,95,13.63,90,10.6,301.0,341.3,303.5
883.7,1228,17.5,16.7,95,13.66,90,10.6,301.0,341.4,303.5
883.2,1232,17.4,16.7,96,13.71,90,10.5,301.1,341.6,303.5
882.7,1237,17.4,16.8,96,13.77,90,10.5,301.1,341.8,303.6
882.2,1242,17.3,16.9,97,13.82,90,10.5,301.1,341.9,303.6
881.8,1246,17.3,16.9,97,13.86,90,10.5,301.1,342.0,303.6
881.3,1251,17.2,16.9,98,13.88,90,10.5,301.1,342.1,303.6
880.8,1256,17.2,16.9,98,13.89,90,10.5,301.1,342.1,303.6
880.3,1260,17.2,16.9,98,13.85,90,10.5,301.1,342.0,303.6
879.9,1265,17.1,16.8,98,13.79,90,10.5,301.1,341.8,303.6
879.4,1269,17.1,16.7,98,13.76,90,10.5,301.1,341.8,303.6
878.9,1274,17.1,16.7,98,13.78,90,10.5,301.1,341.8,303.6
878.4,1279,17.0,16.8,98,13.82,90,10.6,301.1,342.0,303.6
877.9,1283,17.0,16.8,99,13.87,90,10.6,301.1,342.1,303.6
877.5,1288,17.0,16.9,99,13.91,90,10.6,301.2,342.3,303.7
877.0,1293,17.0,16.9,100,13.95,90,10.6,301.2,342.4,303.7
876.5,1297,17.0,17.0,100,14.01,90,10.7,301.3,342.7,303.8
876.1,1302,17.0,17.0,100,14.07,89,10.7,301.3,342.9,303.9
875.6,1306,17.0,17.0,100,14.09,89,10.8,301.4,343.1,304.0
875.1,1311,17.0,17.0,100,14.06,89,10.8,301.4,343.0,303.9
874.6,1316,16.9,16.9,100,14.01,89,10.8,301.4,342.8,303.9
874.1,1321,16.9,16.9,100,13.98,89,10.9,301.4,342.8,303.9
873.6,1326,16.9,16.9,100,13.96,89,11.0,301.4,342.7,303.9
873.1,1331,16.8,16.8,100,13.93,89,11.0,301.5,342.7,304.0
872.6,1335,16.8,16.7,99,13.81,89,11.1,301.5,342.3,303.9
872.1,1340,16.7,16.5,98,13.63,88,11.1,301.4,341.8,303.9
871.7,1345,16.7,16.2,97,13.45,88,11.2,301.4,341.2,303.8
871.2,1349,16.6,16.1,97,13.33,88,11.3,301.4,340.9,303.8
870.7,1354,16.6,16.0,96,13.27,88,11.4,301.5,340.7,303.9
870.3,1359,16.6,16.0,97,13.29,88,11.4,301.5,340.8,303.9
869.8,1363,16.6,16.1,97,13.32,88,11.5,301.5,340.9,303.9
869.3,1368,16.5,16.1,97,13.34,88,11.6,301.5,341.0,303.9
868.9,1372,16.5,16.1,97,13.34,88,11.7,301.5,341.0,303.9
868.4,1377,16.4,16.0,97,13.31,88,11.7,301.5,340.9,303.9
867.9,1382,16.4,16.0,97,13.26,88,11.8,301.5,340.8,303.9
867.4,1386,16.4,15.9,97,13.19,88,11.9,301.5,340.6,303.9
867.0,1391,16.3,15.8,97,13.16,88,11.9,301.5,340.5,303.9
866.5,1396,16.3,15.8,97,13.16,88,12.0,301.6,340.6,304.0
866.0,1401,16.3,15.8,97,13.16,88,12.0,301.6,340.6,304.0
865.5,1406,16.3,15.8,96,13.13,88,12.1,301.7,340.6,304.0
865.0,1411,16.3,15.7,97,13.12,88,12.1,301.7,340.6,304.0
864.5,1415,16.2,15.7,97,13.12,89,12.1,301.7,340.6,304.1
864.1,1420,16.2,15.7,97,13.13,89,12.2,301.7,340.6,304.1
863.7,1424,16.2,15.8,97,13.17,89,12.2,301.7,340.7,304.1
863.2,1428,16.2,15.8,98,13.21,89,12.2,301.7,340.9,304.1
862.8,1432,16.1,15.8,98,13.21,89,12.2,301.7,340.9,304.1
862.4,1436,16.1,15.8,98,13.19,89,12.2,301.7,340.9,304.1
862.0,1440,16.1,15.8,98,13.18,89,12.1,301.8,340.8,304.1
861.6,1444,16.0,15.7,98,13.15,89,12.1,301.8,340.7,304.1
861.2,1448,16.0,15.7,98,13.11,90,12.1,301.8,340.6,304.1
860.7,1453,16.0,15.6,98,13.07,90,12.0,301.8,340.5,304.2
860.3,1457,16.0,15.5,97,13.00,90,12.0,301.8,340.4,304.2
859.8,1462,15.9,15.5,97,12.96,90,11.9,301.8,340.3,304.2
859.4,1466,15.9,15.4,97,12.94,90,11.8,301.8,340.2,304.2
858.9,1471,15.9,15.4,97,12.95,90,11.7,301.9,340.3,304.2
858.5,1475,15.8,15.5,98,12.97,91,11.6,301.9,340.3,304.2
858.0,1480,15.8,15.5,98,13.01,91,11.5,301.9,340.5,304.2
857.5,1484,15.8,15.5,98,13.05,91,11.4,301.9,340.6,304.2
857.1,1489,15.7,15.6,99,13.08,91,11.3,301.9,340.7,304.2
856.6,1494,15.7,15.6,99,13.09,91,11.2,301.9,340.7,304.2
856.1,1498,15.6,15.5,99,13.09,92,11.1,301.9,340.7,304.3
855.7,1503,15.6,15.5,100,13.09,92,11.0,301.9,340.7,304.3
855.2,1508,15.6,15.6,100,13.11,92,10.8,301.9,340.8,304.3
854.7,1513,15.6,15.5,100,13.11,93,10.7,302.0,340.9,304.4
854.2,1518,15.6,15.5,100,13.09,93,10.6,302.0,340.9,304.4
853.7,1523,15.5,15.5,100,13.06,93,10.4,302.0,340.8,304.4
853.2,1528,15.5,15.4,99,13.05,93,10.3,302.1,340.8,304.4
852.6,1533,15.5,15.4,100,13.05,94,10.2,302.1,340.8,304.5
852.1,1538,15.5,15.4,100,13.06,94,10.1,302.1,340.9,304.5
851.6,1543,15.5,15.4,100,13.05,94,9.9,302.2,340.9,304.5
851.1,1548,15.4,15.4,100,13.05,95,9.8,302.2,340.9,304.5
850.6,1553,15.4,15.4,100,13.03,95,9.7,302.2,340.9,304.6
850.1,1558,15.4,15.3,100,12.98,95,9.6,302.2,340.8,304.6
850.0,1560,15.4,15.3,100,12.98,95,9.5,302.2,340.8,304.6
849.7,1563,15.3,15.3,100,12.95,95,9.5,302.2,340.7,304.6
849.2,1567,15.3,15.2,100,12.94,96,9.4,302.3,340.7,304.6
848.8,1572,15.3,15.2,100,12.94,96,9.4,302.3,340.8,304.6
848.3,1576,15.3,15.2,99,12.94,96,9.3,302.3,340.8,304.7
847.9,1581,15.3,15.2,99,12.93,96,9.2,302.4,340.8,304.7
847.5,1585,15.3,15.2,99,12.94,97,9.2,302.4,340.9,304.8
847.0,1589,15.3,15.3,100,12.98,97,9.2,302.4,341.0,304.8
846.6,1594,15.4,15.4,100,13.07,97,9.1,302.6,341.4,304.9
846.2,1598,15.5,15.5,100,13.21,97,9.1,302.8,342.1,305.2
845.8,1602,15.5,15.5,100,13.25,97,9.1,302.8,342.3,305.2
845.4,1606,15.4,15.4,100,13.15,97,9.1,302.8,341.9,305.1
845.0,1610,15.3,15.3,100,13.06,98,9.1,302.7,341.5,305.0
844.6,1614,15.3,15.3,100,13.02,98,9.1,302.7,341.4,305.0
844.2,1618,15.2,15.2,100,13.01,98,9.1,302.7,341.4,305.0
843.8,1622,15.2,15.2,100,13.01,98,9.2,302.7,341.4,305.1
843.3,1627,15.2,15.1,100,12.95,98,9.2,302.7,341.2,305.0
842.9,1631,15.1,15.0,100,12.86,98,9.2,302.6,340.9,305.0
842.4,1636,15.0,15.0,100,12.81,98,9.2,302.6,340.7,304.9
842.0,1640,15.0,14.9,99,12.73,98,9.3,302.6,340.5,304.9
841.5,1645,14.9,14.7,99,12.62,98,9.3,302.6,340.2,304.9
841.0,1650,14.9,14.6,98,12.54,98,9.3,302.6,339.9,304.9
840.6,1655,14.8,14.6,99,12.56,98,9.4,302.6,340.0,304.9
840.1,1659,14.8,14.7,99,12.65,98,9.4,302.7,340.3,305.0
839.6,1664,14.8,14.8,100,12.70,98,9.4,302.7,340.5,305.0
839.2,1669,14.8,14.8,100,12.69,98,9.4,302.7,340.5,305.0
838.7,1673,14.8,14.7,100,12.68,98,9.4,302.7,340.5,305.0
838.3,1677,14.7,14.7,100,12.67,98,9.5,302.8,340.5,305.1
837.9,1682,14.7,14.7,100,12.65,98,9.5,302.8,340.5,305.1
837.4,1686,14.7,14.7,100,12.63,98,9.5,302.8,340.4,305.1
837.0,1691,14.7,14.7,100,12.63,98,9.5,302.8,340.4,305.1
836.5,1696,14.6,14.6,100,12.61,98,9.5,302.8,340.4,305.1
836.0,1701,14.6,14.6,100,12.60,98,9.4,302.8,340.4,305.1
835.5,1706,14.6,14.6,100,12.57,98,9.4,302.9,340.3,305.1
835.0,1711,14.5,14.5,100,12.55,98,9.4,302.9,340.3,305.1
834.5,1716,14.5,14.5,100,12.52,98,9.4,302.9,340.2,305.2
834.0,1721,14.4,14.4,100,12.50,97,9.4,302.9,340.2,305.2
833.5,1726,14.4,14.4,100,12.49,97,9.4,302.9,340.1,305.2
833.1,1731,14.4,14.4,100,12.48,97,9.3,302.9,340.1,305.2
832.6,1736,14.4,14.4,100,12.46,97,9.3,303.0,340.1,305.2
832.1,1740,14.4,14.4,100,12.46,96,9.3,303.0,340.2,305.3
831.6,1745,14.3,14.2,99,12.38,96,9.3,303.0,339.9,305.3
831.1,1750,14.3,14.0,98,12.18,96,9.2,303.1,339.4,305.3
830.6,1756,14.3,13.6,96,11.91,96,9.2,303.1,338.6,305.3
830.1,1761,14.3,13.4,94,11.71,95,9.2,303.1,338.1,305.3
