PRES,HGHT,TEMP,DWPT,RELH,MIXR,DRCT,SPED,THTA,THTE,THTV
1015.9,31,22.9,20.1,84,14.70,62,5.3,294.7,337.0,297.3
1015.5,34,23.0,20.4,85,15.04,63,4.3,294.8,338.1,297.5
1014.8,40,23.0,20.4,85,15.06,63,4.3,294.9,338.3,297.6
1014.1,46,23.1,20.4,85,15.06,64,4.5,295.1,338.4,297.7
1013.4,52,23.1,20.3,84,14.99,64,4.9,295.1,338.3,297.8
1012.8,58,23.1,20.2,84,14.91,64,5.2,295.1,338.1,297.8
1012.1,63,23.0,20.1,84,14.80,64,5.6,295.2,337.8,297.8
1011.5,68,23.0,20.0,83,14.67,64,5.9,295.2,337.4,297.8
1010.9,73,22.9,19.8,83,14.55,65,6.1,295.2,337.1,297.7
1010.3,79,22.9,19.7,82,14.45,65,6.4,295.2,336.8,297.8
1009.7,84,22.9,19.6,82,14.38,65,6.7,295.3,336.7,297.8
1009.1,89,22.9,19.6,82,14.38,65,6.9,295.3,336.7,297.8
1008.5,94,22.9,19.6,82,14.38,65,7.2,295.3,336.7,297.8
1007.9,100,22.8,19.6,82,14.36,65,7.4,295.3,336.7,297.8
1007.2,105,22.8,19.5,82,14.33,65,7.6,295.3,336.6,297.8
1006.6,111,22.7,19.5,82,14.33,66,7.8,295.3,336.6,297.8
1005.9,117,22.7,19.6,83,14.39,66,7.9,295.3,336.8,297.9
1005.2,123,22.6,19.7,83,14.48,66,8.1,295.3,337.1,297.9
1004.6,128,22.6,19.7,84,14.51,66,8.2,295.3,337.1,297.9
1003.9,134,22.5,19.7,84,14.50,66,8.3,295.3,337.1,297.9
1003.3,140,22.4,19.6,84,14.43,66,8.4,295.3,336.9,297.9
1002.7,145,22.4,19.5,84,14.33,66,8.5,295.3,336.6,297.8
1002.1,150,22.3,19.3,83,14.24,66,8.6,295.3,336.3,297.8
1001.5,156,22.3,19.3,83,14.21,66,8.6,295.3,336.3,297.8
1000.9,161,22.2,19.3,83,14.22,66,8.7,295.3,336.3,297.8
1000.3,166,22.2,19.3,84,14.23,66,8.7,295.3,336.3,297.8
1000.0,168,22.2,19.3,84,14.23,65,8.7,295.3,336.3,297.8
999.6,171,22.1,19.3,84,14.22,65,8.7,295.3,336.3,297.8
999.0,177,22.1,19.3,84,14.21,65,8.7,295.3,336.3,297.8
998.4,182,22.1,19.2,84,14.19,65,8.7,295.3,336.2,297.8
997.8,187,22.0,19.2,84,14.21,65,8.7,295.3,336.3,297.9
997.2,192,22.0,19.3,85,14.23,65,8.8,295.3,336.4,297.9
996.7,197,21.9,19.2,85,14.22,65,8.8,295.3,336.3,297.8
996.1,202,21.8,19.2,85,14.18,65,8.8,295.3,336.2,297.8
995.5,207,21.8,19.2,85,14.18,65,8.8,295.3,336.2,297.8
995.0,212,21.8,19.2,85,14.18,65,8.8,295.3,336.2,297.8
994.5,216,21.7,19.1,85,14.13,65,8.8,295.3,336.1,297.8
994.0,221,21.7,19.0,85,14.08,65,8.8,295.3,335.9,297.8
993.5,226,21.7,19.0,85,14.06,65,8.8,295.4,335.9,297.9
992.9,230,21.6,19.0,85,14.08,65,8.8,295.4,336.0,297.9
992.4,235,21.6,19.1,86,14.15,66,8.8,295.4,336.2,297.9
991.8,240,21.5,19.1,86,14.20,66,8.8,295.4,336.3,297.9
991.3,245,21.5,19.2,87,14.23,66,8.8,295.3,336.3,297.9
990.7,250,21.4,19.1,87,14.21,66,8.9,295.3,336.3,297.9
990.1,255,21.4,19.1,87,14.16,66,8.9,295.3,336.2,297.9
989.5,260,21.3,19.0,87,14.13,66,8.9,295.4,336.1,297.9
988.9,265,21.3,19.0,87,14.13,66,8.9,295.4,336.1,297.9
988.3,271,21.2,19.0,87,14.12,66,9.0,295.4,336.1,297.9
987.7,276,21.2,18.9,87,14.06,67,9.0,295.4,335.9,297.9
987.1,281,21.2,18.8,86,13.95,67,9.0,295.4,335.6,297.9
986.5,286,21.2,18.7,86,13.86,67,9.0,295.4,335.4,297.9
985.9,292,21.1,18.7,86,13.86,67,9.0,295.5,335.4,297.9
985.3,297,21.1,18.7,86,13.89,67,9.1,295.5,335.5,297.9
984.7,302,21.0,18.7,87,13.90,67,9.1,295.4,335.5,297.9
984.1,308,21.0,18.7,87,13.89,67,9.1,295.4,335.5,297.9
983.5,313,20.9,18.6,87,13.88,67,9.1,295.5,335.5,297.9
982.9,318,20.9,18.6,87,13.89,68,9.1,295.5,335.5,297.9
982.3,323,20.8,18.7,88,13.91,68,9.1,295.4,335.5,297.9
981.8,328,20.7,18.7,88,13.92,68,9.1,295.4,335.6,297.9
981.2,334,20.7,18.7,88,13.95,68,9.0,295.4,335.7,297.9
980.6,339,20.6,18.7,89,13.97,68,9.0,295.4,335.7,297.9
980.0,344,20.6,18.7,89,13.97,68,9.0,295.5,335.7,297.9
979.4,349,20.6,18.7,89,13.96,68,9.0,295.5,335.7,297.9
978.8,354,20.5,18.7,89,13.97,68,8.9,295.5,335.7,297.9
978.2,360,20.4,18.7,90,13.98,69,8.9,295.4,335.7,297.9
977.6,365,20.4,18.6,90,13.95,69,8.8,295.4,335.7,297.9
977.0,370,20.3,18.6,90,13.90,69,8.8,295.4,335.5,297.9
976.5,375,20.3,18.5,89,13.84,69,8.8,295.4,335.3,297.9
975.9,380,20.2,18.4,89,13.80,69,8.7,295.4,335.3,297.9
975.4,385,20.2,18.4,89,13.76,70,8.7,295.4,335.1,297.9
974.8,390,20.2,18.3,89,13.74,70,8.6,295.5,335.1,297.9
974.2,395,20.1,18.4,90,13.78,70,8.6,295.5,335.2,297.9
973.7,400,20.1,18.4,90,13.81,70,8.6,295.5,335.3,297.9
973.1,405,20.0,18.4,90,13.83,71,8.6,295.5,335.4,297.9
972.5,410,20.0,18.4,91,13.82,71,8.5,295.5,335.3,297.9
971.9,416,19.9,18.4,91,13.79,71,8.5,295.5,335.3,297.9
971.3,421,19.9,18.3,91,13.77,71,8.5,295.5,335.2,297.9
970.7,426,19.9,18.3,91,13.74,72,8.5,295.5,335.1,297.9
970.1,432,19.8,18.2,91,13.71,72,8.5,295.5,335.1,297.9
969.5,437,19.8,18.2,91,13.67,72,8.5,295.5,334.9,297.9
969.0,442,19.7,18.1,91,13.65,72,8.5,295.5,334.9,297.9
968.4,447,19.7,18.1,91,13.65,73,8.5,295.5,334.9,297.9
967.9,452,19.6,18.1,91,13.66,73,8.5,295.5,334.9,297.9
967.3,457,19.6,18.1,91,13.66,73,8.6,295.5,334.9,297.9
966.8,462,19.5,18.1,91,13.64,73,8.6,295.5,334.9,297.9
966.2,466,19.5,18.1,91,13.62,73,8.6,295.5,334.8,298.0
965.7,471,19.5,18.0,91,13.61,73,8.6,295.5,334.8,298.0
965.1,476,19.4,18.0,92,13.59,73,8.7,295.5,334.8,298.0
964.6,481,19.4,18.0,92,13.57,73,8.7,295.6,334.7,298.0
964.0,486,19.3,17.9,92,13.55,73,8.7,295.6,334.7,298.0
963.5,491,19.3,17.9,92,13.51,74,8.7,295.6,334.6,298.0
962.9,496,19.3,17.9,92,13.49,74,8.7,295.6,334.5,298.0
962.3,501,19.2,17.9,92,13.49,74,8.8,295.6,334.5,298.0
961.8,507,19.2,17.8,92,13.49,74,8.8,295.6,334.5,298.0
961.2,512,19.1,17.8,92,13.48,74,8.8,295.6,334.5,298.0
960.5,517,19.1,17.8,92,13.47,74,8.8,295.6,334.5,298.0
959.9,523,19.0,17.7,92,13.43,74,8.8,295.6,334.4,298.0
959.3,529,19.0,17.7,92,13.40,74,8.8,295.6,334.3,298.0
958.7,534,19.0,17.7,92,13.37,74,8.8,295.6,334.2,298.0
958.1,540,18.9,17.6,92,13.37,74,8.8,295.6,334.2,298.0
957.4,545,18.9,17.6,93,13.37,74,8.8,295.7,334.3,298.0
956.8,551,18.8,17.6,93,13.36,74,8.8,295.7,334.2,298.0
956.2,556,18.8,17.6,93,13.35,74,8.8,295.7,334.2,298.0
955.7,561,18.7,17.6,93,13.34,74,8.8,295.7,334.2,298.0
955.1,566,18.7,17.6,93,13.34,74,8.8,295.7,334.2,298.0
954.6,571,18.6,17.6,94,13.35,74,8.8,295.7,334.2,298.0
954.1,576,18.6,17.6,94,13.35,75,8.8,295.7,334.2,298.1
953.6,580,18.6,17.5,94,13.33,75,8.7,295.7,334.2,298.1
953.0,585,18.5,17.5,94,13.32,75,8.7,295.7,334.2,298.1
952.6,589,18.5,17.5,94,13.31,75,8.7,295.7,334.1,298.1
952.0,594,18.5,17.5,94,13.31,75,8.7,295.7,334.2,298.1
951.5,598,18.4,17.5,94,13.31,76,8.7,295.7,334.2,298.1
951.0,603,18.4,17.4,94,13.28,76,8.7,295.7,334.1,298.1
950.5,608,18.3,17.3,94,13.20,76,8.7,295.7,333.9,298.1
950.0,612,18.3,17.2,93,13.10,76,8.7,295.8,333.6,298.1
949.5,617,18.3,17.1,93,13.02,76,8.7,295.8,333.4,298.1
948.9,622,18.3,17.0,92,12.98,77,8.7,295.8,333.3,298.1
948.3,628,18.2,17.0,93,12.97,77,8.7,295.8,333.3,298.1
947.7,633,18.2,17.0,93,12.96,77,8.7,295.9,333.3,298.2
947.1,638,18.2,16.9,92,12.88,77,8.8,295.9,333.1,298.2
946.5,644,18.1,16.8,92,12.80,78,8.8,295.9,332.9,298.2
946.0,649,18.1,16.7,92,12.78,78,8.8,295.9,332.9,298.2
945.4,654,18.0,16.8,92,12.81,78,8.8,295.9,333.0,298.2
944.8,660,18.0,16.8,93,12.83,79,8.9,295.9,333.0,298.2
944.2,665,17.9,16.8,93,12.84,79,8.9,295.9,333.0,298.2
943.6,670,17.9,16.8,93,12.85,79,8.9,295.9,333.1,298.2
943.1,675,17.8,16.8,94,12.87,79,9.0,295.9,333.1,298.2
942.5,681,17.8,16.8,94,12.87,80,9.0,295.9,333.1,298.2
941.9,686,17.8,16.8,94,12.84,80,9.0,295.9,333.1,298.2
941.4,691,17.7,16.7,94,12.82,80,9.1,295.9,333.0,298.2
940.8,696,17.7,16.7,94,12.79,80,9.1,295.9,332.9,298.2
940.3,701,17.6,16.6,94,12.74,81,9.2,295.9,332.8,298.2
939.7,706,17.6,16.5,93,12.69,81,9.2,296.0,332.7,298.2
939.1,711,17.6,16.5,94,12.68,81,9.2,296.0,332.7,298.2
938.6,716,17.5,16.5,94,12.67,81,9.3,296.0,332.6,298.2
938.1,721,17.5,16.5,94,12.66,81,9.3,296.0,332.6,298.2
937.5,726,17.4,16.5,94,12.66,82,9.4,296.0,332.6,298.2
937.0,731,17.4,16.4,94,12.66,82,9.4,296.0,332.6,298.2
936.5,736,17.3,16.4,94,12.65,82,9.4,296.0,332.6,298.2
935.9,741,17.3,16.4,95,12.66,82,9.5,296.0,332.7,298.3
935.4,746,17.3,16.4,95,12.68,82,9.5,296.0,332.7,298.3
934.8,751,17.2,16.4,95,12.68,82,9.5,296.0,332.7,298.3
934.3,756,17.2,16.4,95,12.65,83,9.5,296.0,332.6,298.3
933.7,761,17.1,16.3,95,12.59,83,9.6,296.0,332.5,298.3
933.2,765,17.1,16.2,95,12.53,83,9.6,296.0,332.3,298.3
932.7,770,17.1,16.2,95,12.49,83,9.6,296.0,332.2,298.3
932.2,775,17.0,16.2,95,12.49,83,9.6,296.0,332.2,298.3
931.7,779,17.0,16.2,95,12.52,83,9.6,296.1,332.3,298.3
931.2,784,17.0,16.2,95,12.54,83,9.6,296.1,332.4,298.3
930.8,788,16.9,16.2,96,12.54,83,9.6,296.1,332.4,298.3
930.3,792,16.9,16.2,96,12.52,84,9.6,296.1,332.3,298.3
929.8,796,16.8,16.1,96,12.51,84,9.6,296.1,332.3,298.3
929.4,801,16.8,16.1,96,12.51,84,9.6,296.1,332.3,298.3
928.9,805,16.8,16.1,96,12.50,84,9.6,296.1,332.3,298.3
928.4,810,16.7,16.1,96,12.48,84,9.6,296.1,332.2,298.3
927.9,814,16.7,16.1,96,12.47,84,9.6,296.1,332.2,298.3
927.4,819,16.7,16.0,96,12.45,84,9.5,296.1,332.2,298.4
926.9,824,16.7,16.0,96,12.44,85,9.5,296.2,332.2,298.4
926.3,829,16.6,16.0,96,12.40,85,9.5,296.2,332.1,298.4
925.8,834,16.6,15.9,95,12.34,85,9.5,296.2,331.9,298.4
925.2,839,16.6,15.8,95,12.26,85,9.5,296.2,331.7,298.4
925.0,841,16.6,15.7,95,12.24,86,9.4,296.2,331.7,298.4
924.7,844,16.5,15.7,95,12.19,86,9.4,296.2,331.6,298.4
924.1,849,16.5,15.6,94,12.13,86,9.4,296.3,331.4,298.4
923.6,854,16.5,15.5,94,12.07,86,9.4,296.3,331.3,298.4
923.1,859,16.5,15.5,94,12.06,87,9.4,296.3,331.3,298.5
922.5,864,16.5,15.5,94,12.07,87,9.3,296.4,331.4,298.5
922.0,869,16.4,15.5,94,12.10,87,9.3,296.4,331.5,298.5
921.5,874,16.4,15.5,95,12.11,88,9.3,296.4,331.5,298.5
920.9,878,16.3,15.5,95,12.08,88,9.3,296.4,331.4,298.5
920.4,883,16.3,15.4,94,12.01,89,9.2,296.4,331.2,298.5
919.9,888,16.3,15.3,94,11.94,90,9.2,296.4,331.1,298.5
919.4,893,16.3,15.2,93,11.89,90,9.2,296.4,330.9,298.6
918.9,898,16.2,15.2,93,11.87,91,9.2,296.5,330.9,298.6
918.4,902,16.2,15.1,93,11.85,91,9.2,296.5,330.9,298.6
917.9,907,16.2,15.1,93,11.84,92,9.2,296.5,330.9,298.6
917.4,912,16.1,15.1,93,11.83,93,9.1,296.5,330.8,298.6
916.8,917,16.1,15.0,93,11.77,94,9.1,296.5,330.7,298.6
916.3,921,16.1,14.9,93,11.69,94,9.1,296.5,330.5,298.6
915.8,926,16.1,14.8,92,11.63,95,9.1,296.6,330.3,298.6
915.3,931,16.0,14.7,92,11.60,95,9.1,296.6,330.3,298.7
914.8,936,16.0,14.7,92,11.59,96,9.1,296.6,330.3,298.7
914.3,940,16.0,14.7,92,11.57,97,9.1,296.6,330.3,298.7
913.8,945,15.9,14.6,92,11.53,97,9.1,296.6,330.1,298.7
913.3,949,15.9,14.6,92,11.48,97,9.1,296.7,330.0,298.7
912.9,954,15.9,14.5,91,11.46,98,9.1,296.7,330.0,298.7
912.4,958,15.9,14.5,91,11.45,98,9.1,296.7,330.0,298.8
912.0,962,15.9,14.4,91,11.41,98,9.1,296.8,330.0,298.8
911.5,966,15.9,14.4,91,11.38,98,9.1,296.8,329.9,298.8
911.1,970,15.9,14.4,91,11.37,98,9.1,296.8,329.9,298.8
910.6,975,15.8,14.4,91,11.39,98,9.0,296.8,329.9,298.8
910.2,979,15.8,14.4,92,11.44,98,9.0,296.8,330.1,298.8
909.7,983,15.7,14.5,92,11.47,97,9.0,296.8,330.2,298.9
909.2,988,15.7,14.4,92,11.45,97,9.0,296.8,330.1,298.8
908.7,993,15.6,14.4,92,11.40,96,8.9,296.8,330.0,298.8
908.2,997,15.6,14.3,92,11.34,96,8.9,296.8,329.8,298.8
907.7,1002,15.6,14.2,91,11.30,95,8.9,296.8,329.7,298.9
907.2,1007,15.6,14.2,91,11.28,94,8.8,296.9,329.7,298.9
906.6,1012,15.6,14.2,91,11.30,94,8.8,296.9,329.8,298.9
906.1,1017,15.5,14.2,92,11.31,93,8.7,296.9,329.9,298.9
905.6,1022,15.5,14.2,92,11.29,92,8.7,296.9,329.8,298.9
905.1,1027,15.5,14.1,92,11.25,91,8.7,297.0,329.7,299.0
904.6,1031,15.4,14.1,91,11.22,90,8.6,297.0,329.6,299.0
904.0,1036,15.4,14.0,91,11.21,89,8.6,297.0,329.7,299.0
903.5,1041,15.4,14.0,91,11.16,89,8.5,297.0,329.5,299.0
903.0,1046,15.4,13.8,91,11.07,88,8.5,297.0,329.3,299.0
902.5,1051,15.3,13.7,90,10.96,87,8.4,297.1,329.0,299.0
902.0,1055,15.3,13.5,89,10.86,86,8.4,297.1,328.8,299.0
901.6,1060,15.3,13.4,88,10.80,86,8.3,297.2,328.7,299.1
901.1,1064,15.4,13.4,88,10.75,85,8.3,297.2,328.6,299.1
900.6,1069,15.4,13.3,87,10.69,85,8.3,297.3,328.5,299.2
900.1,1073,15.3,13.2,87,10.63,85,8.2,297.3,328.3,299.2
899.7,1077,15.3,13.1,86,10.59,84,8.2,297.3,328.3,299.2
899.2,1082,15.3,13.1,86,10.58,84,8.1,297.4,328.3,299.3
898.8,1086,15.3,13.1,87,10.60,84,8.1,297.4,328.4,299.3
898.3,1091,15.3,13.1,87,10.62,84,8.0,297.4,328.4,299.3
897.8,1095,15.3,13.1,87,10.61,84,8.0,297.4,328.5,299.3
897.3,1100,15.2,13.1,87,10.58,85,7.9,297.4,328.4,299.3
896.8,1105,15.2,13.0,87,10.54,85,7.9,297.4,328.3,299.3
896.3,1110,15.1,12.9,86,10.48,85,7.9,297.5,328.1,299.3
895.8,1114,15.1,12.9,86,10.46,85,7.8,297.5,328.1,299.3
895.3,1119,15.1,12.9,87,10.49,86,7.8,297.5,328.2,299.4
894.8,1124,15.1,12.9,87,10.52,86,7.8,297.5,328.3,299.4
894.3,1129,15.0,12.9,87,10.52,86,7.8,297.5,328.3,299.4
893.7,1134,15.0,12.9,87,10.51,87,7.8,297.6,328.3,299.4
893.2,1139,15.0,12.8,87,10.48,87,7.8,297.6,328.2,299.5
892.7,1144,15.0,12.8,87,10.44,87,7.8,297.6,328.1,299.5
892.1,1149,14.9,12.7,87,10.41,87,7.8,297.6,328.1,299.5
891.6,1154,14.9,12.6,86,10.34,88,7.8,297.6,327.9,299.5
891.0,1159,14.8,12.5,86,10.25,88,7.8,297.6,327.6,299.5
890.5,1164,14.8,12.4,85,10.18,88,7.8,297.7,327.5,299.5
890.0,1169,14.8,12.3,85,10.15,88,7.8,297.7,327.4,299.5
889.5,1174,14.8,12.3,85,10.12,88,7.8,297.7,327.3,299.5
889.0,1179,14.7,12.3,85,10.13,88,7.9,297.7,327.4,299.5
888.5,1183,14.7,12.3,85,10.14,87,7.9,297.7,327.4,299.5
888.1,1187,14.7,12.3,86,10.14,87,7.9,297.7,327.4,299.5
887.7,1192,14.6,12.3,86,10.15,87,7.9,297.7,327.4,299.6
887.2,1196,14.6,12.2,86,10.13,87,8.0,297.8,327.4,299.6
886.8,1200,14.6,12.1,85,10.07,86,8.0,297.8,327.3,299.6
886.4,1204,14.6,12.0,84,9.99,86,8.0,297.8,327.1,299.6
886.0,1208,14.6,11.9,84,9.92,86,8.0,297.8,326.9,299.6
885.5,1212,14.6,11.8,84,9.86,86,8.1,297.9,326.8,299.6
885.1,1216,14.5,11.7,83,9.80,85,8.1,297.9,326.6,299.6
884.6,1221,14.5,11.6,83,9.75,85,8.1,297.9,326.5,299.7
884.2,1225,14.5,11.5,82,9.67,85,8.1,297.9,326.3,299.7
883.7,1229,14.5,11.2,81,9.52,85,8.1,298.0,325.9,299.7
883.3,1234,14.5,10.9,79,9.28,85,8.1,298.0,325.3,299.6
882.8,1238,14.5,10.5,77,9.07,85,8.1,298.0,324.7,299.7
882.3,1242,14.5,10.3,76,8.97,85,8.1,298.1,324.5,299.7
881.9,1247,14.4,10.3,76,8.94,85,8.1,298.1,324.4,299.7
881.4,1251,14.4,10.3,76,8.97,85,8.1,298.1,324.5,299.7
881.0,1255,14.4,10.4,77,9.05,85,8.1,298.1,324.8,299.7
880.6,1260,14.3,10.7,79,9.19,85,8.0,298.1,325.1,299.8
880.1,1264,14.3,10.9,80,9.34,86,8.0,298.1,325.6,299.8
879.7,1268,14.3,11.1,81,9.47,86,7.9,298.1,326.0,299.8
879.2,1272,14.2,11.2,82,9.55,86,7.9,298.1,326.2,299.8
878.8,1277,14.2,11.2,83,9.58,87,7.8,298.1,326.3,299.8
878.3,1282,14.1,11.1,82,9.51,88,7.8,298.1,326.1,299.8
877.8,1286,14.1,10.9,81,9.36,88,7.7,298.1,325.7,299.8
877.3,1291,14.1,10.7,80,9.24,89,7.7,298.2,325.4,299.9
876.9,1295,14.1,10.6,79,9.20,90,7.6,298.2,325.3,299.9
876.4,1300,14.1,10.6,80,9.21,91,7.5,298.3,325.4,299.9
876.0,1304,14.0,10.7,80,9.23,92,7.5,298.3,325.4,299.9
875.5,1308,14.0,10.7,80,9.25,93,7.4,298.3,325.5,299.9
875.1,1312,14.0,10.6,80,9.24,94,7.3,298.3,325.5,299.9
874.7,1316,13.9,10.6,81,9.24,95,7.3,298.3,325.5,299.9
874.2,1321,13.9,10.7,81,9.29,96,7.2,298.3,325.6,300.0
873.8,1325,13.9,10.9,82,9.39,97,7.2,298.3,325.9,300.0
873.4,1329,13.8,11.1,84,9.53,98,7.2,298.3,326.3,300.0
873.0,1333,13.8,11.2,85,9.64,99,7.2,298.3,326.6,300.0
872.5,1337,13.7,11.3,85,9.69,100,7.2,298.3,326.7,300.0
872.1,1341,13.7,11.3,85,9.68,101,7.2,298.3,326.7,300.0
871.7,1345,13.6,11.2,85,9.61,102,7.2,298.3,326.5,300.0
871.3,1349,13.6,11.1,85,9.56,103,7.2,298.3,326.4,300.0
870.9,1353,13.6,11.1,85,9.55,104,7.2,298.3,326.3,300.0
870.5,1357,13.5,11.1,85,9.61,105,7.3,298.3,326.5,300.0
870.0,1361,13.5,11.2,86,9.66,105,7.3,298.3,326.7,300.0
869.6,1365,13.5,11.1,85,9.56,105,7.3,298.3,326.4,300.0
869.2,1369,13.4,10.7,84,9.35,106,7.4,298.3,325.8,299.9
868.8,1374,13.4,10.4,82,9.17,106,7.5,298.3,325.3,299.9
868.3,1378,13.4,10.3,81,9.07,106,7.5,298.3,325.0,300.0
867.9,1382,13.4,10.2,81,9.02,106,7.6,298.4,325.0,300.0
867.4,1387,13.4,10.2,81,9.03,106,7.7,298.4,325.0,300.0
866.9,1391,13.4,10.2,81,9.07,105,7.7,298.4,325.2,300.1
866.5,1396,13.3,10.4,82,9.17,105,7.8,298.5,325.5,300.1
866.0,1400,13.3,10.7,84,9.36,105,7.9,298.4,326.0,300.1
865.6,1405,13.2,11.0,86,9.54,104,7.9,298.4,326.5,300.1
865.1,1409,13.2,11.1,87,9.62,104,8.0,298.4,326.7,300.1
864.6,1414,13.1,11.1,88,9.63,103,8.0,298.4,326.7,300.1
864.2,1418,13.0,11.1,88,9.63,102,8.1,298.4,326.7,300.1
863.7,1423,13.0,11.1,88,9.64,102,8.2,298.4,326.7,300.1
863.2,1428,13.0,11.1,88,9.65,101,8.2,298.4,326.8,300.1
862.7,1432,12.9,11.0,88,9.60,101,8.2,298.4,326.7,300.1
862.3,1437,12.9,10.9,87,9.52,100,8.3,298.4,326.4,300.1
861.8,1442,12.9,10.9,88,9.57,100,8.3,298.5,326.6,300.2
861.3,1446,12.9,11.2,89,9.74,99,8.3,298.5,327.1,300.3
860.8,1451,12.9,11.4,91,9.89,99,8.3,298.5,327.6,300.3
860.3,1456,12.8,11.5,91,9.94,98,8.3,298.6,327.8,300.3
859.8,1460,12.8,11.5,91,9.94,98,8.3,298.6,327.8,300.4
859.3,1465,12.9,11.5,91,9.94,97,8.2,298.7,327.9,300.4
858.8,1471,12.8,11.5,92,9.97,97,8.2,298.7,328.0,300.5
858.3,1476,12.8,11.5,92,9.98,97,8.1,298.7,328.0,300.5
857.8,1481,12.7,11.5,92,9.98,97,8.1,298.7,328.0,300.5
857.2,1486,12.7,11.5,93,9.98,97,8.0,298.7,328.0,300.5
856.7,1491,12.6,11.5,93,9.98,97,8.0,298.7,328.0,300.5
856.2,1497,12.6,11.5,93,9.98,97,7.9,298.7,328.0,300.5
855.6,1502,12.5,11.5,93,9.99,97,7.8,298.7,328.0,300.5
855.1,1507,12.4,11.5,94,10.00,97,7.7,298.6,328.1,300.4
854.6,1512,12.4,11.4,94,9.98,97,7.6,298.6,328.0,300.4
854.1,1517,12.3,11.3,94,9.93,97,7.5,298.6,327.8,300.4
853.6,1522,12.3,11.3,93,9.87,97,7.4,298.6,327.7,300.4
853.1,1527,12.3,11.2,93,9.85,97,7.3,298.7,327.6,300.4
852.5,1532,12.2,11.2,94,9.87,97,7.1,298.7,327.7,300.5
852.0,1538,12.2,11.2,94,9.85,97,7.0,298.7,327.7,300.5
851.5,1543,12.2,11.0,93,9.74,98,6.9,298.7,327.4,300.5
850.9,1548,12.1,10.8,91,9.58,98,6.8,298.7,327.0,300.5
850.4,1554,12.1,10.5,90,9.41,98,6.7,298.8,326.5,300.5
850.0,1557,12.1,10.4,89,9.35,98,6.7,298.8,326.4,300.5
849.8,1559,12.1,10.3,89,9.31,98,6.6,298.9,326.3,300.5
849.3,1564,12.1,10.2,88,9.24,99,6.5,298.9,326.2,300.6
848.8,1570,12.1,10.1,88,9.20,99,6.4,298.9,326.1,300.6
848.3,1574,12.1,10.1,87,9.19,99,6.3,299.0,326.1,300.7
847.8,1579,12.1,10.1,87,9.18,100,6.2,299.0,326.1,300.7
847.4,1584,12.1,10.0,87,9.16,100,6.1,299.0,326.1,300.7
846.9,1588,12.0,10.0,87,9.14,100,6.0,299.1,326.1,300.7
846.5,1592,12.0,10.0,88,9.16,101,6.0,299.1,326.1,300.7
846.1,1596,12.0,10.1,88,9.21,101,5.9,299.1,326.3,300.7
845.7,1600,12.0,10.2,89,9.30,101,5.9,299.1,326.5,300.8
845.3,1604,11.9,10.3,90,9.38,102,5.8,299.1,326.8,300.8
844.9,1608,11.9,10.4,91,9.41,102,5.8,299.1,326.8,300.8
844.5,1612,11.8,10.4,91,9.40,103,5.8,299.1,326.8,300.8
844.1,1616,11.8,10.3,91,9.38,103,5.8,299.1,326.8,300.8
843.7,1620,11.8,10.3,91,9.36,104,5.8,299.1,326.7,300.8
843.3,1624,11.7,10.3,91,9.34,104,5.8,299.1,326.7,300.8
842.8,1628,11.7,10.2,91,9.33,104,5.8,299.1,326.7,300.8
842.4,1633,11.7,10.2,91,9.33,105,5.8,299.1,326.7,300.8
842.0,1637,11.7,10.2,91,9.30,105,5.8,299.1,326.6,300.8
841.6,1641,11.6,10.1,90,9.27,106,5.8,299.2,326.5,300.8
841.1,1645,11.6,10.1,90,9.24,106,5.9,299.2,326.5,300.8
840.7,1650,11.5,10.0,90,9.21,106,5.9,299.1,326.4,300.8
840.2,1654,11.5,9.9,90,9.16,106,6.0,299.2,326.2,300.8
839.8,1659,11.5,9.9,90,9.13,106,6.0,299.2,326.1,300.8
839.4,1663,11.4,9.8,90,9.12,107,6.1,299.2,326.1,300.8
838.9,1668,11.4,9.9,90,9.14,107,6.1,299.2,326.2,300.9
838.4,1673,11.4,9.9,90,9.18,107,6.2,299.3,326.4,300.9
837.8,1678,11.4,10.0,91,9.21,107,6.3,299.3,326.5,301.0
837.3,1684,11.4,9.9,91,9.21,106,6.3,299.3,326.5,301.0
836.7,1689,11.3,9.9,91,9.16,106,6.4,299.3,326.4,301.0
836.2,1695,11.2,9.7,90,9.09,106,6.5,299.3,326.2,300.9
835.6,1700,11.2,9.6,90,9.02,106,6.6,299.4,326.0,301.0
835.1,1706,11.2,9.5,89,8.98,106,6.7,299.4,326.0,301.0
834.6,1711,11.2,9.5,89,8.99,105,6.7,299.4,326.1,301.1
834.1,1716,11.2,9.5,89,8.99,105,6.8,299.5,326.1,301.1
833.6,1721,11.2,9.5,89,8.97,105,6.9,299.5,326.1,301.1
833.1,1725,11.2,9.4,89,8.93,104,7.0,299.6,326.0,301.2
832.7,1730,11.2,9.4,89,8.90,104,7.1,299.6,326.0,301.2
832.2,1735,11.2,9.3,88,8.87,103,7.2,299.6,325.9,301.2
831.7,1740,11.2,9.2,88,8.84,103,7.3,299.7,325.9,301.3
831.3,1744,11.1,9.2,88,8.84,102,7.4,299.7,325.9,301.3
830.8,1749,11.1,9.2,88,8.85,102,7.4,299.7,325.9,301.3
830.3,1754,11.1,9.3,89,8.90,102,7.5,299.7,326.1,301.3
829.9,1758,11.1,9.4,89,8.93,101,7.6,299.8,326.2,301.4
829.4,1763,11.1,9.4,89,8.96,101,7.6,299.8,326.4,301.4
828.9,1768,11.0,9.4,89,8.94,100,7.7,299.8,326.4,301.5
828.5,1772,11.0,9.3,89,8.92,100,7.8,299.8,326.3,301.5
828.1,1777,11.0,9.3,90,8.93,99,7.8,299.8,326.3,301.5
827.6,1781,10.9,9.4,90,8.97,99,7.9,299.9,326.5,301.5
