PRES,HGHT,TEMP,DWPT,RELH,MIXR,DRCT,SPED,THTA,THTE,THTV
1007.8,31,25.3,20.1,73,14.89,192,6.8,297.8,341.2,300.4
1007.1,36,24.3,19.8,76,14.63,190,4.6,296.8,339.3,299.4
1006.6,41,23.8,19.7,78,14.48,189,3.9,296.4,338.3,299.0
1006.1,46,23.5,19.6,78,14.40,189,3.8,296.2,337.8,298.7
1005.5,51,23.5,19.6,79,14.39,188,4.0,296.2,337.8,298.7
1004.9,56,23.5,19.5,78,14.34,188,4.4,296.2,337.7,298.8
1004.3,61,23.6,19.4,78,14.30,188,4.6,296.4,337.8,298.9
1003.5,68,23.6,19.3,77,14.21,188,4.9,296.5,337.6,299.0
1002.9,73,23.5,19.2,77,14.08,188,5.1,296.4,337.2,298.9
1002.3,78,23.3,19.0,77,13.91,188,5.3,296.3,336.5,298.7
1001.7,84,23.2,18.8,77,13.78,188,5.5,296.2,336.1,298.6
1001.1,89,23.0,18.7,77,13.68,188,5.6,296.1,335.7,298.5
1000.5,94,23.0,18.7,77,13.68,188,5.8,296.1,335.6,298.5
1000.0,99,22.9,18.6,77,13.64,188,5.8,296.0,335.5,298.5
999.9,99,22.9,18.6,77,13.63,187,5.9,296.0,335.5,298.4
999.3,104,22.8,18.6,77,13.58,187,6.1,296.0,335.3,298.4
998.8,109,22.8,18.5,77,13.53,187,6.2,296.0,335.2,298.4
998.2,114,22.8,18.6,77,13.64,187,6.3,296.1,335.5,298.5
997.6,119,22.8,18.7,78,13.76,187,6.4,296.1,335.9,298.5
997.1,124,22.9,19.2,80,14.16,187,6.5,296.3,337.3,298.8
996.5,129,23.0,19.3,80,14.29,187,6.5,296.4,337.8,298.9
995.9,134,22.9,19.0,79,14.03,187,6.6,296.4,337.1,298.9
995.3,140,22.7,18.4,77,13.54,187,6.6,296.3,335.5,298.7
994.7,145,22.5,18.1,76,13.25,187,6.7,296.1,334.5,298.5
994.1,150,22.4,18.1,76,13.23,188,6.7,296.1,334.3,298.4
993.5,156,22.3,18.1,77,13.25,188,6.8,296.0,334.4,298.4
992.9,161,22.3,18.1,77,13.27,188,6.8,296.0,334.4,298.4
992.2,167,22.2,18.1,77,13.28,188,6.8,296.1,334.5,298.4
991.6,173,22.2,18.1,78,13.28,189,6.9,296.1,334.5,298.4
990.9,178,22.1,18.1,78,13.29,189,6.9,296.1,334.5,298.4
990.2,185,22.1,18.1,78,13.30,189,6.9,296.0,334.5,298.4
989.5,191,22.0,18.1,78,13.29,190,6.9,296.0,334.5,298.4
988.8,197,21.9,18.0,79,13.28,190,7.0,296.0,334.5,298.4
988.1,203,21.9,18.1,79,13.32,191,7.0,296.0,334.6,298.4
987.4,209,21.8,18.1,79,13.35,191,7.0,296.1,334.7,298.4
986.7,215,21.8,18.1,80,13.36,192,7.0,296.1,334.7,298.4
986.1,221,21.7,18.1,80,13.34,192,7.0,296.1,334.6,298.4
985.4,227,21.7,18.0,80,13.31,193,7.0,296.0,334.5,298.4
984.7,233,21.6,18.0,80,13.26,194,7.0,296.0,334.4,298.4
984.1,238,21.6,17.9,80,13.25,194,7.0,296.1,334.4,298.4
983.5,244,21.5,17.9,80,13.25,195,6.9,296.1,334.4,298.4
982.8,250,21.5,17.9,80,13.26,196,6.9,296.1,334.5,298.5
982.2,255,21.4,17.9,80,13.25,196,6.9,296.1,334.4,298.4
981.6,261,21.4,17.9,80,13.24,197,6.8,296.1,334.4,298.4
981.0,266,21.3,17.9,81,13.23,198,6.8,296.1,334.4,298.4
980.4,271,21.3,17.8,81,13.21,199,6.7,296.1,334.3,298.4
979.7,277,21.2,17.8,81,13.20,200,6.6,296.1,334.3,298.5
979.1,282,21.2,17.8,81,13.20,201,6.5,296.1,334.3,298.5
978.5,288,21.2,17.8,81,13.21,202,6.4,296.2,334.4,298.5
977.9,293,21.2,17.8,81,13.23,203,6.3,296.2,334.5,298.5
977.2,299,21.1,17.8,81,13.20,204,6.2,296.2,334.4,298.5
976.6,305,21.0,17.7,81,13.15,206,6.1,296.2,334.2,298.5
975.9,311,21.0,17.6,81,13.10,207,6.0,296.2,334.1,298.5
975.1,318,21.0,17.6,81,13.12,209,5.9,296.3,334.3,298.7
974.4,324,21.0,17.7,81,13.15,211,5.8,296.4,334.5,298.7
973.7,331,20.9,17.6,82,13.14,213,5.7,296.3,334.3,298.6
972.9,337,20.8,17.6,82,13.14,214,5.6,296.2,334.3,298.6
972.2,344,20.7,17.6,82,13.16,216,5.6,296.3,334.4,298.6
971.5,350,20.7,17.6,83,13.17,218,5.5,296.3,334.4,298.6
970.8,357,20.6,17.6,83,13.17,220,5.5,296.2,334.4,298.6
970.1,363,20.6,17.6,83,13.17,222,5.4,296.3,334.4,298.6
969.4,369,20.5,17.6,83,13.13,224,5.4,296.3,334.4,298.6
968.8,375,20.5,17.5,83,13.09,226,5.4,296.4,334.3,298.7
968.1,380,20.5,17.4,82,13.03,228,5.4,296.4,334.1,298.7
967.5,386,20.5,17.3,82,12.95,230,5.5,296.4,333.9,298.7
966.8,392,20.5,17.3,82,12.92,231,5.5,296.5,334.0,298.8
966.2,398,20.5,17.2,82,12.90,233,5.6,296.5,333.9,298.8
965.5,404,20.4,17.2,82,12.91,234,5.6,296.5,333.9,298.8
964.8,410,20.3,17.2,82,12.87,235,5.7,296.4,333.8,298.7
964.1,416,20.3,17.1,82,12.84,236,5.8,296.5,333.8,298.8
963.4,422,20.2,17.0,82,12.72,237,5.9,296.5,333.4,298.7
962.7,429,20.2,16.8,81,12.64,238,6.0,296.6,333.3,298.8
962.0,435,20.3,16.8,80,12.58,238,6.1,296.7,333.3,299.0
961.4,441,20.3,16.7,80,12.54,238,6.2,296.8,333.2,299.0
960.7,447,20.3,16.7,80,12.51,239,6.3,296.8,333.2,299.0
960.1,453,20.3,16.6,80,12.47,239,6.4,296.8,333.1,299.1
959.4,459,20.2,16.6,80,12.48,239,6.5,296.8,333.1,299.1
958.8,464,20.2,16.7,80,12.53,239,6.6,296.8,333.3,299.1
958.1,470,20.1,16.8,81,12.62,239,6.7,296.8,333.5,299.1
957.5,476,20.0,16.9,82,12.75,239,6.8,296.8,333.8,299.1
956.9,481,19.9,16.9,83,12.79,239,6.9,296.8,333.9,299.0
956.3,487,19.9,16.9,83,12.77,239,7.0,296.8,333.8,299.0
955.7,492,19.8,16.9,83,12.77,239,7.1,296.8,333.9,299.0
955.1,498,19.8,16.9,83,12.76,240,7.2,296.8,333.8,299.0
954.5,503,19.7,16.8,84,12.75,240,7.2,296.8,333.8,299.0
953.9,508,19.6,16.8,84,12.73,240,7.3,296.8,333.7,299.0
953.4,513,19.6,16.7,84,12.67,240,7.4,296.8,333.6,299.0
952.8,519,19.6,16.6,83,12.59,240,7.4,296.8,333.3,299.0
952.2,524,19.6,16.6,83,12.56,240,7.5,296.8,333.3,299.1
951.6,529,19.5,16.7,84,12.65,240,7.5,296.8,333.6,299.1
951.0,535,19.5,16.7,84,12.70,240,7.6,296.8,333.7,299.1
950.4,540,19.4,16.6,84,12.58,241,7.6,296.8,333.4,299.1
949.8,546,19.4,16.3,82,12.39,241,7.6,296.9,332.9,299.1
949.2,551,19.4,16.2,82,12.27,241,7.7,296.9,332.6,299.1
948.6,556,19.4,16.2,82,12.27,241,7.7,297.0,332.7,299.2
948.0,562,19.4,16.2,82,12.30,242,7.7,297.0,332.8,299.2
947.4,567,19.3,16.2,82,12.30,242,7.7,297.0,332.8,299.2
946.8,573,19.2,16.1,82,12.26,242,7.7,297.0,332.6,299.2
946.3,578,19.2,16.1,82,12.25,243,7.7,297.0,332.6,299.2
945.7,583,19.1,16.1,83,12.26,243,7.7,297.0,332.6,299.2
945.1,588,19.1,16.1,83,12.26,243,7.7,297.0,332.6,299.2
944.5,594,19.0,16.1,83,12.25,244,7.7,297.0,332.6,299.2
944.0,599,19.0,16.0,83,12.24,244,7.7,297.0,332.5,299.1
943.4,604,18.9,16.0,83,12.23,244,7.7,297.0,332.5,299.2
942.8,609,18.9,16.0,83,12.23,245,7.7,297.0,332.6,299.2
942.3,614,18.9,16.0,83,12.22,245,7.7,297.0,332.5,299.2
941.7,619,18.9,15.9,83,12.19,245,7.7,297.1,332.5,299.2
941.2,624,18.9,15.9,83,12.15,246,7.6,297.1,332.5,299.3
940.6,630,18.9,15.8,83,12.12,246,7.6,297.2,332.4,299.3
940.0,635,18.8,15.8,83,12.09,247,7.6,297.2,332.4,299.3
939.4,640,18.8,15.8,83,12.08,247,7.5,297.2,332.4,299.3
938.8,646,18.7,15.7,83,12.06,248,7.5,297.2,332.3,299.4
938.2,651,18.7,15.7,83,12.03,248,7.4,297.2,332.3,299.4
937.7,656,18.7,15.7,83,12.01,249,7.4,297.2,332.2,299.4
937.1,661,18.6,15.7,83,12.04,249,7.3,297.2,332.3,299.4
936.6,666,18.6,15.7,83,12.07,250,7.3,297.2,332.4,299.4
936.1,671,18.5,15.7,84,12.10,251,7.2,297.2,332.5,299.4
935.6,676,18.5,15.7,84,12.10,251,7.1,297.2,332.5,299.4
935.1,680,18.4,15.7,84,12.09,252,7.1,297.2,332.5,299.4
934.6,685,18.4,15.7,84,12.07,252,7.0,297.3,332.4,299.4
934.1,689,18.4,15.6,84,12.00,253,6.9,297.3,332.3,299.4
933.6,694,18.5,15.4,83,11.89,253,6.8,297.4,332.0,299.5
933.1,698,18.5,15.3,81,11.77,254,6.7,297.5,331.8,299.6
932.6,703,18.5,15.1,81,11.67,254,6.6,297.6,331.6,299.6
932.1,707,18.6,15.0,80,11.59,255,6.5,297.6,331.5,299.7
931.6,712,18.6,15.0,80,11.59,255,6.4,297.7,331.5,299.7
931.1,717,18.5,15.1,80,11.63,256,6.3,297.7,331.6,299.8
930.6,722,18.5,15.1,81,11.67,256,6.2,297.7,331.7,299.7
930.0,727,18.4,15.1,81,11.66,256,6.1,297.7,331.7,299.7
929.5,731,18.4,15.0,81,11.61,257,6.0,297.7,331.6,299.8
929.0,737,18.4,14.9,80,11.56,257,5.9,297.7,331.5,299.8
928.4,742,18.3,14.9,80,11.52,257,5.8,297.7,331.4,299.8
927.8,747,18.3,14.7,80,11.43,258,5.7,297.8,331.2,299.8
927.3,752,18.3,14.6,79,11.30,258,5.6,297.8,330.9,299.8
926.7,758,18.4,14.4,78,11.18,258,5.5,297.9,330.6,299.9
926.1,763,18.4,14.2,76,11.05,258,5.4,298.0,330.4,300.0
925.5,769,18.5,14.1,75,10.97,259,5.3,298.2,330.3,300.1
925.0,773,18.5,14.0,75,10.95,259,5.3,298.2,330.3,300.2
924.9,774,18.5,14.0,75,10.95,259,5.2,298.3,330.4,300.2
924.4,779,18.5,14.0,75,10.92,259,5.1,298.3,330.3,300.2
923.8,784,18.5,13.9,75,10.90,259,5.1,298.3,330.3,300.3
923.3,789,18.5,13.9,75,10.88,259,5.0,298.3,330.3,300.3
922.8,794,18.5,13.9,75,10.90,260,5.0,298.4,330.4,300.3
922.2,799,18.4,13.9,75,10.92,260,5.0,298.4,330.4,300.4
921.7,804,18.4,13.9,75,10.92,260,5.0,298.4,330.5,300.4
921.1,809,18.4,13.9,75,10.89,261,5.0,298.4,330.4,300.4
920.5,815,18.3,13.8,75,10.85,261,5.0,298.4,330.3,300.4
920.0,820,18.3,13.8,75,10.82,261,5.0,298.4,330.2,300.4
919.4,826,18.2,13.7,75,10.80,262,5.0,298.4,330.1,300.4
918.8,831,18.2,13.7,75,10.81,262,5.1,298.4,330.2,300.4
918.2,836,18.1,13.8,76,10.85,263,5.1,298.4,330.2,300.4
917.6,842,18.0,13.8,76,10.89,263,5.2,298.4,330.4,300.4
917.1,847,18.0,13.8,77,10.89,263,5.2,298.4,330.3,300.4
916.5,852,17.9,13.8,77,10.88,264,5.3,298.4,330.3,300.4
916.0,858,17.9,13.8,77,10.89,264,5.4,298.4,330.4,300.4
915.4,863,17.8,13.8,77,10.92,265,5.4,298.4,330.5,300.4
914.9,868,17.8,13.9,78,10.96,265,5.5,298.4,330.6,300.4
914.3,873,17.7,14.0,79,11.03,266,5.6,298.4,330.8,300.4
913.8,878,17.7,14.0,79,11.09,266,5.7,298.4,330.9,300.4
913.2,884,17.6,14.0,79,11.08,266,5.7,298.4,330.9,300.4
912.6,889,17.6,14.0,79,11.05,267,5.8,298.4,330.8,300.4
911.9,896,17.5,13.9,80,11.04,267,5.8,298.4,330.8,300.4
911.2,902,17.5,13.9,80,11.03,267,5.9,298.4,330.8,300.4
910.6,908,17.4,13.9,80,11.01,268,5.9,298.4,330.7,300.4
909.9,915,17.3,13.8,80,10.96,268,6.0,298.4,330.6,300.4
909.2,921,17.3,13.7,80,10.93,268,6.0,298.4,330.5,300.4
908.5,927,17.3,13.7,80,10.92,268,6.0,298.5,330.5,300.5
907.9,933,17.3,13.7,80,10.94,269,6.1,298.5,330.6,300.5
907.3,939,17.2,13.7,80,10.94,269,6.1,298.5,330.7,300.5
906.7,945,17.2,13.6,80,10.88,269,6.1,298.6,330.5,300.5
906.1,951,17.2,13.5,79,10.78,269,6.1,298.6,330.2,300.5
905.5,956,17.2,13.4,78,10.70,269,6.1,298.7,330.1,300.6
904.9,962,17.2,13.3,78,10.63,269,6.1,298.7,330.0,300.6
904.3,967,17.2,13.2,78,10.61,269,6.1,298.8,330.0,300.7
903.8,972,17.1,13.2,78,10.63,269,6.1,298.8,330.0,300.7
903.2,977,17.1,13.2,78,10.63,269,6.1,298.8,330.1,300.7
902.7,983,17.1,13.1,78,10.58,269,6.1,298.9,330.0,300.8
902.2,987,17.1,13.0,77,10.52,269,6.0,298.9,329.9,300.8
901.7,992,17.1,13.0,77,10.50,269,6.0,298.9,329.9,300.8
901.1,997,17.1,13.0,77,10.50,268,6.0,299.0,329.9,300.9
900.6,1002,17.0,13.0,77,10.50,268,6.0,299.0,329.9,300.9
900.1,1007,17.0,12.9,77,10.45,268,5.9,299.0,329.8,300.9
899.6,1012,17.0,12.8,76,10.37,268,5.9,299.0,329.5,300.9
899.0,1018,16.9,12.6,76,10.28,267,5.9,299.1,329.3,300.9
898.4,1023,16.9,12.5,75,10.16,267,5.8,299.1,329.0,300.9
897.8,1029,16.9,12.3,74,10.06,267,5.8,299.1,328.8,300.9
897.2,1035,16.9,12.2,74,10.02,266,5.7,299.1,328.7,300.9
896.6,1041,16.8,12.2,74,10.04,266,5.7,299.1,328.7,300.9
895.9,1047,16.8,12.3,75,10.06,266,5.6,299.1,328.8,301.0
895.3,1053,16.7,12.3,75,10.09,265,5.6,299.2,328.9,301.0
894.7,1059,16.7,12.2,75,10.05,265,5.5,299.2,328.8,301.0
894.1,1064,16.6,12.2,75,10.00,265,5.5,299.2,328.7,301.0
893.5,1070,16.6,12.1,75,10.00,265,5.4,299.2,328.7,301.0
892.9,1075,16.5,12.1,75,9.98,264,5.3,299.2,328.6,301.0
892.4,1081,16.5,12.0,75,9.92,264,5.3,299.2,328.5,301.0
891.8,1086,16.4,11.9,75,9.87,264,5.2,299.2,328.3,301.0
891.2,1092,16.4,11.9,75,9.86,264,5.1,299.2,328.3,301.0
890.7,1097,16.4,11.8,75,9.84,264,5.0,299.3,328.3,301.0
890.1,1103,16.3,11.9,75,9.85,264,5.0,299.3,328.3,301.0
889.5,1108,16.3,11.9,75,9.86,263,4.9,299.3,328.4,301.1
889.0,1113,16.2,11.9,75,9.90,263,4.8,299.3,328.5,301.1
888.4,1119,16.2,12.0,76,9.94,263,4.7,299.3,328.6,301.1
887.9,1124,16.1,12.0,76,9.97,263,4.6,299.3,328.7,301.1
887.3,1129,16.1,12.0,77,10.01,263,4.5,299.3,328.8,301.1
886.8,1134,16.1,12.1,77,10.05,264,4.5,299.3,328.9,301.1
886.3,1139,16.0,12.1,78,10.06,264,4.4,299.3,329.0,301.1
885.8,1144,16.0,12.1,78,10.06,264,4.3,299.3,329.0,301.1
885.3,1149,15.9,12.1,78,10.06,264,4.2,299.3,329.0,301.1
884.8,1154,15.9,12.1,78,10.04,264,4.2,299.3,328.9,301.1
884.3,1159,15.8,12.1,78,10.06,264,4.1,299.3,329.0,301.1
883.8,1163,15.8,12.1,79,10.10,264,4.1,299.3,329.1,301.1
883.3,1168,15.7,12.1,79,10.10,265,4.0,299.3,329.1,301.1
882.8,1173,15.7,12.1,79,10.09,265,4.0,299.3,329.1,301.1
882.3,1178,15.6,12.0,79,10.07,265,3.9,299.3,329.0,301.1
881.7,1183,15.6,12.0,79,10.03,265,3.9,299.3,328.9,301.1
881.2,1188,15.6,11.9,79,10.00,266,3.9,299.4,328.9,301.2
880.7,1193,15.5,11.9,79,9.97,266,3.9,299.4,328.8,301.2
880.1,1198,15.5,11.8,79,9.94,266,3.8,299.4,328.7,301.2
879.5,1204,15.5,11.8,78,9.90,266,3.8,299.4,328.7,301.2
878.9,1210,15.4,11.7,78,9.88,267,3.8,299.4,328.6,301.2
878.3,1216,15.4,11.6,78,9.84,267,3.9,299.4,328.5,301.2
877.6,1222,15.4,11.5,78,9.76,267,3.9,299.5,328.3,301.2
877.0,1228,15.3,11.4,77,9.67,267,3.9,299.5,328.1,301.2
876.4,1235,15.3,11.3,77,9.61,267,3.9,299.5,327.9,301.3
875.8,1241,15.3,11.2,77,9.60,267,3.9,299.5,327.9,301.3
875.2,1246,15.2,11.2,77,9.61,267,4.0,299.6,328.0,301.3
874.6,1252,15.2,11.3,78,9.64,267,4.0,299.6,328.1,301.3
873.9,1258,15.1,11.3,78,9.64,267,4.0,299.6,328.1,301.3
873.3,1264,15.1,11.1,77,9.54,267,4.1,299.6,327.8,301.3
872.7,1270,15.1,10.9,76,9.40,267,4.1,299.7,327.5,301.4
872.0,1277,15.1,10.6,75,9.26,267,4.1,299.8,327.2,301.4
871.4,1283,15.1,10.5,74,9.18,267,4.2,299.8,327.0,301.5
870.8,1289,15.1,10.5,74,9.21,267,4.2,299.9,327.2,301.5
870.1,1295,15.1,10.6,75,9.29,267,4.3,299.9,327.4,301.6
869.5,1302,15.0,10.7,75,9.36,267,4.3,299.9,327.7,301.6
868.9,1308,15.0,10.8,76,9.37,267,4.3,300.0,327.7,301.6
868.3,1313,15.0,10.7,76,9.34,267,4.4,300.0,327.7,301.6
867.7,1319,14.9,10.6,76,9.30,267,4.4,300.0,327.5,301.6
867.1,1325,14.9,10.6,76,9.28,267,4.4,300.0,327.5,301.7
866.5,1331,14.8,10.7,76,9.34,267,4.5,300.0,327.7,301.7
865.9,1336,14.8,10.8,77,9.43,268,4.5,300.0,327.9,301.7
865.3,1342,14.7,10.9,78,9.50,268,4.5,300.0,328.1,301.7
864.7,1348,14.6,10.9,78,9.54,268,4.6,300.0,328.2,301.7
864.1,1354,14.6,10.9,79,9.54,269,4.6,300.0,328.3,301.7
863.6,1360,14.5,10.9,79,9.52,269,4.7,300.0,328.2,301.7
863.0,1365,14.5,10.9,79,9.51,270,4.7,300.0,328.2,301.7
862.4,1371,14.4,10.9,79,9.52,271,4.8,300.0,328.2,301.7
861.8,1377,14.4,10.9,79,9.54,271,4.8,300.0,328.3,301.7
861.3,1382,14.3,10.9,80,9.52,272,4.9,300.0,328.2,301.7
860.8,1387,14.3,10.8,80,9.50,273,4.9,300.0,328.2,301.7
860.2,1392,14.3,10.8,80,9.49,274,5.0,300.1,328.2,301.8
859.8,1397,14.2,10.8,80,9.47,274,5.0,300.1,328.1,301.8
859.3,1402,14.2,10.7,79,9.44,275,5.1,300.1,328.1,301.8
858.8,1406,14.2,10.6,79,9.41,276,5.1,300.1,328.0,301.8
858.4,1410,14.2,10.6,79,9.39,277,5.1,300.1,328.0,301.8
858.0,1414,14.1,10.6,79,9.40,277,5.2,300.1,328.0,301.8
857.6,1418,14.1,10.6,80,9.42,278,5.2,300.1,328.1,301.8
857.2,1422,14.1,10.6,80,9.42,279,5.3,300.1,328.1,301.8
856.8,1426,14.1,10.6,80,9.40,279,5.3,300.2,328.1,301.9
856.4,1430,14.1,10.6,80,9.40,280,5.3,300.2,328.1,301.9
856.0,1434,14.0,10.6,80,9.40,281,5.3,300.2,328.1,301.9
855.6,1438,14.0,10.6,80,9.41,281,5.3,300.2,328.2,301.9
855.1,1443,14.0,10.6,80,9.43,281,5.3,300.3,328.2,302.0
854.7,1447,13.9,10.6,80,9.43,282,5.3,300.3,328.2,302.0
854.2,1452,13.9,10.6,80,9.43,282,5.2,300.3,328.2,302.0
853.7,1457,13.9,10.6,81,9.43,282,5.2,300.3,328.2,302.0
853.2,1462,13.8,10.6,81,9.44,282,5.1,300.3,328.3,302.0
852.6,1467,13.8,10.6,81,9.47,282,5.1,300.3,328.4,302.0
852.1,1473,13.7,10.6,82,9.49,282,5.0,300.3,328.4,302.0
851.5,1478,13.7,10.6,82,9.46,281,4.9,300.3,328.4,302.0
851.0,1483,13.6,10.5,81,9.40,281,4.9,300.3,328.2,302.0
850.5,1489,13.6,10.4,81,9.35,281,4.8,300.3,328.1,302.0
850.0,1493,13.6,10.4,81,9.33,281,4.8,300.4,328.1,302.0
849.5,1499,13.6,10.4,81,9.34,279,4.7,300.4,328.1,302.1
849.0,1504,13.5,10.4,81,9.35,278,4.6,300.4,328.1,302.1
848.4,1509,13.5,10.3,81,9.34,278,4.5,300.4,328.1,302.1
847.9,1515,13.4,10.3,82,9.33,277,4.5,300.4,328.1,302.1
847.3,1520,13.4,10.3,82,9.33,276,4.5,300.4,328.1,302.1
846.7,1526,13.2,10.4,83,9.41,275,4.4,300.3,328.3,302.0
846.2,1532,13.1,10.6,84,9.51,273,4.4,300.3,328.5,302.0
845.6,1537,13.0,10.6,85,9.57,272,4.4,300.2,328.6,302.0
845.0,1543,13.0,10.7,86,9.59,271,4.4,300.2,328.7,302.0
844.5,1548,12.9,10.7,86,9.59,270,4.4,300.2,328.7,302.0
843.9,1554,12.9,10.6,86,9.57,269,4.4,300.3,328.6,302.0
843.3,1560,12.8,10.6,86,9.55,269,4.4,300.3,328.6,302.0
842.7,1566,12.8,10.5,86,9.51,268,4.5,300.2,328.5,302.0
842.1,1572,12.7,10.4,86,9.46,267,4.5,300.2,328.3,302.0
841.5,1579,12.7,10.3,85,9.38,266,4.5,300.3,328.1,302.0
840.8,1585,12.7,10.2,85,9.33,266,4.6,300.3,328.0,302.0
840.2,1591,12.6,10.1,85,9.28,265,4.6,300.3,327.9,302.0
839.6,1597,12.6,10.0,84,9.23,265,4.7,300.4,327.8,302.1
838.9,1604,12.6,9.9,83,9.15,264,4.8,300.4,327.6,302.1
838.3,1610,12.6,9.8,83,9.11,264,4.8,300.5,327.6,302.1
837.7,1617,12.5,9.8,83,9.10,264,4.9,300.5,327.6,302.2
837.0,1623,12.5,9.8,83,9.10,263,4.9,300.5,327.6,302.2
836.3,1630,12.4,9.7,84,9.09,263,4.9,300.5,327.6,302.2
835.7,1637,12.4,9.7,84,9.06,263,5.0,300.5,327.5,302.2
835.0,1643,12.3,9.6,84,9.04,263,5.0,300.6,327.4,302.2
834.3,1650,12.3,9.6,84,9.02,263,5.0,300.6,327.4,302.2
833.6,1657,12.2,9.6,84,9.03,263,5.1,300.6,327.4,302.2
833.0,1664,12.1,9.6,84,9.05,263,5.1,300.6,327.5,302.2
832.3,1671,12.1,9.6,85,9.03,263,5.1,300.6,327.4,302.2
831.6,1677,12.0,9.5,84,8.97,263,5.1,300.6,327.3,302.2
831.0,1684,12.0,9.3,84,8.88,263,5.1,300.6,327.1,302.2
830.4,1690,12.0,9.2,83,8.80,263,5.1,300.6,326.9,302.2
829.8,1696,11.9,9.0,83,8.74,262,5.1,300.7,326.7,302.3
829.2,1702,11.9,8.9,82,8.66,262,5.0,300.7,326.5,302.3
828.7,1707,11.8,8.6,81,8.51,263,5.0,300.7,326.1,302.2
828.2,1712,11.8,8.4,79,8.36,263,5.0,300.7,325.7,302.2
827.7,1717,11.8,8.2,79,8.28,263,5.0,300.8,325.5,302.3
827.2,1722,11.8,8.3,79,8.32,263,4.9,300.8,325.6,302.3
826.7,1727,11.7,8.5,81,8.45,263,4.9,300.8,326.0,302.3
826.2,1732,11.6,8.6,82,8.52,263,4.9,300.8,326.2,302.3
825.7,1737,11.6,8.5,81,8.47,263,4.8,300.7,326.0,302.3
825.2,1743,11.6,8.1,79,8.23,263,4.8,300.8,325.3,302.3
824.6,1748,11.6,7.4,75,7.85,264,4.8,300.8,324.3,302.3
824.1,1754,11.7,6.8,72,7.54,264,4.8,301.0,323.6,302.4
823.5,1759,11.7,6.6,71,7.46,264,4.8,301.1,323.5,302.5
823.0,1765,11.8,6.7,71,7.49,264,4.8,301.2,323.7,302.6
822.4,1771,11.7,6.7,71,7.51,265,4.8,301.2,323.8,302.6
821.9,1776,11.7,6.7,71,7.51,265,4.8,301.3,323.8,302.6
821.4,1781,11.7,6.7,72,7.52,265,4.8,301.3,323.8,302.6
820.9,1786,11.6,6.7,72,7.53,265,4.8,301.3,323.9,302.6
820.4,1791,11.6,6.7,72,7.54,266,4.8,301.3,323.9,302.7
819.9,1796,11.5,6.7,72,7.54,266,4.8,301.3,323.9,302.7
819.5,1801,11.5,6.7,72,7.54,266,4.8,301.3,323.9,302.7
819.0,1805,11.5,6.7,72,7.53,266,4.8,301.3,323.9,302.7
818.6,1810,11.5,6.6,72,7.51,266,4.8,301.4,323.9,302.7
818.1,1815,11.5,6.6,72,7.47,266,4.9,301.4,323.8,302.8
817.6,1820,11.5,6.4,71,7.40,267,4.9,301.5,323.7,302.8
817.1,1825,11.5,6.3,70,7.34,267,4.9,301.5,323.6,302.9
816.6,1830,11.5,6.2,70,7.28,266,4.9,301.6,323.5,302.9
816.1,1836,11.5,6.0,69,7.22,266,4.9,301.6,323.4,302.9
815.5,1841,11.5,5.9,69,7.17,266,4.9,301.7,323.3,303.0
815.0,1847,11.5,5.9,69,7.15,266,4.9,301.7,323.3,303.0
814.4,1853,11.4,5.9,69,7.17,266,4.9,301.8,323.3,303.1
813.8,1858,11.4,5.9,69,7.18,266,4.9,301.8,323.4,303.1
813.3,1864,11.3,5.9,69,7.17,265,4.9,301.8,323.4,303.1
812.7,1870,11.3,5.8,69,7.13,265,4.9,301.8,323.3,303.1
812.1,1876,11.2,5.7,69,7.09,265,4.9,301.8,323.2,303.1
811.6,1881,11.2,5.6,69,7.05,264,4.9,301.8,323.1,303.1
811.1,1887,11.2,5.6,69,7.04,264,4.9,301.8,323.1,303.1
810.5,1892,11.1,5.6,69,7.05,264,4.8,301.9,323.1,303.1
810.0,1898,11.1,5.6,69,7.06,263,4.8,301.9,323.2,303.2
809.5,1904,11.0,5.6,69,7.07,263,4.8,301.9,323.2,303.2
808.9,1909,11.0,5.6,69,7.07,262,4.8,301.9,323.2,303.2
808.3,1915,10.9,5.5,69,7.05,262,4.7,301.9,323.1,303.2
807.8,1921,10.9,5.4,69,6.99,261,4.7,301.9,323.0,303.2
807.2,1927,10.9,5.2,68,6.90,261,4.7,301.9,322.8,303.2
806.7,1932,10.9,5.0,67,6.79,260,4.7,302.0,322.5,303.2
806.1,1938,10.9,4.8,66,6.71,259,4.7,302.1,322.3,303.3
805.6,1943,10.8,4.7,66,6.68,259,4.7,302.1,322.3,303.3
805.0,1949,10.8,4.6,65,6.62,258,4.6,302.1,322.1,303.3
804.5,1955,10.8,4.3,64,6.49,257,4.6,302.2,321.8,303.4
804.0,1960,10.8,3.9,62,6.32,256,4.6,302.3,321.4,303.4
803.4,1966,10.9,3.7,61,6.23,255,4.6,302.3,321.2,303.5
802.9,1972,10.9,3.7,61,6.21,254,4.6,302.4,321.3,303.5
802.3,1978,10.8,3.7,61,6.22,253,4.6,302.4,321.3,303.6
801.8,1983,10.8,3.6,61,6.21,253,4.7,302.4,321.3,303.6
801.2,1989,10.7,3.6,61,6.18,252,4.7,302.4,321.2,303.6
800.7,1994,10.7,3.5,61,6.16,251,4.7,302.4,321.2,303.6
800.2,2000,10.6,3.5,61,6.15,250,4.7,302.4,321.1,303.6
799.6,2005,10.6,3.5,61,6.15,249,4.7,302.5,321.2,303.6
