PRES,HGHT,TEMP,DWPT,RELH,MIXR,DRCT,SPED,THTA,THTE,THTV
1015.3,31,25.4,20.7,75,15.29,98,5.6,297.3,341.7,300.0
1014.6,37,25.5,20.6,74,15.23,91,4.7,297.5,341.8,300.2
1014.0,42,25.6,20.5,74,15.14,87,4.6,297.5,341.6,300.2
1013.3,48,25.6,20.4,73,15.08,86,4.8,297.6,341.5,300.3
1012.5,55,25.5,20.2,73,14.92,86,5.1,297.6,341.1,300.3
1012.0,59,25.5,20.1,72,14.75,86,5.5,297.6,340.6,300.3
1011.5,63,25.4,19.9,71,14.63,86,5.8,297.6,340.2,300.2
1010.7,70,25.4,19.8,71,14.56,86,6.1,297.6,340.0,300.2
1010.1,76,25.3,19.7,71,14.49,86,6.4,297.6,339.8,300.2
1009.4,82,25.3,19.7,71,14.46,86,6.7,297.6,339.7,300.2
1008.8,87,25.2,19.7,71,14.46,86,7.0,297.6,339.7,300.2
1008.2,93,25.2,19.7,72,14.44,86,7.2,297.6,339.7,300.2
1007.6,98,25.1,19.6,72,14.40,86,7.5,297.6,339.5,300.2
1007.0,103,25.1,19.5,71,14.34,86,7.7,297.6,339.4,300.2
1006.4,108,25.0,19.5,71,14.31,86,7.9,297.6,339.3,300.2
1005.8,113,25.0,19.5,72,14.33,86,8.1,297.6,339.4,300.2
1005.2,119,24.9,19.5,72,14.38,86,8.3,297.6,339.5,300.2
1004.6,124,24.9,19.5,72,14.39,86,8.4,297.6,339.5,300.2
1004.0,129,24.8,19.5,73,14.39,86,8.5,297.6,339.5,300.2
1003.3,135,24.8,19.6,73,14.42,86,8.7,297.6,339.6,300.2
1002.7,141,24.7,19.6,73,14.43,86,8.8,297.6,339.7,300.2
1002.0,147,24.7,19.6,73,14.43,86,8.8,297.6,339.7,300.2
1001.3,152,24.6,19.5,73,14.43,87,8.9,297.6,339.7,300.2
1000.7,158,24.5,19.5,74,14.44,87,8.9,297.6,339.7,300.2
1000.0,164,24.5,19.6,74,14.48,87,9.0,297.6,339.8,300.2
999.3,170,24.4,19.6,75,14.54,87,9.0,297.6,340.0,300.2
998.7,176,24.4,19.7,75,14.57,87,9.0,297.6,340.1,300.2
998.0,181,24.3,19.6,75,14.54,87,9.0,297.6,339.9,300.2
997.4,187,24.2,19.5,75,14.47,87,9.0,297.6,339.7,300.2
996.8,193,24.2,19.5,75,14.48,87,9.0,297.6,339.8,300.2
996.1,198,24.2,19.6,76,14.55,87,9.0,297.6,340.0,300.2
995.5,204,24.1,19.6,76,14.60,87,9.0,297.6,340.1,300.2
994.8,210,24.0,19.7,77,14.65,87,9.0,297.6,340.3,300.2
994.2,215,24.0,19.7,77,14.69,88,8.9,297.6,340.4,300.3
993.6,221,23.9,19.7,77,14.71,88,8.9,297.6,340.4,300.3
993.0,226,23.9,19.7,77,14.69,88,8.9,297.6,340.4,300.2
992.3,232,23.8,19.6,77,14.65,88,8.9,297.6,340.3,300.2
991.8,237,23.8,19.6,77,14.61,88,8.8,297.6,340.1,300.2
991.2,242,23.7,19.6,78,14.64,88,8.8,297.6,340.2,300.2
990.6,247,23.7,19.7,78,14.71,88,8.8,297.6,340.5,300.3
990.0,252,23.6,19.7,79,14.79,88,8.8,297.6,340.7,300.3
989.4,258,23.6,19.8,79,14.87,88,8.7,297.6,340.9,300.3
988.8,263,23.5,19.8,80,14.90,88,8.7,297.6,341.0,300.3
988.1,269,23.5,19.8,80,14.91,88,8.7,297.6,341.1,300.3
987.5,275,23.4,19.8,80,14.84,88,8.7,297.6,340.8,300.3
986.9,280,23.4,19.6,80,14.73,88,8.7,297.6,340.5,300.3
986.2,286,23.3,19.6,80,14.68,88,8.7,297.6,340.4,300.2
985.6,291,23.2,19.5,80,14.66,88,8.7,297.6,340.3,300.2
985.0,297,23.2,19.5,80,14.64,88,8.7,297.6,340.2,300.2
984.4,302,23.2,19.5,80,14.65,88,8.8,297.6,340.3,300.2
983.8,307,23.1,19.5,80,14.67,88,8.8,297.6,340.3,300.3
983.2,313,23.0,19.5,80,14.64,88,8.8,297.6,340.2,300.2
982.6,318,23.0,19.5,80,14.63,88,8.9,297.6,340.2,300.2
982.0,323,22.9,19.5,81,14.66,88,8.9,297.6,340.3,300.2
981.4,329,22.9,19.5,81,14.68,87,8.9,297.6,340.4,300.3
980.7,335,22.8,19.5,81,14.67,87,9.0,297.6,340.3,300.3
980.1,341,22.8,19.4,81,14.63,87,9.0,297.6,340.2,300.2
979.4,346,22.7,19.4,81,14.62,87,9.1,297.6,340.2,300.2
978.7,353,22.7,19.4,82,14.60,87,9.1,297.6,340.1,300.2
978.1,359,22.6,19.3,82,14.59,87,9.2,297.6,340.1,300.2
977.4,365,22.6,19.4,82,14.63,87,9.2,297.6,340.2,300.2
976.7,371,22.5,19.4,82,14.65,87,9.2,297.6,340.3,300.3
976.0,377,22.4,19.4,83,14.64,87,9.3,297.6,340.3,300.2
975.3,384,22.4,19.4,83,14.65,87,9.3,297.6,340.3,300.2
974.6,390,22.3,19.4,84,14.70,87,9.3,297.6,340.4,300.3
973.9,396,22.3,19.4,84,14.72,87,9.3,297.7,340.5,300.3
973.2,402,22.2,19.4,84,14.70,87,9.4,297.7,340.4,300.3
972.5,408,22.1,19.4,84,14.69,87,9.4,297.6,340.4,300.3
971.8,414,22.1,19.4,85,14.70,87,9.4,297.6,340.4,300.3
971.2,420,22.0,19.4,85,14.75,87,9.4,297.6,340.6,300.3
970.5,426,22.0,19.4,85,14.75,87,9.4,297.6,340.6,300.3
969.9,432,21.9,19.4,85,14.74,87,9.4,297.6,340.5,300.3
969.2,438,21.8,19.3,86,14.71,87,9.4,297.6,340.4,300.3
968.6,443,21.8,19.2,85,14.65,87,9.3,297.6,340.3,300.2
968.0,449,21.7,19.2,86,14.65,87,9.3,297.6,340.3,300.2
967.4,455,21.7,19.3,86,14.72,87,9.3,297.6,340.5,300.2
966.7,460,21.6,19.3,87,14.76,88,9.3,297.6,340.6,300.3
966.1,465,21.6,19.3,87,14.78,88,9.2,297.6,340.7,300.3
965.5,471,21.5,19.3,87,14.76,88,9.2,297.6,340.6,300.3
964.9,476,21.5,19.2,87,14.66,88,9.2,297.6,340.3,300.2
964.3,482,21.4,19.1,87,14.57,88,9.1,297.6,340.0,300.2
963.7,487,21.4,19.1,87,14.57,88,9.1,297.6,340.0,300.2
963.2,492,21.3,19.1,87,14.60,88,9.1,297.6,340.1,300.2
962.6,498,21.3,19.1,88,14.64,88,9.0,297.6,340.2,300.2
962.0,503,21.2,19.2,88,14.69,88,9.0,297.6,340.4,300.2
961.4,508,21.2,19.2,88,14.70,88,9.0,297.6,340.4,300.2
960.9,513,21.1,19.1,89,14.68,88,8.9,297.6,340.3,300.2
960.4,518,21.1,19.1,89,14.64,88,8.9,297.6,340.2,300.2
959.8,523,21.0,19.1,89,14.61,89,8.9,297.6,340.1,300.2
959.3,527,21.0,19.0,89,14.60,89,8.9,297.6,340.1,300.2
958.8,532,20.9,19.0,89,14.61,89,8.9,297.6,340.1,300.2
958.2,537,20.9,19.1,89,14.64,89,8.9,297.6,340.2,300.2
957.7,542,20.8,19.1,90,14.65,89,8.9,297.6,340.3,300.2
957.2,546,20.8,19.1,90,14.68,89,8.9,297.6,340.3,300.2
956.6,551,20.7,19.0,90,14.65,89,8.9,297.6,340.3,300.2
956.1,556,20.7,19.0,90,14.60,89,8.9,297.6,340.1,300.2
955.6,561,20.6,19.0,90,14.58,89,8.9,297.6,340.1,300.2
955.1,566,20.6,19.0,90,14.59,89,8.9,297.6,340.1,300.2
954.6,570,20.6,19.0,91,14.60,89,8.9,297.6,340.1,300.2
954.1,575,20.5,18.9,91,14.59,89,9.0,297.6,340.1,300.2
953.6,579,20.5,18.9,91,14.57,89,9.0,297.6,340.0,300.2
953.1,583,20.4,18.9,91,14.57,89,9.0,297.6,340.0,300.2
952.6,588,20.4,18.9,91,14.60,89,9.0,297.6,340.1,300.2
952.2,592,20.3,19.0,92,14.64,89,9.1,297.6,340.2,300.2
951.7,596,20.3,19.0,92,14.64,89,9.1,297.6,340.2,300.2
951.2,601,20.3,19.0,92,14.65,89,9.1,297.6,340.3,300.2
950.7,605,20.2,18.9,92,14.65,89,9.2,297.6,340.3,300.3
950.2,610,20.2,18.9,93,14.64,89,9.2,297.6,340.2,300.2
949.6,615,20.1,18.9,92,14.59,89,9.2,297.6,340.1,300.2
949.1,620,20.1,18.8,92,14.54,89,9.2,297.6,339.9,300.2
948.5,625,20.0,18.7,92,14.49,89,9.2,297.7,339.8,300.2
947.9,631,20.0,18.7,92,14.43,90,9.3,297.7,339.7,300.2
947.4,636,20.0,18.6,92,14.34,90,9.3,297.7,339.4,300.2
946.8,641,19.9,18.5,91,14.26,90,9.3,297.7,339.2,300.2
946.1,647,19.9,18.4,91,14.24,90,9.3,297.7,339.2,300.3
945.5,653,19.8,18.4,92,14.25,91,9.2,297.7,339.2,300.3
944.9,658,19.8,18.5,92,14.29,91,9.2,297.7,339.3,300.2
944.3,664,19.7,18.5,93,14.30,91,9.2,297.7,339.3,300.2
943.7,670,19.7,18.5,93,14.32,92,9.2,297.7,339.4,300.2
943.0,675,19.6,18.5,93,14.34,92,9.2,297.7,339.4,300.2
942.4,681,19.5,18.5,94,14.33,92,9.1,297.7,339.4,300.2
941.8,687,19.5,18.4,93,14.28,93,9.1,297.7,339.3,300.2
941.2,692,19.4,18.3,93,14.22,93,9.1,297.7,339.1,300.2
940.6,698,19.4,18.3,93,14.21,94,9.0,297.7,339.1,300.2
940.0,703,19.3,18.3,94,14.20,94,9.0,297.7,339.0,300.2
939.4,709,19.3,18.2,93,14.17,95,9.0,297.7,339.0,300.3
938.8,715,19.3,18.2,94,14.15,95,8.9,297.7,338.9,300.2
938.2,720,19.2,18.2,94,14.13,96,8.9,297.7,338.9,300.3
937.5,726,19.2,18.2,94,14.15,96,8.9,297.8,339.0,300.3
936.9,732,19.1,18.3,95,14.23,96,8.9,297.7,339.2,300.3
936.3,737,19.0,18.3,96,14.27,97,8.9,297.7,339.3,300.3
935.7,743,19.0,18.3,96,14.30,97,8.9,297.7,339.4,300.3
935.0,749,18.9,18.3,96,14.32,97,8.8,297.7,339.4,300.3
934.4,755,18.9,18.3,96,14.28,98,8.9,297.7,339.3,300.3
933.7,761,18.8,18.2,96,14.19,98,8.9,297.7,339.0,300.3
933.1,767,18.8,18.0,95,14.08,98,8.9,297.7,338.7,300.3
932.4,773,18.7,17.9,95,13.95,98,8.9,297.8,338.4,300.2
931.8,779,18.7,17.7,94,13.84,98,8.9,297.8,338.1,300.2
931.2,785,18.6,17.6,94,13.77,99,9.0,297.8,337.9,300.2
930.6,790,18.6,17.6,94,13.71,99,9.0,297.8,337.7,300.2
930.0,795,18.6,17.5,93,13.62,99,9.0,297.8,337.5,300.3
929.5,800,18.6,17.3,92,13.50,99,9.1,297.9,337.2,300.3
929.0,805,18.5,17.3,92,13.46,99,9.1,297.9,337.1,300.3
928.5,810,18.5,17.3,92,13.46,98,9.2,297.9,337.1,300.3
928.0,814,18.5,17.3,93,13.48,98,9.2,297.9,337.2,300.3
927.5,819,18.4,17.2,93,13.46,98,9.3,297.9,337.2,300.3
927.0,823,18.4,17.1,92,13.39,98,9.4,298.0,337.0,300.3
926.5,828,18.4,17.1,92,13.33,98,9.4,298.0,336.9,300.4
926.0,833,18.4,17.0,92,13.32,98,9.5,298.1,336.9,300.4
925.4,838,18.4,17.1,92,13.34,98,9.5,298.1,337.0,300.5
925.0,842,18.4,17.1,92,13.34,98,9.5,298.1,337.0,300.5
924.9,843,18.3,17.1,92,13.35,97,9.6,298.1,337.0,300.5
924.3,848,18.3,17.0,92,13.34,97,9.6,298.1,337.0,300.5
923.8,853,18.3,17.0,92,13.32,97,9.7,298.1,337.0,300.5
923.2,859,18.2,17.0,92,13.29,97,9.7,298.1,336.9,300.5
922.7,864,18.2,16.9,92,13.26,96,9.7,298.1,336.8,300.5
922.1,868,18.1,16.9,92,13.23,96,9.8,298.1,336.7,300.5
921.6,873,18.1,16.9,92,13.22,96,9.8,298.1,336.7,300.5
921.1,878,18.1,16.8,92,13.21,96,9.8,298.1,336.7,300.5
920.6,883,18.0,16.8,93,13.19,96,9.9,298.1,336.7,300.5
920.1,887,18.0,16.7,92,13.15,95,9.9,298.1,336.5,300.5
919.6,892,18.0,16.7,92,13.08,95,9.9,298.2,336.4,300.5
919.1,897,17.9,16.6,92,13.02,95,9.9,298.2,336.2,300.5
918.6,901,17.9,16.5,92,12.98,95,9.9,298.2,336.1,300.5
918.1,906,17.9,16.5,92,12.96,94,9.9,298.2,336.1,300.6
917.6,911,17.9,16.5,92,12.95,94,9.9,298.2,336.1,300.6
917.1,916,17.8,16.5,92,12.94,94,9.9,298.3,336.1,300.6
916.6,921,17.8,16.5,92,12.96,94,9.9,298.3,336.1,300.6
916.0,926,17.7,16.5,92,12.98,94,9.9,298.3,336.2,300.6
915.5,931,17.7,16.5,92,12.97,94,9.9,298.3,336.2,300.6
914.9,936,17.6,16.4,92,12.91,94,9.8,298.3,336.0,300.6
914.3,942,17.6,16.3,92,12.82,94,9.8,298.3,335.7,300.6
913.7,947,17.6,16.1,91,12.69,94,9.8,298.3,335.4,300.6
913.1,953,17.6,16.0,90,12.59,94,9.7,298.3,335.1,300.6
912.5,959,17.5,15.9,90,12.54,94,9.7,298.4,335.1,300.6
911.9,964,17.5,15.9,90,12.54,94,9.7,298.4,335.1,300.6
911.3,970,17.4,15.9,90,12.53,94,9.6,298.4,335.0,300.6
910.6,976,17.4,15.8,90,12.51,94,9.6,298.4,335.0,300.7
910.0,982,17.4,15.8,90,12.49,94,9.5,298.4,335.0,300.7
909.4,988,17.3,15.8,90,12.47,94,9.5,298.5,335.0,300.7
908.8,994,17.3,15.7,91,12.44,94,9.4,298.5,334.9,300.7
908.2,999,17.2,15.7,91,12.42,94,9.4,298.5,334.8,300.7
907.6,1005,17.2,15.6,91,12.39,95,9.3,298.5,334.7,300.7
907.0,1010,17.1,15.6,91,12.39,95,9.2,298.5,334.7,300.7
906.4,1016,17.1,15.6,91,12.38,95,9.2,298.5,334.7,300.7
905.9,1021,17.0,15.5,91,12.35,95,9.1,298.5,334.6,300.7
905.3,1027,17.0,15.5,91,12.35,95,9.0,298.5,334.6,300.7
904.7,1032,16.9,15.5,91,12.31,95,9.0,298.5,334.5,300.7
904.1,1038,16.9,15.3,91,12.22,96,8.9,298.5,334.3,300.7
903.5,1044,16.8,15.1,89,12.03,96,8.8,298.5,333.7,300.7
902.9,1049,16.8,14.8,88,11.78,96,8.7,298.6,333.1,300.7
902.3,1055,16.9,14.5,86,11.61,96,8.7,298.7,332.7,300.8
901.7,1060,16.9,14.4,86,11.55,96,8.6,298.7,332.6,300.8
901.1,1066,16.8,14.4,86,11.54,95,8.5,298.7,332.6,300.8
900.5,1072,16.8,14.4,86,11.52,95,8.5,298.8,332.6,300.8
899.9,1077,16.8,14.3,86,11.49,95,8.4,298.8,332.5,300.9
899.3,1083,16.8,14.3,85,11.46,95,8.4,298.8,332.5,300.9
898.7,1089,16.7,14.2,85,11.40,95,8.3,298.9,332.3,300.9
898.1,1095,16.7,14.1,85,11.35,95,8.3,298.9,332.2,300.9
897.5,1100,16.7,14.1,85,11.35,94,8.2,298.9,332.3,301.0
896.9,1106,16.6,14.2,85,11.39,94,8.2,298.9,332.4,301.0
896.4,1111,16.6,14.2,86,11.41,94,8.1,298.9,332.5,301.0
895.9,1116,16.6,14.2,86,11.41,94,8.1,298.9,332.5,301.0
895.3,1121,16.5,14.2,86,11.43,93,8.0,299.0,332.5,301.0
894.9,1126,16.5,14.2,86,11.45,93,8.0,299.0,332.6,301.0
894.4,1130,16.5,14.2,86,11.45,93,8.0,299.0,332.6,301.0
893.9,1135,16.4,14.2,86,11.44,93,7.9,299.0,332.6,301.1
893.4,1140,16.4,14.1,86,11.42,92,7.9,299.0,332.6,301.1
892.8,1145,16.4,14.1,87,11.42,92,7.9,299.0,332.6,301.1
892.3,1150,16.3,14.1,87,11.43,92,7.9,299.0,332.6,301.1
891.7,1156,16.3,14.1,87,11.44,92,7.9,299.1,332.7,301.2
891.2,1161,16.3,14.1,87,11.43,92,7.8,299.1,332.7,301.2
890.6,1166,16.3,14.0,87,11.38,92,7.8,299.2,332.6,301.2
890.0,1172,16.3,14.0,86,11.37,92,7.8,299.2,332.6,301.3
889.5,1177,16.3,14.0,87,11.40,93,7.8,299.3,332.8,301.3
888.9,1183,16.2,14.1,87,11.43,93,7.8,299.3,332.9,301.3
888.4,1188,16.1,14.1,87,11.43,93,7.8,299.2,332.9,301.3
887.8,1193,16.1,14.0,87,11.40,94,7.8,299.2,332.7,301.3
887.3,1198,16.0,13.9,87,11.34,94,7.7,299.2,332.6,301.3
886.7,1203,16.1,13.9,87,11.33,95,7.7,299.3,332.6,301.3
886.2,1209,16.0,13.9,87,11.35,95,7.7,299.3,332.7,301.4
885.7,1214,16.0,13.9,87,11.33,96,7.7,299.3,332.7,301.4
885.1,1219,16.0,13.9,87,11.32,96,7.7,299.4,332.7,301.4
884.6,1224,15.9,13.8,87,11.31,97,7.7,299.4,332.7,301.4
884.0,1230,15.9,13.8,88,11.30,97,7.6,299.4,332.7,301.4
883.5,1235,15.8,13.8,88,11.30,98,7.6,299.4,332.6,301.4
883.0,1240,15.8,13.8,88,11.28,99,7.6,299.4,332.6,301.4
882.5,1245,15.7,13.7,88,11.26,99,7.6,299.4,332.5,301.4
882.0,1250,15.7,13.8,88,11.28,100,7.6,299.4,332.6,301.4
881.4,1254,15.6,13.8,89,11.33,100,7.5,299.4,332.7,301.4
880.9,1259,15.6,13.8,89,11.36,101,7.5,299.4,332.8,301.4
880.4,1264,15.5,13.8,90,11.36,102,7.5,299.4,332.8,301.4
879.9,1269,15.5,13.8,89,11.33,102,7.5,299.4,332.7,301.4
879.4,1274,15.5,13.7,89,11.29,103,7.4,299.4,332.6,301.4
878.8,1280,15.4,13.7,89,11.27,103,7.4,299.4,332.6,301.5
878.3,1285,15.4,13.6,89,11.25,104,7.4,299.5,332.6,301.5
877.7,1291,15.4,13.7,89,11.27,104,7.4,299.5,332.6,301.5
877.1,1297,15.3,13.7,90,11.29,104,7.4,299.5,332.7,301.5
876.5,1303,15.3,13.7,90,11.30,105,7.4,299.5,332.8,301.5
875.8,1309,15.2,13.6,90,11.28,105,7.4,299.5,332.7,301.5
875.2,1315,15.2,13.6,90,11.25,105,7.4,299.5,332.6,301.5
874.6,1321,15.2,13.5,90,11.22,106,7.4,299.6,332.6,301.6
874.0,1326,15.1,13.5,90,11.22,106,7.4,299.6,332.6,301.6
873.4,1332,15.1,13.5,91,11.24,106,7.4,299.6,332.7,301.6
872.8,1338,15.0,13.5,91,11.24,106,7.4,299.6,332.7,301.6
872.3,1344,15.0,13.5,91,11.22,106,7.5,299.6,332.6,301.6
871.7,1349,14.9,13.5,91,11.20,106,7.5,299.6,332.6,301.6
871.1,1354,14.9,13.4,91,11.18,106,7.5,299.6,332.5,301.6
870.6,1360,14.8,13.4,91,11.16,106,7.6,299.6,332.5,301.6
870.1,1365,14.8,13.4,91,11.15,106,7.6,299.6,332.4,301.6
869.5,1370,14.7,13.4,91,11.16,107,7.6,299.6,332.5,301.6
869.0,1376,14.7,13.4,92,11.18,107,7.7,299.6,332.6,301.6
868.4,1381,14.7,13.4,92,11.19,107,7.7,299.6,332.6,301.7
867.8,1387,14.6,13.4,92,11.17,107,7.8,299.6,332.6,301.7
867.2,1393,14.6,13.3,92,11.11,107,7.8,299.7,332.4,301.7
866.6,1398,14.6,13.1,91,11.01,107,7.8,299.7,332.2,301.7
866.0,1404,14.6,13.0,91,10.97,107,7.9,299.8,332.1,301.8
865.4,1410,14.5,13.0,91,10.96,107,7.9,299.8,332.1,301.8
864.8,1416,14.5,13.0,91,10.93,107,7.9,299.8,332.1,301.8
864.3,1421,14.4,12.9,90,10.88,107,7.9,299.8,331.9,301.8
863.7,1427,14.4,12.8,90,10.85,107,8.0,299.9,331.9,301.8
863.2,1432,14.4,12.8,90,10.85,107,8.0,299.9,331.9,301.8
862.6,1437,14.4,12.9,91,10.88,107,8.0,299.9,332.0,301.9
862.1,1443,14.3,12.9,91,10.89,107,8.0,299.9,332.0,301.9
861.6,1448,14.3,12.8,91,10.86,107,8.0,299.9,332.0,301.9
861.1,1453,14.2,12.8,91,10.83,107,8.0,299.9,331.9,301.9
860.6,1458,14.2,12.8,91,10.83,107,8.0,299.9,331.9,301.9
860.0,1463,14.1,12.8,91,10.85,107,8.0,299.9,332.0,301.9
859.5,1468,14.1,12.8,92,10.85,107,7.9,299.9,331.9,301.9
859.0,1473,14.0,12.7,92,10.82,106,7.9,299.9,331.9,301.9
858.5,1478,14.0,12.6,92,10.77,106,7.9,299.9,331.7,301.9
858.0,1483,14.0,12.6,91,10.74,106,7.8,299.9,331.6,301.9
857.6,1488,13.9,12.6,92,10.73,106,7.8,299.9,331.6,301.9
857.1,1492,13.9,12.6,92,10.73,106,7.8,299.9,331.6,301.9
856.6,1497,13.9,12.6,92,10.76,106,7.7,300.0,331.8,301.9
856.1,1502,13.8,12.6,92,10.79,106,7.7,300.0,331.9,301.9
855.5,1508,13.8,12.6,93,10.80,105,7.6,300.0,331.9,302.0
854.9,1513,13.7,12.6,93,10.78,105,7.6,300.0,331.9,302.0
854.4,1519,13.7,12.5,93,10.73,105,7.5,300.0,331.7,302.0
853.8,1525,13.6,12.4,92,10.65,105,7.5,300.0,331.5,301.9
853.2,1531,13.6,12.3,92,10.58,105,7.4,300.0,331.3,301.9
852.6,1537,13.6,12.2,91,10.53,105,7.4,300.1,331.2,302.0
852.0,1542,13.5,12.2,91,10.51,105,7.3,300.1,331.1,302.0
851.4,1548,13.5,12.1,91,10.48,104,7.3,300.1,331.1,302.0
850.9,1554,13.4,12.0,91,10.42,104,7.2,300.1,330.9,302.0
850.3,1559,13.4,11.9,90,10.33,104,7.2,300.2,330.7,302.0
850.0,1562,13.4,11.8,90,10.29,104,7.2,300.2,330.6,302.0
849.8,1565,13.4,11.8,90,10.26,104,7.1,300.2,330.6,302.1
849.2,1570,13.4,11.7,89,10.22,104,7.1,300.2,330.5,302.1
848.7,1575,13.4,11.6,89,10.17,104,7.0,300.3,330.4,302.1
848.2,1580,13.4,11.5,89,10.13,104,7.0,300.3,330.3,302.1
847.7,1585,13.3,11.5,88,10.09,105,6.9,300.3,330.2,302.2
847.2,1590,13.3,11.4,88,10.07,105,6.9,300.4,330.2,302.2
846.7,1595,13.3,11.4,89,10.08,105,6.9,300.4,330.2,302.2
846.2,1600,13.2,11.5,89,10.12,105,6.8,300.4,330.3,302.2
845.7,1605,13.2,11.5,90,10.15,105,6.8,300.4,330.4,302.2
845.2,1610,13.1,11.5,90,10.15,106,6.7,300.4,330.4,302.2
844.7,1615,13.1,11.5,90,10.14,106,6.7,300.4,330.4,302.2
844.2,1620,13.0,11.5,90,10.13,106,6.7,300.4,330.4,302.2
843.7,1626,13.0,11.4,90,10.12,107,6.6,300.4,330.3,302.2
843.1,1631,12.9,11.4,91,10.12,107,6.6,300.4,330.3,302.2
842.6,1636,12.9,11.4,91,10.13,107,6.6,300.4,330.4,302.2
842.1,1641,12.8,11.4,91,10.12,108,6.5,300.4,330.4,302.2
841.6,1647,12.8,11.4,91,10.10,108,6.5,300.4,330.3,302.2
841.0,1652,12.8,11.3,91,10.08,109,6.5,300.4,330.3,302.2
840.5,1657,12.7,11.3,91,10.09,110,6.4,300.4,330.3,302.2
840.0,1662,12.7,11.4,92,10.10,110,6.4,300.4,330.3,302.2
839.5,1667,12.6,11.4,92,10.11,111,6.4,300.4,330.4,302.2
839.0,1672,12.6,11.4,92,10.11,111,6.3,300.4,330.4,302.2
838.5,1677,12.5,11.3,92,10.11,112,6.3,300.4,330.4,302.2
838.0,1682,12.5,11.3,93,10.09,113,6.3,300.4,330.3,302.2
837.5,1687,12.5,11.3,92,10.07,113,6.2,300.5,330.3,302.3
836.9,1693,12.4,11.3,93,10.07,114,6.2,300.5,330.3,302.3
836.4,1698,12.4,11.3,93,10.08,115,6.2,300.5,330.3,302.3
835.9,1704,12.3,11.2,93,10.06,116,6.1,300.5,330.3,302.3
835.3,1709,12.3,11.2,93,10.04,117,6.1,300.5,330.3,302.3
834.8,1714,12.2,11.1,93,10.02,118,6.1,300.5,330.2,302.3
834.3,1719,12.2,11.1,93,10.01,118,6.1,300.5,330.2,302.3
833.8,1724,12.1,11.1,93,10.02,119,6.1,300.5,330.2,302.3
833.3,1730,12.1,11.1,94,10.03,120,6.0,300.5,330.2,302.3
832.8,1735,12.1,11.2,94,10.06,121,6.0,300.5,330.3,302.3
832.2,1740,12.0,11.2,95,10.10,122,6.0,300.5,330.4,302.3
831.7,1746,11.9,11.2,95,10.11,123,6.0,300.5,330.4,302.3
831.1,1751,11.9,11.2,96,10.10,123,6.0,300.5,330.4,302.3
830.6,1757,11.8,11.1,95,10.06,124,6.0,300.5,330.3,302.3
830.1,1762,11.8,11.1,96,10.05,125,6.0,300.5,330.3,302.3
829.6,1767,11.7,11.1,96,10.06,126,6.0,300.5,330.3,302.3
829.1,1772,11.7,11.1,96,10.09,126,6.0,300.5,330.4,302.3
828.6,1777,11.6,11.2,97,10.11,127,6.0,300.5,330.5,302.3
828.1,1782,11.6,11.2,97,10.13,128,5.9,300.5,330.5,302.3
827.6,1787,11.5,11.2,97,10.12,128,5.9,300.5,330.5,302.3
827.1,1792,11.5,11.1,98,10.10,129,5.9,300.5,330.4,302.3
826.6,1797,11.4,11.1,98,10.10,129,5.9,300.5,330.4,302.3
826.1,1802,11.4,11.1,98,10.09,130,5.9,300.5,330.4,302.3
825.7,1807,11.4,11.0,98,10.07,130,5.8,300.5,330.3,302.3
825.2,1811,11.3,10.9,97,10.01,131,5.8,300.5,330.2,302.3
824.7,1816,11.3,10.7,96,9.87,131,5.8,300.5,329.8,302.3
824.2,1821,11.3,10.4,94,9.63,132,5.7,300.6,329.1,302.3
823.7,1826,11.3,9.9,91,9.33,132,5.7,300.6,328.3,302.3
823.2,1831,11.3,9.7,90,9.19,132,5.6,300.7,328.0,302.4
822.7,1836,11.3,9.7,89,9.20,133,5.6,300.8,328.1,302.4
822.2,1842,11.3,9.7,90,9.24,133,5.5,300.8,328.3,302.5
821.7,1847,11.3,9.8,90,9.28,133,5.5,300.8,328.4,302.5
821.2,1852,11.2,9.8,91,9.31,134,5.4,300.8,328.5,302.5
820.7,1857,11.2,9.8,91,9.33,134,5.4,300.8,328.6,302.5
820.2,1862,11.1,9.8,92,9.34,134,5.3,300.8,328.6,302.5
819.8,1867,11.1,9.9,92,9.38,135,5.2,300.8,328.7,302.5
819.3,1872,11.0,10.0,93,9.44,135,5.2,300.8,328.9,302.6
818.8,1877,11.0,10.0,94,9.49,135,5.1,300.8,329.0,302.6
818.3,1882,10.9,10.0,94,9.49,136,5.0,300.8,329.0,302.6
817.8,1887,10.9,10.0,94,9.46,136,5.0,300.8,329.0,302.6
817.3,1892,10.9,9.9,94,9.40,136,4.9,300.9,328.8,302.6
816.8,1897,10.8,9.8,93,9.36,136,4.9,300.9,328.7,302.6
816.3,1903,10.8,9.8,94,9.36,137,4.8,300.9,328.7,302.6
815.7,1908,10.7,9.7,94,9.32,137,4.7,300.9,328.6,302.5
815.2,1913,10.7,9.5,93,9.19,137,4.7,300.9,328.2,302.5
814.7,1919,10.6,9.2,91,9.03,137,4.6,300.9,327.8,302.5
814.2,1924,10.6,9.0,90,8.91,137,4.6,301.0,327.5,302.6
813.6,1929,10.6,9.0,89,8.87,137,4.6,301.0,327.5,302.6
813.1,1935,10.6,9.0,90,8.91,137,4.5,301.1,327.6,302.7
812.6,1940,10.6,9.1,90,8.96,137,4.5,301.1,327.8,302.7
812.1,1945,10.5,9.0,90,8.91,137,4.5,301.1,327.6,302.7
811.6,1950,10.5,8.9,89,8.83,137,4.5,301.1,327.5,302.7
811.1,1955,10.5,8.8,89,8.82,137,4.5,301.1,327.4,302.7
