PRES,HGHT,TEMP,DWPT,RELH,MIXR,DRCT,SPED,THTA,THTE,THTV
1012.2,31,28.6,21.9,67,16.57,86,7.3,300.7,349.6,303.7
1011.8,34,28.4,22.5,71,17.25,87,5.2,300.5,351.3,303.6
1011.3,38,28.0,22.4,72,17.06,88,4.8,300.2,350.4,303.2
1010.6,45,27.5,22.2,73,16.95,88,4.9,299.7,349.5,302.8
1009.7,52,27.0,22.1,75,16.83,89,5.2,299.3,348.7,302.3
1009.2,57,26.5,21.9,76,16.64,89,5.6,298.9,347.6,301.9
1008.6,62,26.1,21.7,76,16.38,89,6.0,298.6,346.4,301.5
1008.1,66,25.8,21.5,77,16.18,89,6.3,298.3,345.5,301.2
1007.5,72,25.6,21.3,77,16.07,90,6.5,298.1,345.0,301.0
1006.9,77,25.5,21.3,78,16.05,90,6.8,298.1,344.9,300.9
1006.3,82,25.4,21.3,78,16.03,90,7.0,298.0,344.8,300.9
1005.7,87,25.4,21.2,78,15.97,91,7.3,298.0,344.6,300.9
1005.1,93,25.3,21.1,78,15.89,91,7.5,298.0,344.3,300.9
1004.5,98,25.3,21.0,77,15.81,91,7.6,298.0,344.1,300.8
1003.9,104,25.2,21.0,77,15.76,92,7.8,298.0,344.0,300.8
1003.2,109,25.2,21.0,77,15.75,92,7.9,298.0,344.0,300.9
1002.6,115,25.1,20.9,78,15.74,92,8.0,298.0,343.9,300.8
1002.0,120,25.1,20.9,78,15.73,92,8.1,298.0,343.9,300.8
1001.4,126,25.0,20.9,78,15.77,93,8.2,298.0,344.0,300.8
1000.7,131,24.9,21.0,79,15.82,93,8.2,298.0,344.2,300.9
1000.1,137,24.9,21.0,79,15.81,93,8.3,298.0,344.1,300.9
1000.0,138,24.9,21.0,79,15.80,93,8.3,298.0,344.1,300.8
999.5,142,24.8,20.9,79,15.78,93,8.3,298.0,344.0,300.8
999.0,147,24.8,20.9,79,15.81,93,8.3,298.0,344.1,300.8
998.4,152,24.7,21.0,80,15.85,93,8.3,298.0,344.2,300.9
997.9,156,24.7,21.0,80,15.90,92,8.3,298.0,344.4,300.9
997.4,161,24.7,21.0,80,15.94,92,8.3,298.0,344.5,300.9
996.9,165,24.6,21.1,81,16.01,92,8.3,298.0,344.7,300.9
996.5,169,24.6,21.1,81,16.05,91,8.2,298.0,344.8,300.9
996.0,173,24.6,21.2,81,16.07,91,8.2,298.0,344.9,300.9
995.5,177,24.5,21.2,82,16.11,90,8.2,298.1,345.0,300.9
995.0,182,24.5,21.2,82,16.18,90,8.2,298.1,345.2,300.9
994.5,186,24.4,21.3,83,16.24,89,8.1,298.0,345.4,300.9
994.0,191,24.4,21.3,83,16.24,89,8.1,298.1,345.4,300.9
993.4,196,24.3,21.3,83,16.23,88,8.1,298.1,345.4,300.9
992.9,201,24.3,21.3,83,16.24,87,8.1,298.1,345.4,301.0
992.3,206,24.3,21.3,83,16.24,86,8.0,298.1,345.4,301.0
991.7,211,24.2,21.2,83,16.21,85,8.0,298.0,345.3,300.9
991.1,217,24.1,21.2,84,16.20,85,8.0,298.1,345.3,300.9
990.5,222,24.1,21.2,84,16.20,84,8.0,298.1,345.3,300.9
989.9,227,24.0,21.2,84,16.17,83,8.0,298.1,345.2,300.9
989.3,232,24.0,21.1,84,16.11,82,7.9,298.1,345.0,300.9
988.7,237,23.9,21.0,84,16.07,82,7.9,298.1,344.9,300.9
988.1,243,23.9,21.0,84,16.06,81,7.9,298.1,344.9,300.9
987.6,248,23.8,21.0,84,16.09,80,7.9,298.0,344.9,300.9
987.0,252,23.8,21.1,85,16.13,79,7.9,298.1,345.1,300.9
986.5,257,23.8,21.1,85,16.14,79,7.9,298.1,345.1,300.9
986.0,262,23.7,21.0,85,16.12,78,7.9,298.1,345.0,300.9
985.4,267,23.7,21.0,85,16.04,77,7.9,298.1,344.8,300.9
984.9,271,23.6,20.8,84,15.93,77,7.9,298.1,344.5,300.9
984.4,276,23.6,20.8,84,15.90,76,7.9,298.1,344.4,300.9
983.8,281,23.5,20.8,85,15.94,76,7.9,298.1,344.5,300.9
983.3,286,23.5,20.9,85,15.99,75,7.9,298.1,344.7,300.9
982.7,291,23.4,20.9,86,16.03,74,7.9,298.1,344.8,300.9
982.1,296,23.4,20.9,86,16.03,74,7.9,298.1,344.8,300.9
981.5,302,23.3,20.8,86,16.00,73,7.9,298.0,344.7,300.9
980.9,307,23.3,20.8,86,15.97,73,7.9,298.0,344.6,300.9
980.3,312,23.2,20.8,86,15.96,72,8.0,298.0,344.5,300.9
979.7,318,23.2,20.8,87,15.98,71,8.0,298.1,344.6,300.9
979.1,323,23.1,20.8,87,15.97,71,8.0,298.1,344.6,300.9
978.5,328,23.1,20.7,87,15.94,70,8.0,298.0,344.5,300.9
977.9,334,23.0,20.7,87,15.92,70,8.0,298.0,344.4,300.9
977.3,339,22.9,20.7,87,15.92,69,8.0,298.0,344.4,300.9
976.8,344,22.9,20.7,87,15.90,69,8.0,298.0,344.4,300.9
976.2,349,22.8,20.6,87,15.85,68,8.0,298.0,344.2,300.9
975.7,354,22.8,20.5,87,15.79,67,8.0,298.0,344.1,300.8
975.1,359,22.7,20.5,87,15.78,67,8.0,298.0,344.0,300.8
974.7,363,22.7,20.5,87,15.78,67,8.1,298.0,344.0,300.8
974.2,367,22.7,20.5,88,15.77,66,8.1,298.0,344.0,300.8
973.7,371,22.6,20.5,88,15.76,66,8.1,298.0,344.0,300.9
973.3,375,22.6,20.5,88,15.74,66,8.1,298.0,343.9,300.8
972.8,379,22.6,20.5,88,15.75,65,8.1,298.0,343.9,300.8
972.4,383,22.5,20.5,88,15.78,65,8.1,298.0,344.0,300.8
972.0,387,22.5,20.5,89,15.83,65,8.0,298.0,344.1,300.9
971.5,391,22.4,20.6,89,15.87,65,8.0,298.0,344.3,300.9
971.1,395,22.4,20.6,89,15.88,65,8.0,298.0,344.3,300.9
970.6,399,22.4,20.5,89,15.86,65,8.0,298.0,344.3,300.9
970.2,403,22.3,20.5,89,15.83,65,8.0,298.0,344.2,300.9
969.7,407,22.3,20.4,89,15.79,66,8.0,298.0,344.1,300.9
969.3,411,22.3,20.4,89,15.79,66,8.0,298.0,344.1,300.9
968.8,416,22.2,20.4,89,15.78,66,8.0,298.1,344.0,300.9
968.4,419,22.2,20.4,89,15.76,67,8.0,298.1,344.0,300.9
967.9,423,22.2,20.4,90,15.75,67,8.0,298.1,344.0,300.9
967.5,427,22.1,20.4,90,15.75,67,8.0,298.1,344.0,300.9
967.0,431,22.1,20.4,90,15.75,68,8.0,298.1,344.0,300.9
966.6,436,22.0,20.3,90,15.75,68,8.0,298.1,344.0,300.9
966.1,440,22.0,20.3,90,15.74,69,8.0,298.1,344.0,300.9
965.7,444,22.0,20.3,90,15.74,69,8.0,298.1,343.9,300.9
965.2,448,21.9,20.3,91,15.74,70,8.0,298.1,343.9,300.9
964.8,452,21.9,20.3,91,15.75,70,8.0,298.1,344.0,300.9
964.4,456,21.8,20.3,91,15.75,71,8.0,298.1,344.0,300.9
963.9,460,21.8,20.3,91,15.76,71,8.0,298.1,344.0,300.9
963.5,463,21.8,20.3,91,15.76,71,7.9,298.1,344.0,300.9
963.1,467,21.7,20.3,91,15.72,72,7.9,298.1,343.9,300.9
962.7,471,21.7,20.2,91,15.68,72,7.9,298.1,343.8,300.9
962.2,475,21.7,20.2,91,15.66,72,7.8,298.1,343.7,300.9
961.8,479,21.6,20.2,91,15.66,72,7.8,298.1,343.7,300.9
961.4,483,21.6,20.2,92,15.67,73,7.8,298.1,343.8,300.9
960.9,487,21.6,20.2,92,15.70,73,7.7,298.1,343.9,300.9
960.4,491,21.5,20.2,92,15.72,73,7.7,298.1,343.9,300.9
960.0,496,21.5,20.2,93,15.76,73,7.6,298.1,344.0,300.9
959.4,500,21.4,20.3,93,15.80,73,7.6,298.1,344.1,300.9
958.9,505,21.4,20.3,93,15.81,74,7.5,298.1,344.2,300.9
958.4,510,21.3,20.3,94,15.79,74,7.4,298.1,344.1,300.9
957.8,515,21.3,20.2,93,15.74,74,7.4,298.1,344.0,300.9
957.3,520,21.2,20.2,94,15.71,74,7.3,298.1,343.9,300.9
956.7,525,21.2,20.1,94,15.71,74,7.3,298.1,343.9,300.9
956.2,530,21.1,20.1,94,15.68,75,7.2,298.1,343.8,300.9
955.6,535,21.1,20.1,94,15.66,75,7.2,298.1,343.7,300.9
955.1,540,21.0,20.1,94,15.68,75,7.2,298.1,343.8,300.9
954.5,545,21.0,20.1,95,15.72,75,7.1,298.1,343.9,300.9
954.0,550,21.0,20.1,95,15.75,75,7.1,298.1,344.0,300.9
953.5,554,20.9,20.1,95,15.77,76,7.1,298.1,344.0,300.9
953.0,559,20.9,20.2,96,15.78,76,7.1,298.1,344.1,300.9
952.5,563,20.8,20.2,96,15.79,76,7.1,298.1,344.1,300.9
952.0,568,20.8,20.2,96,15.80,76,7.1,298.1,344.1,300.9
951.5,572,20.7,20.2,96,15.82,76,7.1,298.1,344.2,300.9
951.1,577,20.7,20.2,97,15.83,76,7.2,298.1,344.2,300.9
950.6,581,20.7,20.2,97,15.83,76,7.2,298.1,344.2,300.9
950.1,585,20.6,20.2,97,15.83,76,7.2,298.1,344.2,300.9
949.6,590,20.6,20.1,97,15.83,76,7.2,298.1,344.2,300.9
949.2,594,20.5,20.1,97,15.81,76,7.3,298.1,344.2,300.9
948.7,598,20.5,20.1,97,15.78,76,7.3,298.1,344.1,300.9
948.2,603,20.5,20.0,97,15.75,76,7.3,298.1,344.0,300.9
947.7,607,20.4,20.0,97,15.70,76,7.4,298.1,343.9,300.9
947.2,612,20.4,19.9,97,15.66,76,7.4,298.1,343.8,300.9
946.7,616,20.4,19.9,97,15.63,76,7.4,298.1,343.7,300.9
946.3,620,20.3,19.9,97,15.61,76,7.5,298.1,343.6,300.9
945.8,624,20.3,19.9,97,15.62,76,7.5,298.1,343.7,300.9
945.4,628,20.3,19.9,98,15.65,76,7.5,298.2,343.8,300.9
945.0,632,20.2,19.9,98,15.70,76,7.5,298.2,343.9,301.0
944.6,636,20.2,20.0,99,15.74,77,7.6,298.1,344.0,301.0
944.2,639,20.1,20.0,99,15.75,77,7.6,298.1,344.1,301.0
943.8,643,20.1,20.0,99,15.74,77,7.6,298.1,344.0,300.9
943.3,647,20.1,19.9,99,15.71,77,7.6,298.2,343.9,301.0
942.8,652,20.0,19.9,99,15.67,78,7.7,298.2,343.8,301.0
942.4,656,20.0,19.8,99,15.61,78,7.7,298.2,343.6,300.9
941.9,661,20.0,19.7,98,15.53,79,7.7,298.2,343.5,300.9
941.3,666,19.9,19.6,98,15.44,79,7.8,298.2,343.2,300.9
940.8,671,19.9,19.5,98,15.36,80,7.8,298.2,343.0,301.0
940.2,676,19.9,19.5,97,15.31,80,7.8,298.2,342.9,301.0
939.7,681,19.9,19.4,97,15.28,81,7.9,298.3,342.8,301.0
939.1,686,19.8,19.3,97,15.17,82,7.9,298.3,342.5,301.0
938.6,691,19.8,19.1,96,14.99,82,8.0,298.3,342.1,301.0
938.1,696,19.8,19.0,95,14.86,83,8.0,298.4,341.7,301.0
937.5,701,19.8,19.0,95,14.87,83,8.1,298.4,341.8,301.1
937.0,706,19.8,19.0,96,14.96,84,8.1,298.4,342.1,301.1
936.5,710,19.7,19.0,96,14.94,84,8.2,298.4,342.0,301.1
936.0,715,19.7,18.9,95,14.81,84,8.2,298.4,341.7,301.1
935.5,720,19.7,18.8,95,14.77,85,8.3,298.5,341.6,301.1
935.0,724,19.6,18.9,95,14.85,85,8.3,298.5,341.8,301.1
934.5,729,19.6,19.0,96,14.96,85,8.4,298.4,342.1,301.1
934.0,733,19.5,19.0,97,14.99,86,8.4,298.4,342.2,301.1
933.6,737,19.5,19.0,97,14.99,86,8.4,298.4,342.2,301.1
933.2,741,19.4,19.0,97,14.96,86,8.4,298.4,342.1,301.1
932.7,745,19.4,19.0,97,14.97,86,8.5,298.4,342.1,301.1
932.3,749,19.3,19.0,98,14.98,86,8.5,298.4,342.1,301.1
931.8,753,19.3,19.0,98,14.97,86,8.5,298.4,342.1,301.1
931.4,757,19.3,18.9,98,14.95,86,8.5,298.4,342.1,301.1
931.0,762,19.2,18.9,98,14.91,86,8.4,298.4,341.9,301.1
930.5,766,19.2,18.8,98,14.86,86,8.4,298.4,341.8,301.1
930.1,770,19.2,18.8,97,14.80,86,8.4,298.4,341.6,301.1
929.6,774,19.1,18.6,97,14.69,86,8.4,298.5,341.3,301.1
929.2,778,19.2,18.5,96,14.55,87,8.3,298.5,341.0,301.1
928.8,782,19.1,18.5,96,14.55,87,8.3,298.5,341.0,301.1
928.3,786,19.1,18.6,97,14.64,87,8.3,298.5,341.3,301.2
927.9,790,19.1,18.6,97,14.70,87,8.2,298.5,341.5,301.2
927.4,794,19.0,18.7,98,14.75,87,8.2,298.5,341.6,301.2
927.0,798,19.0,18.7,98,14.77,87,8.1,298.5,341.6,301.1
926.5,803,18.9,18.6,98,14.74,88,8.1,298.5,341.5,301.1
926.0,807,18.9,18.5,98,14.66,88,8.1,298.5,341.3,301.1
925.6,812,18.9,18.4,97,14.56,88,8.0,298.5,341.1,301.1
925.1,816,18.8,18.4,97,14.51,89,8.0,298.5,340.9,301.1
925.0,817,18.8,18.4,97,14.51,89,8.0,298.6,340.9,301.2
924.5,821,18.8,18.3,97,14.49,89,8.0,298.6,340.9,301.2
924.0,826,18.8,18.3,97,14.45,90,7.9,298.6,340.8,301.2
923.5,831,18.8,18.2,97,14.39,91,7.9,298.6,340.7,301.2
922.9,837,18.7,18.1,96,14.32,91,7.9,298.6,340.5,301.2
922.3,842,18.7,18.0,96,14.23,92,7.9,298.7,340.3,301.2
921.7,848,18.7,17.8,95,14.09,92,7.9,298.7,339.9,301.2
921.1,854,18.7,17.7,94,13.95,93,7.9,298.7,339.5,301.2
920.5,859,18.7,17.6,94,13.88,94,7.9,298.8,339.4,301.3
919.9,865,18.6,17.6,94,13.88,94,7.9,298.8,339.4,301.3
919.3,870,18.6,17.5,93,13.82,95,7.9,298.8,339.3,301.3
918.7,875,18.6,17.4,93,13.71,95,7.9,298.9,339.0,301.3
918.2,880,18.5,17.2,92,13.60,96,7.9,298.9,338.7,301.3
917.7,885,18.5,17.2,92,13.58,96,8.0,298.9,338.7,301.3
917.2,890,18.5,17.3,93,13.63,97,8.0,298.9,338.8,301.4
916.7,895,18.4,17.3,93,13.66,97,8.0,298.9,338.9,301.4
916.2,899,18.4,17.2,93,13.63,97,8.0,298.9,338.8,301.4
915.7,904,18.4,17.2,93,13.58,98,8.0,298.9,338.7,301.4
915.3,908,18.3,17.1,93,13.56,98,8.1,298.9,338.6,301.4
914.8,912,18.3,17.1,93,13.55,98,8.1,299.0,338.6,301.4
914.4,916,18.3,17.1,93,13.57,98,8.1,299.0,338.7,301.4
914.0,920,18.2,17.2,93,13.59,98,8.1,299.0,338.8,301.4
913.5,924,18.2,17.2,94,13.61,98,8.1,299.0,338.8,301.4
913.1,928,18.2,17.2,94,13.63,99,8.1,299.0,338.9,301.4
912.6,933,18.1,17.2,94,13.66,99,8.1,299.0,339.0,301.4
912.2,937,18.1,17.2,95,13.66,99,8.0,298.9,338.9,301.4
911.7,942,18.0,17.2,95,13.63,99,8.0,299.0,338.9,301.4
911.2,947,18.0,17.1,95,13.59,99,8.0,299.0,338.8,301.4
910.6,952,17.9,17.0,94,13.55,99,7.9,299.0,338.7,301.4
910.1,957,17.9,16.9,94,13.46,99,7.9,299.0,338.4,301.4
909.6,962,17.9,16.8,93,13.32,99,7.9,299.0,338.1,301.4
909.0,967,17.9,16.6,92,13.16,99,7.8,299.1,337.7,301.5
908.5,972,17.9,16.4,91,13.04,99,7.8,299.2,337.4,301.5
908.0,977,17.9,16.3,91,12.98,99,7.7,299.2,337.3,301.5
907.4,982,17.9,16.3,91,12.98,99,7.7,299.2,337.3,301.5
906.9,987,17.8,16.4,91,13.01,99,7.6,299.2,337.4,301.6
906.4,991,17.8,16.4,92,13.05,99,7.6,299.2,337.5,301.6
906.0,996,17.8,16.4,92,13.05,99,7.5,299.2,337.5,301.6
905.5,1000,17.7,16.3,91,13.00,99,7.5,299.2,337.4,301.6
905.0,1005,17.7,16.3,91,12.98,99,7.5,299.3,337.4,301.6
904.5,1009,17.7,16.3,91,12.98,100,7.4,299.3,337.4,301.7
904.0,1014,17.7,16.3,91,12.97,100,7.4,299.3,337.4,301.7
903.6,1018,17.7,16.2,91,12.94,100,7.4,299.3,337.3,301.7
903.1,1023,17.6,16.1,91,12.89,100,7.4,299.4,337.2,301.7
902.6,1028,17.6,16.1,91,12.82,100,7.4,299.4,337.0,301.7
902.0,1033,17.6,16.0,90,12.75,101,7.3,299.4,336.9,301.7
901.5,1038,17.6,15.9,90,12.69,101,7.3,299.5,336.7,301.8
901.0,1043,17.6,15.8,89,12.64,101,7.4,299.5,336.7,301.8
900.5,1048,17.6,15.8,89,12.60,101,7.4,299.5,336.6,301.8
900.0,1053,17.5,15.7,89,12.58,102,7.4,299.6,336.6,301.8
899.5,1057,17.5,15.7,89,12.57,102,7.4,299.6,336.6,301.9
899.1,1061,17.5,15.7,89,12.56,102,7.4,299.6,336.6,301.9
898.6,1066,17.5,15.7,89,12.55,102,7.4,299.7,336.5,301.9
898.2,1070,17.5,15.6,89,12.53,102,7.4,299.7,336.5,301.9
897.7,1074,17.4,15.6,89,12.54,102,7.4,299.7,336.6,301.9
897.3,1078,17.4,15.6,89,12.52,102,7.4,299.7,336.5,301.9
896.9,1082,17.4,15.6,89,12.49,102,7.4,299.7,336.4,301.9
896.4,1086,17.3,15.5,89,12.45,102,7.3,299.7,336.3,301.9
896.0,1091,17.3,15.5,89,12.42,102,7.3,299.7,336.2,301.9
895.6,1095,17.3,15.4,89,12.40,102,7.3,299.7,336.2,301.9
895.1,1099,17.3,15.4,89,12.37,102,7.2,299.7,336.2,302.0
894.6,1104,17.2,15.4,89,12.36,102,7.2,299.8,336.1,302.0
894.1,1108,17.2,15.3,89,12.34,102,7.1,299.8,336.1,302.0
893.6,1113,17.2,15.3,89,12.30,101,7.1,299.8,336.0,302.0
893.1,1119,17.1,15.2,88,12.23,101,7.0,299.8,335.8,302.0
892.5,1124,17.1,15.1,88,12.15,101,6.9,299.9,335.6,302.1
892.0,1129,17.1,14.9,87,12.06,100,6.8,299.9,335.4,302.1
891.5,1134,17.1,14.9,87,12.00,100,6.7,299.9,335.3,302.1
890.9,1139,17.1,14.8,87,11.99,99,6.6,300.0,335.3,302.1
890.4,1144,17.1,14.8,86,11.96,99,6.5,300.0,335.2,302.2
889.9,1149,17.0,14.7,86,11.94,98,6.4,300.0,335.2,302.2
889.4,1154,17.0,14.7,86,11.92,97,6.3,300.0,335.2,302.2
888.9,1158,17.0,14.7,87,11.93,97,6.2,300.0,335.2,302.2
888.4,1163,16.9,14.7,87,11.96,96,6.1,300.1,335.3,302.2
887.9,1168,16.9,14.8,87,11.98,95,6.0,300.0,335.4,302.2
887.4,1173,16.8,14.7,88,11.97,94,5.9,300.0,335.3,302.2
886.9,1178,16.8,14.7,88,11.95,93,5.8,300.0,335.2,302.2
886.4,1183,16.7,14.7,88,11.92,93,5.8,300.0,335.2,302.2
885.9,1188,16.7,14.6,88,11.91,92,5.7,300.1,335.2,302.2
885.4,1192,16.7,14.6,88,11.90,91,5.6,300.1,335.2,302.2
885.0,1197,16.6,14.6,88,11.89,90,5.6,300.1,335.1,302.2
884.5,1201,16.6,14.5,88,11.85,89,5.5,300.1,335.0,302.2
884.1,1205,16.6,14.5,88,11.83,88,5.5,300.1,335.0,302.2
883.7,1209,16.5,14.5,88,11.81,87,5.5,300.1,334.9,302.2
883.3,1213,16.5,14.5,88,11.82,87,5.4,300.1,335.0,302.2
882.9,1217,16.5,14.5,88,11.84,86,5.4,300.1,335.0,302.2
882.4,1221,16.4,14.5,89,11.87,85,5.4,300.1,335.1,302.2
882.0,1225,16.4,14.5,89,11.86,85,5.4,300.1,335.1,302.2
881.5,1230,16.3,14.5,89,11.86,84,5.4,300.1,335.1,302.3
881.0,1235,16.3,14.5,89,11.85,84,5.4,300.1,335.1,302.3
880.5,1239,16.3,14.5,89,11.88,84,5.4,300.1,335.2,302.3
880.0,1244,16.2,14.5,89,11.88,83,5.3,300.1,335.2,302.3
879.5,1249,16.2,14.5,89,11.86,83,5.3,300.2,335.1,302.3
879.0,1254,16.2,14.4,89,11.80,82,5.3,300.2,335.0,302.3
878.5,1260,16.1,14.3,89,11.76,82,5.3,300.2,334.9,302.3
877.9,1265,16.1,14.2,89,11.71,82,5.3,300.2,334.8,302.3
877.4,1270,16.1,14.2,88,11.65,82,5.3,300.2,334.6,302.3
876.9,1274,16.0,14.1,88,11.59,81,5.2,300.2,334.5,302.3
876.5,1279,16.0,14.0,88,11.57,81,5.2,300.3,334.4,302.3
876.0,1283,16.0,14.0,88,11.56,81,5.2,300.3,334.4,302.4
875.6,1288,16.0,14.0,88,11.57,80,5.1,300.3,334.4,302.4
875.2,1292,15.9,14.0,89,11.59,80,5.1,300.3,334.5,302.4
874.7,1296,15.9,14.0,89,11.59,79,5.1,300.3,334.5,302.4
874.3,1300,15.9,14.0,89,11.57,79,5.0,300.3,334.5,302.4
873.9,1304,15.8,13.9,88,11.52,79,5.0,300.3,334.3,302.4
873.5,1308,15.8,13.9,88,11.47,78,4.9,300.4,334.2,302.4
873.0,1312,15.8,13.8,88,11.45,78,4.9,300.4,334.2,302.5
872.6,1317,15.8,13.8,88,11.43,78,4.8,300.4,334.2,302.5
872.1,1321,15.8,13.8,88,11.43,77,4.8,300.4,334.2,302.5
871.7,1326,15.8,13.8,88,11.43,77,4.8,300.5,334.3,302.5
871.2,1330,15.7,13.7,88,11.42,77,4.7,300.5,334.2,302.5
870.8,1335,15.7,13.7,88,11.36,76,4.7,300.5,334.1,302.6
870.3,1339,15.7,13.5,87,11.27,76,4.7,300.6,333.9,302.6
869.8,1344,15.7,13.4,86,11.16,76,4.6,300.6,333.6,302.6
869.4,1348,15.7,13.2,85,11.07,76,4.6,300.6,333.4,302.6
869.0,1352,15.7,13.2,85,11.02,76,4.6,300.7,333.3,302.7
868.5,1356,15.7,13.1,85,11.01,76,4.5,300.7,333.3,302.7
868.1,1361,15.7,13.1,85,10.98,76,4.5,300.7,333.3,302.7
867.7,1365,15.7,13.0,84,10.94,77,4.5,300.8,333.2,302.7
867.2,1369,15.7,13.0,84,10.90,77,4.5,300.8,333.1,302.8
866.8,1373,15.6,12.9,84,10.86,78,4.4,300.8,333.0,302.8
866.4,1378,15.6,12.8,83,10.80,78,4.4,300.8,332.8,302.8
865.9,1382,15.6,12.7,83,10.74,79,4.4,300.9,332.7,302.8
865.5,1386,15.6,12.7,83,10.70,80,4.4,300.9,332.7,302.9
865.1,1391,15.6,12.6,82,10.68,81,4.4,301.0,332.7,302.9
864.6,1395,15.6,12.6,82,10.65,82,4.4,301.0,332.6,302.9
864.2,1399,15.6,12.5,82,10.59,83,4.4,301.0,332.5,302.9
863.8,1403,15.6,12.4,81,10.51,84,4.4,301.1,332.2,303.0
863.4,1407,15.6,12.2,80,10.39,85,4.4,301.1,332.0,303.0
862.9,1411,15.6,12.1,80,10.31,87,4.4,301.1,331.8,303.0
862.5,1416,15.6,11.9,79,10.23,88,4.4,301.2,331.6,303.0
862.1,1420,15.5,11.8,79,10.17,89,4.4,301.2,331.4,303.0
861.7,1424,15.5,11.8,79,10.15,91,4.4,301.2,331.4,303.1
861.2,1428,15.5,11.8,79,10.17,92,4.4,301.2,331.5,303.1
860.8,1433,15.4,11.9,79,10.20,93,4.4,301.2,331.5,303.1
860.3,1437,15.4,11.9,79,10.20,94,4.5,301.2,331.6,303.1
859.8,1442,15.4,11.8,79,10.19,95,4.5,301.2,331.5,303.1
859.4,1446,15.3,11.8,79,10.14,96,4.5,301.2,331.4,303.1
858.9,1451,15.3,11.6,79,10.06,97,4.6,301.2,331.2,303.1
858.5,1455,15.3,11.5,78,9.97,98,4.6,301.3,330.9,303.1
858.1,1459,15.3,11.3,77,9.87,98,4.7,301.3,330.7,303.1
857.7,1464,15.2,11.2,77,9.78,99,4.8,301.3,330.5,303.1
857.2,1468,15.2,11.1,77,9.75,99,4.8,301.4,330.4,303.1
856.8,1472,15.2,11.1,76,9.73,100,4.9,301.4,330.4,303.1
856.3,1477,15.2,11.1,77,9.74,100,5.0,301.4,330.4,303.2
855.8,1482,15.1,11.1,77,9.74,100,5.1,301.4,330.4,303.2
855.4,1486,15.1,11.1,77,9.73,100,5.2,301.4,330.4,303.2
854.9,1491,15.1,11.0,76,9.67,100,5.3,301.4,330.2,303.2
854.5,1495,15.1,10.8,76,9.55,100,5.4,301.5,329.9,303.2
854.0,1499,15.1,10.6,75,9.44,100,5.5,301.5,329.7,303.2
853.6,1503,15.1,10.6,75,9.42,99,5.6,301.5,329.6,303.2
853.2,1507,15.0,10.7,75,9.50,99,5.7,301.6,329.9,303.3
852.8,1511,15.0,10.9,76,9.62,99,5.8,301.6,330.2,303.3
852.4,1515,14.9,11.0,77,9.75,99,5.9,301.5,330.6,303.3
852.0,1520,14.9,11.2,78,9.82,98,6.0,301.5,330.8,303.3
851.6,1524,14.8,11.1,78,9.82,98,6.1,301.5,330.8,303.3
851.1,1529,14.8,11.1,78,9.79,98,6.2,301.5,330.7,303.3
850.6,1533,14.8,11.1,79,9.81,97,6.3,301.5,330.8,303.3
850.1,1538,14.7,11.2,79,9.88,97,6.4,301.6,331.0,303.3
850.0,1540,14.7,11.2,80,9.89,97,6.5,301.6,331.0,303.3
849.6,1543,14.7,11.3,80,9.95,97,6.5,301.6,331.2,303.4
849.1,1548,14.7,11.4,81,10.01,97,6.6,301.6,331.4,303.4
848.7,1553,14.7,11.4,81,10.02,97,6.7,301.6,331.5,303.4
848.2,1558,14.7,11.3,80,9.97,97,6.8,301.7,331.4,303.5
847.7,1562,14.6,11.2,80,9.90,97,6.8,301.7,331.2,303.5
847.3,1567,14.6,11.1,79,9.85,97,6.9,301.7,331.1,303.5
846.9,1571,14.6,11.1,79,9.83,97,7.0,301.8,331.1,303.5
846.4,1576,14.6,11.1,80,9.86,97,7.0,301.8,331.2,303.6
845.9,1580,14.6,11.3,80,9.97,98,7.1,301.8,331.6,303.6
845.5,1585,14.6,11.5,82,10.12,98,7.1,301.9,332.0,303.7
845.0,1590,14.6,11.6,82,10.21,98,7.2,301.9,332.3,303.7
844.5,1594,14.5,11.6,83,10.21,98,7.2,301.9,332.4,303.8
844.0,1599,14.5,11.6,83,10.20,99,7.3,301.9,332.3,303.8
843.6,1604,14.5,11.6,83,10.20,99,7.3,301.9,332.4,303.8
843.1,1608,14.4,11.6,83,10.21,99,7.4,302.0,332.4,303.8
842.7,1613,14.4,11.6,83,10.21,99,7.5,302.0,332.4,303.8
842.3,1617,14.4,11.6,83,10.22,100,7.5,302.0,332.5,303.8
841.9,1621,14.4,11.5,83,10.20,100,7.6,302.0,332.4,303.9
841.5,1625,14.4,11.5,83,10.15,100,7.7,302.0,332.3,303.9
841.1,1629,14.3,11.4,82,10.10,100,7.7,302.1,332.2,303.9
840.7,1632,14.3,11.3,82,10.07,100,7.8,302.1,332.1,303.9
840.4,1636,14.3,11.3,82,10.06,100,7.9,302.1,332.1,303.9
840.0,1640,14.3,11.3,82,10.09,100,8.0,302.1,332.2,304.0
839.6,1644,14.3,11.4,83,10.14,100,8.0,302.1,332.4,304.0
839.2,1648,14.2,11.4,83,10.17,100,8.1,302.1,332.5,304.0
838.8,1652,14.2,11.4,83,10.17,100,8.2,302.2,332.5,304.0
838.3,1657,14.2,11.3,83,10.12,100,8.3,302.2,332.4,304.0
837.9,1661,14.2,11.2,82,10.04,99,8.4,302.2,332.2,304.1
837.4,1666,14.2,11.1,82,9.99,99,8.5,302.3,332.1,304.1
836.9,1671,14.2,11.1,82,9.96,99,8.5,302.3,332.1,304.1
836.5,1675,14.2,11.0,81,9.94,99,8.6,302.4,332.1,304.2
836.0,1680,14.2,11.0,81,9.89,98,8.7,302.4,332.0,304.2
835.6,1684,14.1,10.9,81,9.85,98,8.7,302.4,331.8,304.2
