PRES,HGHT,TEMP,DWPT,RELH,MIXR,DRCT,SPED,THTA,THTE,THTV
1011.5,31,19.7,18.4,92,13.26,266,3.1,291.9,329.6,294.2
1011.1,34,20.5,18.5,89,13.40,296,1.3,292.7,330.9,295.0
1010.4,40,21.1,18.8,87,13.65,329,1.0,293.4,332.5,295.8
1009.7,46,21.9,19.1,84,13.93,342,1.0,294.2,334.1,296.7
1009.2,51,22.3,19.2,83,13.98,342,1.1,294.7,334.8,297.1
1008.5,56,22.4,19.1,81,13.90,340,1.2,294.8,334.8,297.3
1007.8,62,22.3,19.0,81,13.82,338,1.2,294.8,334.6,297.2
1007.3,66,22.3,19.0,82,13.90,339,1.3,294.9,334.9,297.3
1006.7,72,22.5,19.2,82,14.08,339,1.3,295.1,335.7,297.6
1006.1,77,22.7,19.4,81,14.19,340,1.4,295.3,336.2,297.8
1005.6,82,22.7,19.3,81,14.17,341,1.4,295.4,336.2,297.9
1005.0,87,22.7,19.3,81,14.18,342,1.5,295.4,336.3,297.9
1004.4,92,22.6,19.4,82,14.23,342,1.5,295.4,336.4,297.9
1003.8,97,22.6,19.4,82,14.29,343,1.5,295.4,336.7,298.0
1003.2,103,22.6,19.4,82,14.32,343,1.5,295.5,336.8,298.0
1002.5,108,22.6,19.4,83,14.33,344,1.5,295.5,336.8,298.0
1001.9,113,22.5,19.4,83,14.33,344,1.5,295.5,336.8,298.0
1001.4,118,22.5,19.4,83,14.32,344,1.5,295.5,336.8,298.0
1000.8,123,22.4,19.4,83,14.31,345,1.5,295.5,336.8,298.0
1000.2,128,22.4,19.4,83,14.31,345,1.5,295.5,336.8,298.0
1000.0,130,22.4,19.4,83,14.33,345,1.5,295.5,336.8,298.1
999.6,133,22.4,19.4,83,14.34,345,1.5,295.6,336.9,298.1
999.1,138,22.3,19.4,84,14.37,345,1.5,295.6,337.0,298.1
998.5,143,22.3,19.4,84,14.36,346,1.5,295.6,337.0,298.1
997.9,148,22.3,19.4,84,14.36,345,1.4,295.6,337.0,298.1
997.3,154,22.2,19.4,84,14.39,345,1.4,295.6,337.1,298.2
996.7,159,22.2,19.4,84,14.39,345,1.4,295.6,337.1,298.1
996.1,164,22.1,19.4,85,14.37,345,1.4,295.6,337.1,298.1
995.4,170,22.1,19.4,85,14.37,345,1.3,295.6,337.0,298.1
994.8,176,22.0,19.4,85,14.38,345,1.3,295.6,337.1,298.2
994.2,181,22.0,19.4,85,14.40,345,1.3,295.6,337.2,298.2
993.5,187,21.9,19.4,86,14.40,345,1.3,295.6,337.2,298.2
992.9,192,21.9,19.4,86,14.38,345,1.2,295.6,337.1,298.2
992.3,198,21.8,19.4,86,14.39,345,1.2,295.6,337.2,298.2
991.7,203,21.8,19.4,86,14.41,346,1.2,295.7,337.2,298.2
991.1,208,21.8,19.4,86,14.41,346,1.2,295.7,337.2,298.2
990.6,213,21.7,19.3,86,14.40,347,1.2,295.6,337.2,298.2
990.0,217,21.7,19.4,87,14.43,348,1.2,295.6,337.3,298.2
989.5,222,21.6,19.4,87,14.44,349,1.2,295.6,337.3,298.2
989.0,227,21.5,19.3,87,14.43,350,1.2,295.6,337.3,298.2
988.4,232,21.5,19.3,87,14.42,351,1.1,295.6,337.2,298.2
987.8,237,21.5,19.3,88,14.41,353,1.1,295.6,337.2,298.2
987.2,242,21.4,19.3,88,14.45,355,1.1,295.7,337.4,298.2
986.6,248,21.4,19.4,88,14.50,357,1.1,295.7,337.5,298.3
986.0,253,21.4,19.4,88,14.49,359,1.1,295.7,337.5,298.3
985.4,259,21.3,19.3,88,14.48,1,1.1,295.7,337.5,298.3
984.7,264,21.3,19.3,89,14.48,4,1.1,295.7,337.5,298.3
984.1,270,21.2,19.3,89,14.48,7,1.1,295.7,337.5,298.3
983.5,275,21.2,19.3,89,14.48,10,1.2,295.7,337.5,298.3
982.9,280,21.1,19.3,89,14.47,13,1.2,295.7,337.5,298.3
982.3,286,21.1,19.3,90,14.47,16,1.2,295.7,337.5,298.3
981.7,291,21.0,19.3,90,14.48,20,1.2,295.7,337.5,298.3
981.1,296,20.9,19.3,90,14.51,23,1.2,295.7,337.5,298.3
980.5,302,20.9,19.3,90,14.49,26,1.2,295.7,337.5,298.3
979.9,307,20.8,19.2,91,14.48,29,1.3,295.7,337.5,298.3
979.3,312,20.8,19.2,91,14.47,32,1.3,295.7,337.5,298.3
978.7,317,20.7,19.2,91,14.49,35,1.3,295.7,337.5,298.3
978.2,322,20.7,19.3,91,14.51,37,1.4,295.7,337.6,298.3
977.6,328,20.7,19.2,92,14.50,40,1.4,295.7,337.6,298.3
977.0,333,20.6,19.2,92,14.48,43,1.5,295.7,337.5,298.3
976.4,338,20.6,19.2,92,14.48,45,1.5,295.7,337.5,298.3
975.8,343,20.5,19.2,92,14.48,47,1.6,295.7,337.5,298.3
975.2,349,20.5,19.2,92,14.49,50,1.6,295.7,337.5,298.3
974.6,354,20.4,19.2,93,14.51,52,1.7,295.7,337.6,298.3
974.1,359,20.4,19.2,93,14.54,54,1.7,295.7,337.7,298.3
973.5,363,20.3,19.2,93,14.55,55,1.8,295.7,337.7,298.3
973.0,368,20.3,19.2,94,14.56,57,1.8,295.7,337.8,298.3
972.5,373,20.2,19.2,94,14.59,59,1.9,295.7,337.8,298.3
971.9,378,20.2,19.2,94,14.60,60,1.9,295.7,337.9,298.3
971.4,382,20.2,19.2,94,14.59,62,2.0,295.8,337.9,298.3
970.9,387,20.1,19.2,94,14.57,64,2.0,295.8,337.8,298.3
970.4,391,20.1,19.2,94,14.54,65,2.1,295.7,337.7,298.3
970.0,395,20.0,19.1,94,14.50,67,2.1,295.8,337.6,298.3
969.5,400,20.0,19.1,94,14.49,69,2.2,295.8,337.6,298.3
969.0,404,20.0,19.1,95,14.51,70,2.2,295.8,337.7,298.4
968.5,408,19.9,19.2,95,14.57,72,2.3,295.8,337.8,298.4
968.0,412,19.9,19.2,96,14.59,74,2.3,295.8,337.9,298.4
967.5,417,19.9,19.2,96,14.58,75,2.4,295.8,337.9,298.4
967.0,421,19.8,19.1,96,14.56,77,2.5,295.8,337.8,298.4
966.5,426,19.8,19.1,96,14.53,79,2.5,295.8,337.7,298.4
966.0,431,19.7,19.0,96,14.49,80,2.6,295.8,337.6,298.4
965.4,436,19.7,19.0,96,14.48,82,2.7,295.8,337.6,298.4
964.9,441,19.6,19.0,96,14.48,84,2.8,295.8,337.6,298.4
964.3,446,19.6,19.0,96,14.47,85,2.9,295.8,337.6,298.4
963.8,451,19.6,19.0,96,14.47,87,2.9,295.8,337.6,298.4
963.3,455,19.5,19.0,97,14.48,89,3.0,295.8,337.6,298.4
962.7,460,19.5,19.0,97,14.50,90,3.2,295.8,337.7,298.4
962.2,465,19.4,19.0,97,14.54,92,3.3,295.8,337.8,298.4
961.7,470,19.4,19.0,98,14.56,93,3.4,295.8,337.8,298.4
961.1,474,19.3,19.0,98,14.56,95,3.5,295.8,337.9,298.4
960.7,479,19.3,19.0,98,14.51,96,3.6,295.8,337.7,298.4
960.2,483,19.3,18.9,97,14.44,98,3.8,295.9,337.5,298.4
959.7,487,19.3,18.8,97,14.38,99,3.9,295.9,337.4,298.4
959.3,491,19.3,18.8,97,14.36,100,4.1,295.9,337.4,298.5
958.8,495,19.3,18.8,97,14.36,101,4.2,296.0,337.5,298.5
958.4,499,19.3,18.7,97,14.34,102,4.4,296.0,337.5,298.6
958.0,503,19.3,18.7,97,14.34,103,4.5,296.0,337.5,298.6
957.5,507,19.3,18.7,97,14.36,104,4.7,296.1,337.6,298.6
957.1,511,19.2,18.8,97,14.38,104,4.8,296.1,337.6,298.6
956.7,514,19.2,18.8,97,14.40,105,5.0,296.1,337.7,298.6
956.3,518,19.1,18.8,98,14.40,105,5.1,296.0,337.7,298.6
955.9,522,19.1,18.7,98,14.38,106,5.3,296.0,337.6,298.6
955.5,525,19.1,18.7,98,14.34,106,5.4,296.1,337.5,298.6
955.1,529,19.1,18.6,97,14.27,106,5.5,296.1,337.3,298.6
954.7,532,19.1,18.5,96,14.17,106,5.6,296.1,337.1,298.6
954.3,536,19.1,18.4,96,14.05,106,5.7,296.2,336.8,298.7
953.9,539,19.1,18.3,95,13.98,105,5.8,296.2,336.7,298.7
953.6,543,19.1,18.3,95,13.97,105,5.9,296.2,336.7,298.7
953.2,546,19.1,18.3,95,14.00,104,6.0,296.2,336.7,298.7
952.8,549,19.0,18.3,96,14.02,104,6.0,296.2,336.8,298.7
952.5,552,19.0,18.3,96,14.04,103,6.0,296.2,336.8,298.7
952.1,555,18.9,18.3,96,14.06,102,6.0,296.2,336.9,298.7
951.8,559,18.9,18.3,96,14.07,101,6.0,296.2,336.9,298.7
951.5,562,18.9,18.3,97,14.08,100,6.0,296.2,336.9,298.7
951.1,565,18.9,18.3,97,14.07,99,6.0,296.2,336.9,298.7
950.8,568,18.8,18.3,97,14.06,98,5.9,296.2,336.9,298.7
950.4,571,18.8,18.3,97,14.04,96,5.8,296.2,336.8,298.7
950.1,574,18.8,18.2,97,14.01,95,5.8,296.2,336.8,298.7
949.7,577,18.8,18.2,97,14.00,93,5.7,296.3,336.7,298.7
949.4,581,18.7,18.2,97,13.97,92,5.6,296.3,336.7,298.7
949.0,584,18.7,18.2,97,13.98,90,5.5,296.3,336.7,298.8
948.6,587,18.7,18.2,97,13.99,88,5.4,296.3,336.8,298.7
948.3,591,18.7,18.2,97,13.98,86,5.3,296.3,336.7,298.7
947.9,594,18.6,18.2,97,13.97,85,5.2,296.3,336.7,298.8
947.5,597,18.6,18.2,97,13.99,83,5.1,296.3,336.8,298.8
947.2,601,18.6,18.2,98,14.01,81,5.0,296.3,336.8,298.8
946.8,604,18.5,18.2,98,14.00,80,4.9,296.3,336.8,298.7
946.4,608,18.5,18.1,98,13.98,78,4.8,296.3,336.7,298.7
946.0,611,18.5,18.1,98,13.94,77,4.8,296.3,336.6,298.7
945.7,614,18.5,18.1,98,13.91,76,4.7,296.3,336.5,298.8
945.3,618,18.4,18.0,97,13.88,76,4.6,296.3,336.5,298.8
944.9,621,18.4,18.0,97,13.87,75,4.5,296.3,336.5,298.8
944.5,625,18.4,18.0,97,13.86,75,4.5,296.3,336.4,298.8
944.1,629,18.4,18.0,97,13.85,74,4.4,296.3,336.4,298.8
943.7,632,18.3,18.0,98,13.85,74,4.3,296.3,336.4,298.8
943.3,636,18.3,17.9,98,13.85,75,4.3,296.3,336.4,298.8
942.9,640,18.3,17.9,98,13.83,75,4.2,296.3,336.4,298.8
942.4,644,18.2,17.9,98,13.82,76,4.2,296.4,336.4,298.8
942.0,648,18.2,17.9,98,13.82,77,4.2,296.4,336.4,298.8
941.6,651,18.2,17.9,98,13.80,78,4.2,296.4,336.3,298.8
941.2,655,18.1,17.8,98,13.78,80,4.1,296.4,336.3,298.8
940.7,659,18.1,17.8,98,13.79,81,4.1,296.4,336.3,298.8
940.3,663,18.1,17.8,99,13.81,83,4.1,296.4,336.3,298.8
939.9,667,18.0,17.8,99,13.80,84,4.1,296.4,336.3,298.8
939.5,671,18.0,17.7,98,13.72,85,4.1,296.4,336.1,298.8
939.0,675,18.0,17.6,98,13.58,87,4.2,296.4,335.7,298.8
938.6,679,18.0,17.3,96,13.38,88,4.2,296.4,335.2,298.8
938.1,683,18.0,17.0,94,13.14,89,4.2,296.5,334.6,298.9
937.7,687,18.1,16.9,93,13.05,91,4.2,296.6,334.4,298.9
937.2,691,18.1,17.0,93,13.08,92,4.2,296.7,334.6,299.0
936.8,696,18.0,17.1,94,13.20,93,4.3,296.7,334.9,299.0
936.3,700,18.0,17.2,96,13.34,93,4.3,296.6,335.3,299.0
935.8,704,17.9,17.3,96,13.38,94,4.3,296.6,335.4,299.0
935.3,709,17.9,17.2,96,13.33,95,4.3,296.6,335.3,299.0
934.9,713,17.8,17.1,96,13.27,95,4.3,296.6,335.1,299.0
934.4,717,17.8,17.1,96,13.23,96,4.3,296.6,335.0,299.0
933.9,722,17.8,17.0,95,13.17,96,4.3,296.6,334.8,299.0
933.5,726,17.7,16.9,95,13.10,96,4.3,296.7,334.6,299.0
933.0,730,17.7,16.8,94,13.02,96,4.3,296.7,334.5,299.0
932.6,734,17.7,16.7,94,12.97,96,4.3,296.7,334.3,299.0
932.1,738,17.7,16.7,94,12.96,96,4.3,296.8,334.4,299.1
931.7,742,17.7,16.7,94,12.94,96,4.3,296.8,334.3,299.1
931.3,746,17.7,16.6,93,12.83,96,4.3,296.8,334.0,299.1
930.8,750,17.7,16.4,92,12.68,95,4.3,296.8,333.7,299.1
930.4,754,17.7,16.2,91,12.57,95,4.3,296.9,333.4,299.1
929.9,758,17.6,16.1,91,12.50,95,4.3,296.9,333.2,299.1
929.5,762,17.6,16.1,91,12.44,94,4.3,296.9,333.1,299.1
929.0,767,17.6,16.0,90,12.37,94,4.3,296.9,332.9,299.1
928.6,771,17.6,15.9,90,12.32,94,4.3,297.0,332.8,299.2
928.1,776,17.6,15.8,90,12.28,93,4.3,297.0,332.7,299.2
927.5,780,17.6,15.8,89,12.26,93,4.3,297.0,332.7,299.2
927.0,785,17.5,15.8,89,12.25,93,4.3,297.0,332.7,299.2
926.5,790,17.5,15.7,89,12.23,92,4.3,297.1,332.6,299.2
925.9,796,17.5,15.7,89,12.20,92,4.3,297.1,332.6,299.2
925.4,800,17.4,15.6,89,12.14,92,4.3,297.1,332.4,299.2
925.0,804,17.4,15.5,89,12.05,92,4.3,297.1,332.2,299.2
924.9,805,17.4,15.5,88,12.02,92,4.3,297.1,332.1,299.2
924.4,810,17.4,15.3,88,11.92,92,4.3,297.1,331.8,299.3
923.9,814,17.4,15.2,87,11.84,91,4.3,297.2,331.7,299.3
923.4,819,17.4,15.2,87,11.82,91,4.3,297.2,331.6,299.3
923.0,823,17.3,15.2,87,11.86,91,4.3,297.2,331.7,299.3
922.5,827,17.3,15.2,88,11.88,91,4.3,297.2,331.8,299.3
922.1,831,17.2,15.2,88,11.86,91,4.3,297.2,331.7,299.3
921.6,835,17.2,15.2,88,11.85,91,4.3,297.2,331.7,299.3
921.2,839,17.2,15.2,88,11.85,91,4.3,297.2,331.7,299.3
920.7,844,17.2,15.2,88,11.85,91,4.3,297.2,331.8,299.4
920.3,848,17.1,15.2,88,11.87,91,4.3,297.2,331.8,299.4
919.8,853,17.1,15.2,89,11.86,91,4.3,297.2,331.8,299.3
919.3,857,17.0,15.0,88,11.76,91,4.3,297.2,331.5,299.3
918.8,862,17.0,14.8,87,11.58,91,4.2,297.3,331.0,299.3
918.3,867,17.0,14.5,85,11.38,91,4.2,297.3,330.5,299.4
917.7,871,17.0,14.3,84,11.20,91,4.2,297.4,330.1,299.4
917.2,876,17.0,14.1,83,11.13,90,4.2,297.4,329.9,299.4
916.7,881,17.0,14.1,83,11.11,90,4.2,297.4,329.9,299.4
916.2,885,17.0,14.1,83,11.14,90,4.2,297.5,330.0,299.5
915.8,890,17.0,14.2,84,11.20,90,4.2,297.5,330.2,299.5
915.3,894,17.0,14.2,84,11.22,89,4.2,297.6,330.4,299.6
914.9,898,17.1,14.1,83,11.14,89,4.2,297.7,330.2,299.7
914.4,902,17.1,13.9,82,11.00,89,4.2,297.8,329.9,299.7
914.0,906,17.1,13.8,81,10.91,88,4.2,297.8,329.7,299.8
913.6,910,17.1,13.8,81,10.89,88,4.2,297.9,329.7,299.8
913.2,914,17.1,13.7,81,10.88,87,4.2,297.9,329.7,299.8
912.7,918,17.1,13.7,80,10.85,87,4.3,297.9,329.7,299.8
912.3,922,17.1,13.6,80,10.82,87,4.3,297.9,329.6,299.9
911.8,927,17.1,13.6,80,10.77,86,4.3,298.0,329.5,299.9
911.4,931,17.1,13.4,79,10.69,86,4.4,298.0,329.3,299.9
910.9,935,17.0,13.3,79,10.60,86,4.4,298.0,329.1,299.9
910.4,940,17.0,13.1,78,10.49,86,4.4,298.1,328.8,299.9
910.0,944,17.0,13.0,77,10.41,86,4.5,298.1,328.6,300.0
909.5,948,17.0,13.0,77,10.39,86,4.5,298.1,328.6,300.0
909.1,952,17.0,12.9,77,10.36,86,4.6,298.2,328.6,300.0
908.6,957,17.0,12.9,77,10.31,86,4.6,298.2,328.5,300.0
908.2,961,17.0,12.7,76,10.22,86,4.7,298.2,328.2,300.1
907.7,965,17.0,12.5,75,10.07,86,4.7,298.2,327.8,300.1
907.2,970,17.0,12.2,73,9.88,87,4.7,298.3,327.3,300.1
906.8,974,17.0,12.0,73,9.76,87,4.8,298.3,327.1,300.1
906.3,979,17.0,12.0,72,9.74,87,4.8,298.4,327.0,300.1
905.8,983,16.9,11.9,72,9.74,88,4.9,298.4,327.0,300.1
905.3,988,16.9,11.9,73,9.73,88,4.9,298.4,327.0,300.2
904.9,992,16.9,11.9,73,9.74,89,5.0,298.4,327.1,300.2
904.4,997,16.8,12.0,73,9.78,89,5.1,298.4,327.2,300.2
903.9,1001,16.8,12.0,74,9.82,90,5.1,298.4,327.3,300.2
903.4,1006,16.7,12.0,74,9.83,90,5.2,298.4,327.3,300.2
902.9,1011,16.7,12.0,74,9.83,91,5.2,298.4,327.3,300.2
902.4,1015,16.7,12.0,74,9.83,91,5.3,298.4,327.3,300.2
901.9,1020,16.6,12.0,74,9.84,92,5.3,298.4,327.4,300.2
901.4,1025,16.6,12.1,75,9.86,92,5.4,298.5,327.5,300.2
900.8,1030,16.6,12.1,75,9.92,93,5.4,298.5,327.6,300.3
900.3,1035,16.5,12.3,76,10.00,93,5.4,298.5,327.9,300.3
899.8,1040,16.5,12.3,76,10.02,93,5.5,298.5,328.0,300.3
899.3,1045,16.5,12.2,76,9.98,93,5.5,298.6,327.9,300.4
898.8,1050,16.5,12.2,76,9.96,93,5.5,298.6,327.9,300.4
898.2,1055,16.5,12.2,76,10.00,93,5.5,298.6,328.0,300.4
897.8,1060,16.4,12.3,77,10.08,93,5.6,298.6,328.3,300.5
897.3,1064,16.4,12.4,77,10.16,93,5.6,298.7,328.6,300.5
896.8,1069,16.4,12.5,78,10.22,93,5.5,298.7,328.8,300.6
896.2,1074,16.5,12.5,78,10.22,93,5.5,298.8,328.9,300.6
895.7,1079,16.5,12.5,77,10.20,92,5.5,298.9,328.9,300.7
895.2,1084,16.4,12.4,77,10.19,92,5.5,298.9,328.9,300.7
894.7,1089,16.4,12.4,77,10.17,92,5.4,298.9,328.9,300.8
894.1,1094,16.4,12.4,77,10.17,91,5.4,299.0,328.9,300.8
893.6,1099,16.4,12.4,77,10.15,91,5.3,299.0,328.9,300.8
893.1,1104,16.4,12.3,77,10.12,90,5.3,299.0,328.8,300.8
892.6,1109,16.4,12.2,76,10.04,90,5.2,299.1,328.6,300.9
892.1,1114,16.3,12.0,76,9.94,89,5.1,299.1,328.4,300.9
891.5,1119,16.3,11.8,75,9.83,89,5.0,299.1,328.1,300.9
891.0,1123,16.3,11.7,74,9.75,89,4.9,299.2,327.9,300.9
890.6,1128,16.3,11.6,74,9.69,88,4.8,299.2,327.8,300.9
890.1,1133,16.3,11.6,74,9.65,88,4.7,299.2,327.7,300.9
889.6,1137,16.2,11.5,74,9.65,88,4.6,299.2,327.7,300.9
889.2,1142,16.2,11.5,74,9.66,88,4.5,299.2,327.7,300.9
888.7,1146,16.1,11.6,74,9.67,88,4.4,299.2,327.8,301.0
888.3,1150,16.1,11.5,74,9.67,89,4.3,299.2,327.7,300.9
887.8,1154,16.1,11.5,74,9.67,89,4.2,299.2,327.8,301.0
887.4,1159,16.0,11.5,75,9.68,90,4.1,299.2,327.8,301.0
886.9,1163,16.0,11.6,75,9.70,91,4.0,299.2,327.9,301.0
886.5,1167,16.0,11.6,75,9.71,92,3.9,299.2,327.9,301.0
886.0,1172,15.9,11.6,75,9.71,93,3.8,299.3,327.9,301.0
885.6,1176,15.9,11.6,76,9.73,95,3.7,299.3,328.0,301.0
885.1,1181,15.9,11.7,76,9.78,96,3.7,299.3,328.1,301.0
884.6,1185,15.8,11.8,77,9.85,98,3.6,299.3,328.4,301.1
884.1,1190,15.8,11.9,78,9.94,99,3.6,299.3,328.6,301.1
883.6,1195,15.8,12.0,78,10.05,101,3.6,299.3,329.0,301.1
883.1,1200,15.8,12.2,79,10.14,103,3.6,299.3,329.3,301.2
882.5,1205,15.7,12.3,80,10.23,104,3.6,299.4,329.5,301.2
882.0,1211,15.7,12.4,80,10.29,106,3.6,299.4,329.8,301.3
881.4,1216,15.7,12.4,81,10.34,107,3.6,299.5,330.0,301.4
880.9,1221,15.7,12.4,80,10.31,108,3.7,299.5,330.0,301.4
880.4,1226,15.7,12.3,80,10.27,109,3.7,299.6,329.9,301.4
879.9,1231,15.7,12.3,80,10.25,110,3.8,299.6,329.8,301.4
879.4,1235,15.7,12.3,80,10.26,111,3.9,299.6,329.9,301.5
879.0,1240,15.6,12.3,80,10.26,111,3.9,299.6,329.9,301.5
878.5,1244,15.6,12.3,81,10.27,112,4.0,299.6,330.0,301.5
878.0,1249,15.6,12.3,81,10.27,112,4.1,299.6,330.0,301.5
877.5,1254,15.5,12.2,81,10.25,112,4.2,299.7,329.9,301.5
877.0,1258,15.5,12.2,81,10.22,112,4.3,299.7,329.9,301.5
876.6,1263,15.5,12.2,81,10.21,111,4.4,299.7,329.8,301.5
876.1,1268,15.4,12.2,81,10.23,111,4.5,299.7,329.9,301.5
875.6,1272,15.4,12.2,81,10.23,111,4.5,299.7,329.9,301.5
875.2,1276,15.4,12.2,81,10.24,111,4.6,299.7,329.9,301.5
874.7,1281,15.3,12.2,82,10.26,111,4.7,299.7,330.0,301.6
874.3,1285,15.3,12.2,82,10.29,111,4.8,299.7,330.1,301.6
873.8,1290,15.3,12.2,82,10.30,111,4.8,299.7,330.2,301.6
873.4,1294,15.2,12.2,82,10.29,111,4.9,299.7,330.1,301.6
872.9,1299,15.2,12.2,82,10.26,111,5.0,299.7,330.0,301.6
872.4,1303,15.1,12.2,82,10.26,111,5.0,299.7,330.0,301.6
872.0,1307,15.1,12.2,83,10.26,112,5.0,299.7,330.0,301.6
871.5,1312,15.0,12.1,83,10.25,112,5.1,299.7,330.0,301.6
871.1,1316,15.0,12.1,83,10.23,113,5.1,299.7,329.9,301.6
870.6,1321,15.0,12.1,83,10.22,114,5.1,299.8,330.0,301.6
870.2,1325,14.9,12.1,83,10.25,115,5.1,299.8,330.0,301.6
869.7,1330,14.9,12.1,83,10.26,116,5.1,299.8,330.0,301.6
869.2,1334,14.8,12.1,83,10.23,117,5.0,299.7,330.0,301.6
868.8,1339,14.8,12.0,83,10.19,118,5.0,299.7,329.9,301.6
868.3,1343,14.8,12.0,83,10.19,119,5.0,299.8,329.9,301.6
867.8,1348,14.7,12.0,84,10.22,121,5.0,299.8,330.0,301.6
867.4,1352,14.7,12.1,84,10.26,122,4.9,299.8,330.1,301.6
866.9,1357,14.6,12.1,85,10.27,123,4.9,299.8,330.1,301.6
866.4,1362,14.6,12.0,85,10.25,125,4.9,299.8,330.0,301.6
866.0,1366,14.6,12.0,85,10.21,126,4.8,299.8,329.9,301.6
865.5,1371,14.5,11.9,84,10.18,127,4.8,299.8,329.9,301.6
865.0,1376,14.5,11.9,85,10.17,128,4.8,299.8,329.8,301.6
864.5,1380,14.4,11.9,85,10.19,128,4.8,299.8,329.9,301.6
864.0,1385,14.4,11.9,85,10.21,129,4.7,299.8,330.0,301.7
863.5,1390,14.4,12.0,86,10.24,129,4.7,299.8,330.1,301.7
863.0,1395,14.3,12.0,86,10.25,129,4.7,299.8,330.1,301.7
862.4,1401,14.3,12.0,86,10.25,129,4.7,299.8,330.1,301.7
861.9,1406,14.2,11.9,86,10.22,129,4.7,299.8,330.0,301.7
861.3,1412,14.2,11.9,86,10.21,128,4.7,299.8,330.0,301.7
860.8,1417,14.1,11.9,87,10.22,127,4.7,299.8,330.0,301.7
860.2,1423,14.0,11.8,87,10.19,126,4.7,299.8,329.9,301.6
859.7,1428,14.0,11.8,87,10.16,125,4.7,299.8,329.8,301.6
859.2,1433,13.9,11.7,87,10.14,123,4.7,299.8,329.8,301.6
858.7,1438,13.9,11.7,87,10.14,122,4.7,299.8,329.8,301.6
858.2,1442,13.9,11.7,87,10.13,120,4.7,299.8,329.8,301.6
857.8,1447,13.8,11.7,87,10.13,118,4.7,299.8,329.8,301.7
857.3,1451,13.8,11.7,87,10.15,116,4.8,299.9,329.9,301.7
856.8,1456,13.8,11.8,88,10.19,114,4.8,299.9,330.0,301.7
856.4,1461,13.7,11.8,88,10.22,112,4.8,299.9,330.1,301.7
855.8,1466,13.7,11.8,88,10.21,110,4.9,299.9,330.1,301.7
855.3,1471,13.7,11.7,88,10.13,109,4.9,299.9,329.9,301.7
854.8,1476,13.7,11.5,87,10.03,107,4.9,299.9,329.6,301.8
854.3,1481,13.7,11.4,86,9.94,105,4.9,300.0,329.4,301.8
853.8,1486,13.6,11.3,86,9.91,104,5.0,300.0,329.3,301.8
853.3,1491,13.6,11.3,86,9.92,102,5.0,300.0,329.4,301.8
852.9,1495,13.5,11.3,86,9.93,101,5.0,300.0,329.4,301.8
852.4,1499,13.5,11.3,87,9.93,100,5.0,300.0,329.4,301.8
852.0,1503,13.5,11.3,87,9.94,98,5.0,300.0,329.4,301.8
851.6,1507,13.4,11.3,87,9.94,97,4.9,300.0,329.4,301.8
851.2,1511,13.4,11.3,87,9.93,97,4.9,300.0,329.4,301.8
850.8,1515,13.4,11.3,87,9.93,96,4.9,300.1,329.4,301.8
850.5,1519,13.3,11.2,87,9.90,95,4.8,300.1,329.4,301.8
850.1,1523,13.3,11.2,87,9.87,95,4.8,300.1,329.3,301.8
850.0,1523,13.3,11.2,87,9.85,94,4.7,300.1,329.2,301.9
849.7,1527,13.3,11.1,86,9.79,94,4.7,300.1,329.1,301.9
849.3,1531,13.4,10.9,85,9.67,94,4.7,300.2,328.8,301.9
848.9,1535,13.5,10.7,83,9.57,94,4.6,300.4,328.8,302.1
848.5,1539,13.5,10.6,82,9.49,93,4.6,300.5,328.6,302.2
848.0,1543,13.5,10.5,82,9.44,93,4.5,300.5,328.5,302.2
847.6,1547,13.6,10.5,82,9.43,94,4.4,300.6,328.6,302.3
847.1,1552,13.6,10.5,81,9.43,94,4.4,300.6,328.6,302.3
846.7,1557,13.5,10.5,82,9.43,94,4.4,300.6,328.6,302.3
846.2,1562,13.5,10.4,82,9.42,95,4.3,300.6,328.6,302.3
845.7,1567,13.4,10.4,82,9.39,95,4.3,300.6,328.6,302.3
845.2,1572,13.4,10.3,82,9.38,96,4.3,300.7,328.5,302.4
844.7,1576,13.4,10.3,82,9.36,96,4.3,300.7,328.5,302.4
844.2,1581,13.3,10.2,82,9.32,97,4.3,300.7,328.4,302.4
843.8,1586,13.3,10.2,81,9.27,98,4.3,300.7,328.3,302.4
843.3,1590,13.3,10.1,81,9.23,99,4.3,300.7,328.2,302.4
842.9,1594,13.3,10.0,80,9.18,100,4.3,300.8,328.1,302.4
842.5,1599,13.3,9.9,80,9.14,100,4.3,300.8,328.0,302.5
842.0,1603,13.3,9.9,79,9.11,101,4.4,300.9,328.0,302.6
841.6,1607,13.3,9.9,80,9.12,102,4.4,300.9,328.1,302.6
841.2,1612,13.3,9.9,80,9.13,103,4.5,300.9,328.1,302.6
840.7,1616,13.3,9.9,80,9.14,103,4.5,301.0,328.2,302.6
840.3,1621,13.2,9.9,80,9.14,104,4.6,301.0,328.2,302.6
839.8,1625,13.2,9.8,80,9.12,104,4.6,301.0,328.2,302.7
839.4,1630,13.2,9.8,80,9.11,105,4.7,301.0,328.1,302.7
838.9,1634,13.1,9.8,80,9.10,105,4.8,301.0,328.1,302.7
838.5,1639,13.1,9.8,80,9.09,106,4.8,301.0,328.1,302.6
838.0,1643,13.0,9.7,80,9.08,106,4.9,301.0,328.0,302.6
837.6,1647,13.0,9.7,80,9.07,106,4.9,301.0,328.0,302.6
837.2,1652,13.0,9.7,80,9.06,106,5.0,301.0,328.0,302.7
836.8,1656,13.0,9.7,80,9.05,106,5.1,301.1,328.0,302.7
836.4,1660,12.9,9.6,80,9.02,106,5.1,301.1,328.0,302.7
