PRES,HGHT,TEMP,DWPT,RELH,MIXR,DRCT,SPED,THTA,THTE,THTV
1017.8,31,26.2,20.3,70,14.92,71,9.9,297.8,341.3,300.5
1017.1,37,26.0,20.6,72,15.15,74,6.0,297.7,341.8,300.4
1016.6,41,25.8,20.4,72,15.01,75,5.4,297.6,341.3,300.3
1016.0,46,25.7,20.3,72,14.91,75,5.5,297.4,340.8,300.1
1015.2,53,25.5,20.2,73,14.85,75,5.9,297.3,340.5,300.0
1014.4,60,25.3,20.1,73,14.80,75,6.4,297.2,340.2,299.8
1013.8,65,25.2,20.0,73,14.68,75,6.9,297.1,339.8,299.7
1013.2,70,25.0,19.8,73,14.45,75,7.3,297.0,339.0,299.6
1012.6,76,24.9,19.5,72,14.24,74,7.6,297.0,338.3,299.5
1011.9,82,24.8,19.4,72,14.17,74,8.0,296.9,338.1,299.4
1011.2,88,24.7,19.4,72,14.19,74,8.3,296.9,338.1,299.4
1010.6,93,24.7,19.5,73,14.22,74,8.6,296.9,338.2,299.5
1009.9,99,24.6,19.5,73,14.24,74,8.9,296.9,338.3,299.5
1009.2,105,24.6,19.5,73,14.24,74,9.2,296.9,338.3,299.5
1008.6,111,24.5,19.4,73,14.18,74,9.4,296.9,338.1,299.4
1007.9,116,24.4,19.3,73,14.10,74,9.7,296.9,337.9,299.4
1007.2,122,24.4,19.2,73,14.05,74,9.9,296.9,337.7,299.4
1006.6,128,24.3,19.1,73,13.99,74,10.0,296.9,337.5,299.4
1005.9,134,24.2,19.0,73,13.92,73,10.2,296.9,337.3,299.4
1005.2,140,24.2,19.0,73,13.85,73,10.3,296.9,337.1,299.3
1004.5,146,24.1,18.9,73,13.84,73,10.4,296.9,337.1,299.3
1003.9,152,24.1,19.0,73,13.89,73,10.5,296.9,337.2,299.4
1003.2,157,24.0,19.0,74,13.94,73,10.6,296.9,337.4,299.4
1002.6,163,24.0,19.0,74,13.93,73,10.7,296.9,337.3,299.4
1002.0,168,23.9,18.9,74,13.88,73,10.7,296.9,337.2,299.4
1001.4,174,23.9,18.9,74,13.84,73,10.7,296.9,337.1,299.4
1000.8,179,23.8,18.9,74,13.83,73,10.8,296.9,337.1,299.4
1000.2,184,23.8,18.9,74,13.83,73,10.8,296.9,337.1,299.4
1000.0,186,23.8,18.9,74,13.83,72,10.8,296.9,337.1,299.4
999.6,189,23.7,18.9,74,13.85,72,10.8,296.9,337.1,299.4
999.1,194,23.7,18.9,75,13.88,72,10.8,296.9,337.2,299.4
998.5,199,23.6,18.9,75,13.89,72,10.8,296.9,337.2,299.4
997.9,204,23.6,18.9,75,13.88,72,10.8,296.9,337.2,299.4
997.4,209,23.5,18.8,75,13.82,72,10.8,296.9,337.0,299.4
996.8,213,23.5,18.7,74,13.71,72,10.8,296.9,336.7,299.4
996.3,218,23.5,18.6,74,13.62,72,10.7,296.9,336.5,299.4
995.8,223,23.4,18.5,74,13.62,72,10.7,296.9,336.5,299.4
995.2,228,23.4,18.6,74,13.66,72,10.7,297.0,336.6,299.4
994.7,233,23.4,18.6,75,13.69,72,10.6,297.0,336.7,299.4
994.1,238,23.3,18.6,75,13.71,73,10.6,297.0,336.8,299.4
993.5,243,23.2,18.7,75,13.75,73,10.6,296.9,336.9,299.4
992.9,248,23.2,18.6,76,13.75,73,10.5,296.9,336.9,299.4
992.3,253,23.1,18.6,76,13.73,73,10.5,296.9,336.8,299.4
991.7,259,23.1,18.6,76,13.70,73,10.4,296.9,336.7,299.4
991.1,264,23.0,18.5,76,13.68,73,10.4,296.9,336.7,299.4
990.5,269,23.0,18.5,76,13.65,73,10.3,296.9,336.6,299.4
989.9,275,22.9,18.5,76,13.63,73,10.3,297.0,336.5,299.4
989.3,280,22.9,18.5,76,13.64,73,10.2,297.0,336.6,299.4
988.7,285,22.8,18.5,76,13.66,74,10.2,297.0,336.6,299.4
988.2,290,22.8,18.5,77,13.67,74,10.1,296.9,336.7,299.4
987.6,295,22.7,18.5,77,13.68,74,10.1,296.9,336.7,299.4
987.0,300,22.7,18.5,77,13.69,74,10.0,296.9,336.7,299.4
986.5,305,22.6,18.5,77,13.70,74,10.0,296.9,336.7,299.4
985.9,310,22.6,18.5,78,13.70,74,10.0,296.9,336.7,299.4
985.4,315,22.5,18.5,78,13.70,74,10.0,296.9,336.7,299.4
984.8,320,22.5,18.5,78,13.71,74,10.0,296.9,336.8,299.4
984.2,325,22.4,18.4,78,13.69,74,9.9,296.9,336.7,299.4
983.7,329,22.4,18.4,78,13.64,75,10.0,296.9,336.5,299.4
983.1,334,22.4,18.3,78,13.61,75,10.0,296.9,336.5,299.4
982.6,339,22.3,18.4,78,13.64,75,10.0,296.9,336.5,299.4
982.0,345,22.3,18.4,79,13.69,75,10.0,296.9,336.7,299.4
981.4,350,22.2,18.4,79,13.73,75,10.0,296.9,336.8,299.4
980.8,355,22.1,18.5,80,13.76,75,10.1,296.9,336.9,299.4
980.2,360,22.1,18.4,80,13.74,75,10.1,296.9,336.8,299.4
979.6,366,22.0,18.4,80,13.72,75,10.2,296.9,336.7,299.4
979.0,371,22.0,18.4,80,13.72,75,10.2,296.9,336.8,299.4
978.4,376,21.9,18.4,80,13.72,75,10.3,296.9,336.8,299.4
977.8,381,21.9,18.4,80,13.72,75,10.4,296.9,336.8,299.4
977.3,386,21.9,18.3,80,13.71,74,10.4,296.9,336.7,299.4
976.7,391,21.8,18.3,81,13.70,74,10.5,296.9,336.7,299.4
976.2,396,21.8,18.3,81,13.66,74,10.5,296.9,336.6,299.4
975.6,401,21.7,18.2,80,13.62,74,10.6,297.0,336.5,299.4
975.1,406,21.7,18.2,80,13.59,74,10.6,297.0,336.4,299.4
974.5,411,21.6,18.1,80,13.56,74,10.6,297.0,336.4,299.4
973.9,416,21.6,18.1,80,13.54,74,10.7,297.0,336.3,299.4
973.3,422,21.6,18.1,81,13.53,74,10.7,297.0,336.3,299.4
972.7,427,21.5,18.0,81,13.47,74,10.7,297.0,336.1,299.4
972.1,432,21.4,17.9,80,13.40,73,10.7,297.0,335.9,299.4
971.5,438,21.4,17.8,80,13.34,73,10.7,297.0,335.8,299.4
970.9,443,21.4,17.8,80,13.34,73,10.7,297.0,335.7,299.4
970.3,448,21.3,17.8,81,13.37,73,10.7,297.0,335.8,299.4
969.8,454,21.3,17.9,81,13.43,73,10.6,297.0,336.0,299.4
969.2,459,21.2,18.0,82,13.50,73,10.6,297.0,336.2,299.4
968.6,464,21.1,18.0,82,13.57,73,10.6,297.0,336.4,299.4
968.1,469,21.1,18.1,83,13.58,73,10.5,297.0,336.4,299.4
967.5,474,21.0,18.0,83,13.57,73,10.5,297.0,336.4,299.4
967.0,478,21.0,18.0,83,13.52,72,10.4,297.0,336.2,299.4
966.4,483,20.9,17.9,83,13.49,72,10.4,297.0,336.2,299.4
965.9,488,20.9,17.9,83,13.51,72,10.4,297.0,336.2,299.4
965.4,493,20.8,18.0,84,13.55,72,10.3,297.0,336.3,299.4
964.8,498,20.8,18.0,84,13.60,72,10.3,297.0,336.4,299.4
964.3,503,20.8,18.0,84,13.58,72,10.2,297.0,336.4,299.4
963.7,508,20.7,18.0,84,13.56,72,10.2,297.0,336.4,299.4
963.1,513,20.7,18.0,85,13.59,73,10.1,297.0,336.5,299.4
962.5,519,20.6,18.0,85,13.64,73,10.1,297.0,336.6,299.4
961.9,524,20.6,18.0,85,13.63,73,10.0,297.0,336.6,299.4
961.2,530,20.5,17.9,85,13.59,73,10.0,297.0,336.4,299.4
960.6,536,20.4,17.9,85,13.54,73,9.9,297.0,336.3,299.4
959.9,542,20.4,17.9,85,13.54,73,9.9,297.0,336.3,299.4
959.3,548,20.3,17.9,86,13.54,73,9.9,297.0,336.3,299.4
958.7,553,20.3,17.8,86,13.54,74,9.9,297.0,336.3,299.4
958.1,559,20.2,17.8,86,13.52,74,9.8,297.0,336.2,299.4
957.5,564,20.2,17.8,86,13.47,74,9.8,297.0,336.1,299.4
956.9,569,20.1,17.7,86,13.47,74,9.8,297.0,336.1,299.4
956.3,575,20.1,17.7,86,13.47,74,9.8,297.0,336.1,299.4
955.7,580,20.0,17.7,87,13.48,75,9.7,297.0,336.1,299.4
955.2,585,20.0,17.7,87,13.47,75,9.7,297.0,336.1,299.4
954.6,590,19.9,17.7,87,13.46,75,9.7,297.0,336.1,299.4
954.0,595,19.9,17.8,88,13.52,75,9.7,297.0,336.3,299.4
953.5,600,19.8,17.9,88,13.64,76,9.7,297.0,336.6,299.4
952.9,605,19.8,18.0,90,13.77,76,9.7,297.0,337.0,299.4
952.4,610,19.7,18.2,91,13.93,76,9.7,297.0,337.4,299.4
951.8,615,19.7,18.3,92,14.04,76,9.7,297.0,337.7,299.5
951.3,620,19.6,18.3,92,14.06,76,9.7,296.9,337.8,299.4
950.7,625,19.5,18.3,92,14.04,76,9.6,296.9,337.7,299.4
950.2,630,19.5,18.3,93,14.02,76,9.6,296.9,337.6,299.4
949.6,635,19.4,18.2,93,14.01,76,9.6,296.9,337.6,299.4
949.0,641,19.4,18.2,93,13.97,76,9.7,296.9,337.5,299.4
948.5,646,19.3,18.1,93,13.93,76,9.7,296.9,337.4,299.4
947.9,651,19.3,18.1,93,13.91,76,9.7,297.0,337.3,299.4
947.4,656,19.3,18.1,93,13.89,76,9.7,297.0,337.3,299.4
946.8,661,19.2,18.0,93,13.87,76,9.7,297.0,337.2,299.4
946.3,666,19.2,18.0,93,13.85,76,9.7,297.0,337.2,299.4
945.7,671,19.1,18.0,93,13.84,76,9.7,297.0,337.1,299.4
945.1,676,19.1,17.9,93,13.82,76,9.7,297.0,337.1,299.4
944.6,681,19.0,17.9,93,13.77,76,9.8,297.0,336.9,299.4
944.0,686,19.0,17.8,93,13.67,76,9.8,297.0,336.6,299.4
943.5,692,18.9,17.6,92,13.53,76,9.8,297.0,336.2,299.4
942.9,697,18.9,17.4,91,13.42,76,9.8,297.0,336.0,299.4
942.4,702,18.9,17.4,91,13.40,76,9.9,297.0,335.9,299.4
941.8,707,18.8,17.5,92,13.46,76,9.9,297.0,336.1,299.4
941.3,712,18.8,17.5,92,13.47,76,9.9,297.0,336.1,299.4
940.7,717,18.7,17.4,92,13.42,76,9.9,297.0,336.0,299.4
940.2,722,18.7,17.3,92,13.36,76,10.0,297.0,335.8,299.4
939.6,727,18.7,17.2,91,13.29,76,10.0,297.1,335.7,299.4
939.1,732,18.6,17.2,91,13.22,76,10.0,297.1,335.5,299.4
938.5,737,18.6,17.1,91,13.16,76,10.1,297.1,335.3,299.4
937.9,742,18.6,17.0,91,13.14,77,10.1,297.1,335.3,299.4
937.4,747,18.5,17.0,91,13.14,77,10.1,297.1,335.3,299.4
936.8,753,18.5,17.0,91,13.15,77,10.2,297.1,335.3,299.5
936.2,758,18.4,17.0,91,13.14,77,10.2,297.1,335.3,299.5
935.6,763,18.4,17.0,91,13.10,77,10.3,297.1,335.2,299.5
935.0,769,18.4,16.9,91,13.06,77,10.3,297.2,335.1,299.5
934.4,774,18.3,16.8,91,13.02,77,10.4,297.2,335.0,299.5
933.8,780,18.3,16.8,91,13.01,77,10.4,297.2,335.0,299.5
933.2,785,18.2,16.8,91,13.02,77,10.5,297.2,335.0,299.5
932.6,791,18.2,16.8,92,12.99,77,10.5,297.2,335.0,299.5
932.0,797,18.1,16.7,91,12.91,77,10.6,297.2,334.7,299.5
931.3,803,18.1,16.6,91,12.84,77,10.6,297.2,334.6,299.5
930.7,809,18.1,16.6,91,12.88,77,10.7,297.2,334.7,299.5
930.0,815,18.0,16.7,92,12.97,77,10.7,297.2,335.0,299.6
929.4,821,17.9,16.8,93,13.05,77,10.8,297.2,335.2,299.5
928.7,827,17.8,16.8,94,13.08,77,10.8,297.2,335.2,299.5
928.0,833,17.8,16.8,94,13.07,77,10.9,297.2,335.2,299.5
927.3,840,17.7,16.7,94,13.04,77,11.0,297.2,335.1,299.5
926.7,846,17.6,16.7,94,13.02,77,11.0,297.2,335.0,299.5
926.1,852,17.6,16.7,95,13.02,77,11.1,297.2,335.0,299.5
925.4,857,17.5,16.7,95,13.01,77,11.1,297.2,335.0,299.5
925.0,861,17.5,16.6,95,12.97,77,11.1,297.2,334.9,299.5
924.8,863,17.5,16.6,95,12.95,77,11.2,297.2,334.8,299.5
924.3,868,17.5,16.4,93,12.79,77,11.2,297.2,334.4,299.5
923.7,873,17.5,16.1,92,12.59,77,11.2,297.3,333.9,299.5
923.2,878,17.5,16.0,91,12.51,77,11.3,297.4,333.8,299.6
922.7,883,17.5,16.1,92,12.57,77,11.3,297.4,334.0,299.6
922.2,887,17.4,16.1,92,12.60,77,11.3,297.4,334.1,299.6
921.7,892,17.4,16.1,92,12.56,77,11.4,297.4,333.9,299.6
921.2,897,17.4,16.0,91,12.47,77,11.4,297.4,333.7,299.6
920.7,902,17.3,15.8,90,12.33,77,11.4,297.4,333.3,299.6
920.1,907,17.4,15.5,89,12.15,77,11.4,297.5,332.9,299.7
919.6,911,17.4,15.4,88,12.05,77,11.4,297.6,332.7,299.7
919.1,916,17.4,15.4,88,12.04,77,11.4,297.6,332.7,299.8
918.5,921,17.4,15.4,88,12.05,77,11.4,297.6,332.8,299.8
918.0,927,17.3,15.3,88,12.00,77,11.4,297.7,332.7,299.8
917.4,932,17.3,15.2,88,11.96,77,11.4,297.7,332.6,299.8
916.8,937,17.3,15.2,88,11.94,77,11.4,297.7,332.6,299.9
916.2,943,17.2,15.2,88,11.93,77,11.3,297.7,332.5,299.9
915.6,949,17.2,15.2,88,11.92,77,11.3,297.7,332.5,299.9
915.0,955,17.1,15.2,88,11.92,77,11.3,297.7,332.5,299.9
914.3,961,17.1,15.1,88,11.90,77,11.3,297.8,332.5,299.9
913.6,967,17.0,15.1,88,11.86,77,11.3,297.8,332.4,299.9
912.9,974,17.0,15.0,88,11.83,77,11.2,297.8,332.3,299.9
912.2,981,17.0,14.9,88,11.78,78,11.2,297.8,332.2,299.9
911.5,988,16.9,14.8,87,11.72,78,11.2,297.9,332.1,300.0
910.7,995,16.9,14.8,87,11.67,78,11.2,297.9,332.0,300.0
910.0,1001,16.8,14.7,87,11.65,78,11.1,297.9,332.0,300.0
909.3,1008,16.8,14.7,87,11.63,78,11.1,297.9,331.9,300.0
908.6,1015,16.7,14.6,87,11.59,78,11.1,297.9,331.8,300.0
907.9,1021,16.7,14.6,88,11.57,78,11.1,297.9,331.7,300.0
907.2,1028,16.6,14.6,88,11.57,79,11.1,297.9,331.8,300.0
906.6,1034,16.6,14.6,88,11.60,79,11.0,298.0,331.9,300.0
905.9,1040,16.5,14.7,89,11.66,79,11.0,298.0,332.0,300.0
905.3,1045,16.4,14.8,90,11.74,79,11.0,297.9,332.2,300.0
904.7,1051,16.3,14.8,91,11.78,79,11.0,297.9,332.3,300.0
904.1,1057,16.2,14.8,91,11.80,79,11.0,297.8,332.3,299.9
903.5,1062,16.2,14.8,92,11.78,79,10.9,297.8,332.2,299.9
902.9,1068,16.1,14.7,92,11.76,79,10.9,297.8,332.2,299.9
902.3,1074,16.1,14.7,92,11.75,79,10.9,297.8,332.1,299.9
901.7,1079,16.0,14.7,92,11.75,79,10.8,297.8,332.2,299.9
901.1,1085,16.0,14.7,92,11.75,79,10.8,297.9,332.2,300.0
900.5,1091,15.9,14.7,92,11.72,79,10.8,297.9,332.1,300.0
899.8,1097,15.9,14.6,92,11.67,79,10.7,297.9,332.0,300.0
899.2,1103,15.9,14.5,92,11.63,79,10.7,297.9,331.9,300.0
898.6,1109,15.8,14.4,92,11.59,79,10.6,297.9,331.8,300.0
898.0,1115,15.8,14.4,91,11.55,79,10.6,297.9,331.7,300.0
897.4,1121,15.7,14.3,91,11.52,79,10.5,298.0,331.6,300.0
896.8,1126,15.7,14.3,91,11.47,79,10.4,298.0,331.5,300.0
896.1,1132,15.7,14.1,90,11.39,79,10.3,298.0,331.3,300.1
895.5,1138,15.7,14.0,90,11.33,79,10.3,298.1,331.2,300.1
894.9,1144,15.6,14.0,90,11.32,79,10.2,298.1,331.2,300.1
894.3,1150,15.6,14.0,90,11.32,79,10.1,298.1,331.2,300.1
893.6,1156,15.6,14.0,90,11.31,79,10.0,298.2,331.3,300.2
893.0,1162,15.5,14.0,91,11.33,79,9.9,298.2,331.3,300.2
892.4,1168,15.5,14.0,91,11.36,79,9.8,298.2,331.4,300.2
891.7,1174,15.4,14.1,92,11.41,80,9.7,298.1,331.5,300.2
891.1,1180,15.3,14.2,93,11.47,80,9.6,298.1,331.6,300.1
890.5,1186,15.2,14.2,94,11.49,80,9.5,298.0,331.6,300.1
889.9,1191,15.1,14.1,94,11.46,80,9.4,298.0,331.5,300.1
889.4,1197,15.1,14.0,94,11.40,80,9.4,298.0,331.4,300.1
888.8,1202,15.1,14.0,93,11.39,81,9.3,298.1,331.4,300.1
888.3,1207,15.0,14.0,94,11.39,81,9.2,298.1,331.4,300.1
887.8,1212,15.0,13.9,94,11.35,81,9.1,298.1,331.3,300.1
887.2,1217,14.9,13.9,94,11.32,82,9.0,298.1,331.2,300.1
886.7,1222,14.9,13.9,94,11.33,82,8.9,298.1,331.2,300.1
886.2,1227,14.8,13.9,94,11.36,82,8.9,298.1,331.3,300.1
885.6,1232,14.8,14.1,96,11.49,83,8.8,298.1,331.7,300.1
885.1,1238,14.7,14.3,97,11.62,83,8.7,298.0,332.0,300.1
884.6,1243,14.6,14.2,98,11.62,83,8.7,298.0,332.0,300.1
884.0,1248,14.6,14.0,97,11.46,84,8.6,298.0,331.5,300.1
883.5,1253,14.6,13.5,93,11.10,84,8.6,298.1,330.6,300.1
883.0,1258,14.8,12.8,88,10.61,84,8.5,298.3,329.5,300.2
882.5,1263,14.9,12.3,84,10.25,85,8.5,298.6,328.7,300.4
882.0,1268,15.0,12.3,84,10.22,85,8.4,298.7,328.7,300.5
881.4,1273,15.0,12.6,86,10.45,85,8.4,298.7,329.4,300.6
880.9,1278,14.9,13.0,89,10.75,86,8.4,298.7,330.2,300.6
880.4,1282,14.8,13.1,89,10.79,86,8.3,298.6,330.3,300.6
879.9,1287,14.8,12.5,86,10.42,86,8.3,298.7,329.3,300.5
879.5,1292,14.9,12.1,84,10.16,86,8.3,298.8,328.7,300.6
879.0,1296,14.9,12.5,86,10.44,86,8.3,298.8,329.5,300.7
878.5,1301,14.7,13.0,90,10.80,86,8.3,298.7,330.4,300.7
878.1,1305,14.6,13.0,90,10.81,86,8.3,298.6,330.4,300.6
877.6,1310,14.6,12.8,89,10.66,86,8.3,298.7,330.0,300.6
877.2,1314,14.6,12.8,89,10.62,86,8.2,298.7,329.9,300.6
876.7,1318,14.5,12.9,90,10.72,86,8.2,298.7,330.2,300.6
876.3,1323,14.4,13.1,92,10.85,86,8.2,298.6,330.5,300.6
875.8,1327,14.4,13.2,93,10.95,86,8.2,298.6,330.7,300.6
875.3,1332,14.3,13.4,95,11.13,86,8.2,298.6,331.2,300.6
874.8,1337,14.2,13.6,96,11.26,86,8.2,298.6,331.6,300.6
874.3,1342,14.2,13.5,96,11.22,86,8.2,298.6,331.5,300.6
873.8,1347,14.2,13.4,95,11.16,85,8.2,298.6,331.4,300.6
873.2,1352,14.2,13.6,96,11.30,85,8.2,298.7,331.9,300.8
872.7,1357,14.2,13.9,98,11.54,85,8.2,298.8,332.6,300.8
872.2,1362,14.2,14.1,99,11.70,85,8.2,298.8,333.1,300.9
871.7,1367,14.2,14.2,100,11.74,85,8.2,298.9,333.3,301.0
871.2,1372,14.2,14.1,99,11.67,84,8.3,298.9,333.2,301.0
870.8,1376,14.2,13.9,98,11.55,84,8.3,299.0,332.8,301.0
870.3,1381,14.2,13.6,96,11.32,84,8.3,299.0,332.2,301.0
869.9,1385,14.2,13.1,93,10.97,84,8.3,299.0,331.2,301.0
869.4,1389,14.1,12.9,92,10.80,84,8.3,299.0,330.7,300.9
868.9,1394,14.0,13.1,95,11.00,83,8.4,298.9,331.2,300.9
868.5,1398,13.9,13.3,96,11.13,83,8.4,298.8,331.5,300.8
868.0,1403,13.8,13.1,96,11.00,83,8.4,298.8,331.1,300.8
867.5,1408,13.9,12.7,92,10.67,83,8.5,298.9,330.3,300.8
867.0,1413,13.9,12.3,90,10.44,83,8.5,299.0,329.8,300.9
866.5,1418,14.0,12.4,90,10.48,83,8.5,299.1,330.0,301.0
866.0,1423,14.0,12.2,89,10.36,83,8.6,299.2,329.7,301.0
865.5,1427,14.0,11.7,86,10.01,83,8.6,299.2,328.7,301.0
865.0,1432,14.0,11.4,84,9.81,83,8.7,299.3,328.2,301.1
864.5,1437,14.0,11.3,84,9.79,83,8.7,299.4,328.3,301.1
864.1,1441,14.0,11.3,84,9.80,83,8.8,299.4,328.3,301.2
863.6,1446,14.0,11.3,84,9.79,83,8.8,299.4,328.3,301.2
863.1,1451,14.0,11.2,83,9.74,83,8.9,299.5,328.2,301.2
862.6,1455,14.0,11.2,83,9.70,83,9.0,299.5,328.2,301.2
862.1,1460,13.9,11.1,83,9.66,83,9.0,299.5,328.1,301.3
861.6,1465,13.9,11.0,83,9.64,83,9.1,299.5,328.0,301.3
861.1,1470,13.9,11.0,83,9.61,83,9.1,299.5,328.0,301.3
860.6,1475,13.8,11.0,83,9.59,83,9.2,299.5,327.9,301.3
860.1,1480,13.8,10.9,83,9.56,83,9.2,299.6,327.8,301.3
859.6,1485,13.8,10.8,82,9.52,83,9.3,299.6,327.7,301.3
859.2,1490,13.7,10.8,82,9.49,83,9.3,299.6,327.7,301.3
858.7,1494,13.7,10.7,82,9.48,84,9.4,299.6,327.7,301.3
858.2,1499,13.7,10.7,82,9.47,84,9.4,299.6,327.7,301.3
857.8,1503,13.6,10.7,83,9.48,84,9.5,299.6,327.7,301.3
857.3,1508,13.6,10.8,83,9.50,84,9.5,299.6,327.7,301.3
856.8,1512,13.6,10.8,83,9.52,84,9.5,299.6,327.8,301.4
856.4,1517,13.5,10.8,83,9.53,84,9.6,299.6,327.8,301.4
855.9,1522,13.5,10.8,84,9.54,84,9.6,299.6,327.9,301.4
855.4,1527,13.4,10.8,84,9.53,84,9.6,299.6,327.8,301.4
854.9,1531,13.4,10.7,84,9.52,84,9.6,299.6,327.8,301.4
854.4,1536,13.3,10.7,84,9.50,84,9.6,299.7,327.8,301.4
853.9,1541,13.3,10.7,84,9.50,84,9.6,299.7,327.8,301.4
853.5,1546,13.2,10.7,85,9.53,84,9.6,299.6,327.8,301.4
853.0,1551,13.2,10.8,85,9.58,83,9.6,299.6,328.0,301.4
852.5,1555,13.1,10.8,86,9.60,83,9.5,299.6,328.0,301.4
852.0,1560,13.1,10.8,86,9.60,83,9.5,299.6,328.0,301.4
851.5,1565,13.0,10.8,86,9.58,83,9.5,299.6,328.0,301.4
850.9,1571,13.0,10.8,86,9.58,83,9.4,299.7,328.0,301.4
850.4,1576,13.0,10.8,87,9.59,83,9.4,299.7,328.0,301.4
850.0,1580,12.9,10.8,87,9.59,83,9.4,299.7,328.0,301.4
849.8,1582,12.9,10.8,87,9.59,83,9.3,299.7,328.1,301.4
849.2,1587,12.9,10.8,87,9.60,82,9.2,299.7,328.1,301.4
848.6,1593,12.8,10.8,87,9.61,82,9.2,299.7,328.1,301.4
848.0,1600,12.7,10.8,88,9.61,82,9.1,299.7,328.1,301.4
847.3,1606,12.7,10.7,88,9.58,82,9.0,299.7,328.0,301.4
846.7,1613,12.6,10.6,87,9.52,82,9.0,299.7,327.8,301.4
846.0,1620,12.6,10.4,87,9.43,82,8.9,299.7,327.6,301.4
845.3,1626,12.6,10.3,86,9.33,82,8.8,299.8,327.4,301.4
844.7,1632,12.5,10.2,85,9.26,82,8.7,299.8,327.2,301.5
844.1,1638,12.5,10.1,85,9.23,81,8.6,299.8,327.2,301.5
843.5,1644,12.5,10.1,85,9.21,81,8.5,299.8,327.1,301.5
843.0,1650,12.4,10.0,85,9.18,81,8.4,299.8,327.0,301.5
842.4,1655,12.4,9.9,85,9.11,81,8.3,299.9,326.9,301.5
841.8,1661,12.4,9.8,84,9.05,81,8.3,299.9,326.7,301.5
841.3,1667,12.3,9.7,84,9.01,81,8.2,299.9,326.6,301.5
840.7,1672,12.3,9.6,84,8.98,81,8.1,299.9,326.6,301.6
840.2,1678,12.3,9.5,83,8.93,81,8.0,300.0,326.5,301.6
839.6,1683,12.3,9.4,83,8.86,82,7.9,300.0,326.3,301.6
839.1,1689,12.2,9.4,83,8.85,82,7.9,300.1,326.3,301.7
838.5,1694,12.2,9.4,83,8.87,82,7.8,300.1,326.4,301.7
838.0,1700,12.1,9.4,83,8.87,82,7.8,300.1,326.4,301.7
837.4,1705,12.1,9.3,83,8.84,82,7.7,300.1,326.4,301.7
836.9,1711,12.1,9.2,83,8.78,82,7.7,300.1,326.2,301.7
836.3,1716,12.1,9.2,82,8.75,82,7.7,300.2,326.2,301.8
835.8,1721,12.1,9.1,82,8.73,83,7.7,300.2,326.2,301.8
835.3,1727,12.1,9.1,82,8.71,83,7.6,300.3,326.2,301.8
834.8,1732,12.0,9.0,82,8.69,83,7.6,300.3,326.1,301.8
834.3,1737,12.0,9.0,82,8.67,83,7.6,300.3,326.1,301.9
833.8,1742,12.0,9.0,82,8.68,84,7.7,300.3,326.1,301.9
833.3,1746,11.9,9.1,83,8.74,84,7.7,300.3,326.3,301.9
832.9,1751,11.9,9.2,84,8.81,84,7.7,300.3,326.5,301.9
832.4,1756,11.9,9.3,84,8.87,85,7.7,300.4,326.7,302.0
831.9,1761,11.8,9.4,85,8.92,85,7.7,300.4,326.9,302.0
831.4,1766,11.8,9.4,85,8.93,85,7.8,300.4,326.9,302.0
830.9,1771,11.8,9.3,85,8.91,86,7.8,300.4,326.9,302.0
830.4,1776,11.7,9.3,85,8.87,86,7.8,300.4,326.8,302.0
829.9,1781,11.7,9.2,85,8.84,87,7.9,300.4,326.7,302.0
829.3,1787,11.7,9.2,85,8.83,87,7.9,300.5,326.7,302.1
828.8,1792,11.7,9.2,85,8.84,87,7.9,300.5,326.8,302.1
828.2,1798,11.6,9.3,86,8.91,88,7.9,300.5,327.0,302.1
827.6,1804,11.5,9.5,88,9.07,88,8.0,300.5,327.4,302.1
827.0,1810,11.5,9.9,90,9.28,89,8.0,300.5,328.0,302.2
826.4,1816,11.4,10.2,93,9.50,89,8.0,300.5,328.7,302.2
825.8,1823,11.3,10.4,94,9.65,89,8.0,300.4,329.1,302.2
825.2,1829,11.2,10.5,95,9.70,90,8.0,300.4,329.2,302.2
824.6,1835,11.2,10.5,96,9.71,90,8.0,300.4,329.2,302.2
824.0,1841,11.1,10.5,96,9.71,90,8.0,300.4,329.2,302.2
823.4,1847,11.1,10.4,96,9.69,90,7.9,300.4,329.2,302.2
822.8,1853,11.0,10.4,96,9.68,90,7.9,300.4,329.2,302.2
822.2,1859,11.0,10.4,96,9.65,90,7.9,300.4,329.1,302.2
821.6,1865,10.9,10.2,96,9.59,90,7.8,300.5,328.9,302.2
821.0,1871,10.9,10.1,95,9.52,90,7.8,300.5,328.7,302.2
820.4,1877,10.8,10.1,95,9.50,90,7.7,300.5,328.7,302.2
819.8,1883,10.8,10.1,96,9.53,89,7.7,300.5,328.8,302.2
819.3,1889,10.8,10.2,96,9.59,89,7.6,300.5,329.0,302.3
818.7,1895,10.7,10.2,97,9.62,88,7.6,300.5,329.1,302.3
818.1,1900,10.7,10.2,97,9.60,88,7.5,300.6,329.1,302.3
817.6,1906,10.6,10.1,97,9.57,87,7.4,300.6,329.0,302.3
817.1,1912,10.6,10.1,97,9.57,86,7.4,300.6,329.0,302.3
816.5,1917,10.5,10.2,98,9.61,85,7.3,300.6,329.1,302.3
816.0,1923,10.5,10.3,99,9.66,85,7.3,300.6,329.2,302.3
815.4,1928,10.4,10.3,99,9.68,84,7.2,300.6,329.3,302.3
814.9,1934,10.4,10.2,99,9.65,83,7.2,300.6,329.2,302.3
814.3,1939,10.3,10.1,98,9.56,82,7.2,300.6,329.0,302.3
813.8,1945,10.3,9.9,97,9.45,80,7.1,300.6,328.7,302.3
813.2,1951,10.3,9.7,96,9.35,79,7.1,300.7,328.5,302.4
812.6,1957,10.3,9.5,95,9.20,78,7.1,300.7,328.1,302.4
