PRES,HGHT,TEMP,DWPT,RELH,MIXR,DRCT,SPED,THTA,THTE,THTV
1012.4,31,27.6,21.0,67,15.61,89,3.2,299.7,345.5,302.5
1011.8,36,27.0,21.1,70,15.79,92,2.6,299.1,345.4,302.0
1011.1,42,26.2,21.1,74,15.78,93,2.6,298.4,344.4,301.2
1010.4,48,25.8,21.1,75,15.78,93,2.7,298.1,344.1,300.9
1009.9,53,25.7,21.0,75,15.68,93,2.9,298.0,343.7,300.8
1009.3,58,25.7,20.8,75,15.52,93,3.1,298.0,343.3,300.8
1008.6,64,25.6,20.7,74,15.38,92,3.3,298.0,342.9,300.8
1007.9,70,25.5,20.6,74,15.30,92,3.5,298.0,342.6,300.7
1007.2,76,25.5,20.5,74,15.24,92,3.7,298.0,342.4,300.7
1006.6,81,25.4,20.4,74,15.17,92,3.8,298.0,342.2,300.7
1005.9,87,25.4,20.3,74,15.09,92,4.0,298.0,342.0,300.7
1005.3,93,25.3,20.2,74,15.03,92,4.1,298.0,341.8,300.7
1004.7,98,25.2,20.2,74,15.03,92,4.2,298.0,341.8,300.7
1004.0,104,25.2,20.2,74,15.04,92,4.4,298.0,341.8,300.7
1003.4,109,25.1,20.2,74,15.01,92,4.5,298.0,341.7,300.6
1002.8,115,25.1,20.1,74,14.94,92,4.6,298.0,341.5,300.6
1002.2,120,25.0,20.1,74,14.92,92,4.7,298.0,341.4,300.6
1001.6,125,25.0,20.1,74,14.93,92,4.7,298.0,341.5,300.6
1001.0,130,24.9,20.1,75,14.94,92,4.8,298.0,341.6,300.7
1000.5,135,24.9,20.1,75,14.94,92,4.9,298.0,341.5,300.6
1000.0,139,24.8,20.1,75,14.96,92,4.9,298.0,341.6,300.6
999.9,140,24.8,20.1,75,14.96,92,4.9,298.0,341.6,300.6
999.3,146,24.8,20.1,75,15.02,92,5.0,298.0,341.7,300.6
998.6,151,24.7,20.2,76,15.08,92,5.0,298.0,342.0,300.7
998.0,157,24.7,20.2,76,15.09,92,5.0,298.0,342.0,300.7
997.3,163,24.6,20.2,76,15.08,93,5.1,298.0,341.9,300.7
996.6,169,24.6,20.2,77,15.09,93,5.1,298.0,342.0,300.7
996.0,175,24.5,20.2,77,15.10,93,5.1,298.0,342.0,300.7
995.3,181,24.4,20.1,77,15.08,93,5.1,298.0,341.9,300.7
994.6,187,24.4,20.1,77,15.06,93,5.1,298.0,341.9,300.7
994.0,192,24.3,20.1,77,15.06,93,5.1,298.0,341.9,300.7
993.3,198,24.3,20.1,78,15.07,93,5.1,298.0,341.9,300.7
992.6,204,24.2,20.1,78,15.08,94,5.1,298.0,341.9,300.7
992.0,210,24.2,20.1,78,15.09,94,5.1,298.0,342.0,300.7
991.3,216,24.1,20.1,78,15.08,94,5.1,298.0,341.9,300.7
990.6,222,24.0,20.1,78,15.08,94,5.1,298.0,342.0,300.7
990.0,228,24.0,20.1,79,15.10,94,5.0,298.0,342.0,300.7
989.3,234,23.9,20.1,79,15.14,94,5.0,298.0,342.1,300.7
988.6,240,23.9,20.1,80,15.15,95,5.0,298.0,342.1,300.7
987.9,246,23.8,20.1,80,15.15,95,5.0,298.0,342.1,300.7
987.2,252,23.7,20.1,80,15.14,95,4.9,298.0,342.1,300.7
986.6,258,23.7,20.0,80,15.11,95,4.9,298.0,342.0,300.7
985.9,264,23.6,20.0,80,15.08,95,4.9,298.0,341.9,300.7
985.3,269,23.6,20.0,80,15.08,94,4.8,298.0,341.9,300.7
984.7,275,23.5,20.0,81,15.08,94,4.8,298.0,341.9,300.7
984.0,281,23.5,20.0,81,15.09,94,4.8,298.0,342.0,300.7
983.4,286,23.4,20.0,81,15.10,94,4.8,298.0,342.0,300.7
982.8,292,23.3,20.0,81,15.12,93,4.7,298.0,342.0,300.7
982.2,297,23.3,20.0,82,15.14,93,4.7,298.0,342.1,300.7
981.5,303,23.2,20.0,82,15.14,92,4.7,298.0,342.1,300.7
980.9,309,23.2,20.0,82,15.15,92,4.6,298.0,342.1,300.7
980.2,315,23.1,20.0,83,15.17,91,4.6,298.0,342.2,300.7
979.5,321,23.1,20.0,83,15.16,90,4.6,298.0,342.1,300.7
978.9,326,23.0,19.9,83,15.11,90,4.6,297.9,342.0,300.6
978.3,332,22.9,19.8,83,15.06,89,4.6,297.9,341.8,300.6
977.6,338,22.9,19.8,83,15.06,88,4.6,298.0,341.8,300.6
977.0,343,22.8,19.8,83,15.08,87,4.6,298.0,341.9,300.7
976.4,349,22.8,19.8,83,15.08,86,4.6,298.0,341.9,300.7
975.8,354,22.7,19.8,83,15.07,85,4.6,298.0,341.9,300.7
975.2,360,22.7,19.8,84,15.06,84,4.6,298.0,341.8,300.6
974.5,365,22.6,19.8,84,15.07,83,4.6,298.0,341.9,300.6
973.9,371,22.6,19.8,84,15.08,82,4.6,298.0,341.9,300.7
973.2,377,22.5,19.8,85,15.10,82,4.6,298.0,342.0,300.6
972.5,383,22.4,19.8,85,15.12,81,4.7,298.0,342.0,300.7
971.8,390,22.4,19.8,85,15.15,80,4.7,298.0,342.1,300.7
971.2,396,22.3,19.8,86,15.18,79,4.7,298.0,342.2,300.7
970.5,402,22.3,19.8,86,15.19,78,4.7,297.9,342.2,300.7
969.8,408,22.2,19.8,86,15.15,78,4.7,297.9,342.1,300.6
969.2,413,22.1,19.7,86,15.10,77,4.7,297.9,341.9,300.6
968.6,419,22.1,19.7,86,15.06,77,4.7,298.0,341.8,300.6
968.0,424,22.1,19.7,86,15.08,77,4.7,298.0,341.9,300.7
967.5,429,22.0,19.7,87,15.10,76,4.7,298.0,342.0,300.7
966.9,434,22.0,19.7,87,15.10,76,4.7,298.0,342.0,300.7
966.3,439,21.9,19.7,87,15.10,76,4.7,298.0,342.0,300.7
965.7,445,21.9,19.7,87,15.09,75,4.7,298.0,341.9,300.6
965.1,450,21.8,19.6,88,15.08,75,4.7,297.9,341.9,300.6
964.5,455,21.7,19.6,88,15.04,75,4.6,297.9,341.8,300.6
963.9,461,21.7,19.5,88,15.00,75,4.6,297.9,341.6,300.6
963.3,466,21.6,19.5,88,14.99,75,4.6,297.9,341.6,300.6
962.8,471,21.6,19.5,88,15.01,75,4.6,297.9,341.7,300.6
962.2,477,21.5,19.6,88,15.05,76,4.5,297.9,341.8,300.6
961.6,482,21.5,19.6,89,15.08,76,4.5,297.9,341.9,300.6
961.1,487,21.4,19.6,89,15.11,76,4.5,297.9,342.0,300.6
960.5,492,21.4,19.6,90,15.12,76,4.4,298.0,342.0,300.6
960.0,497,21.3,19.6,90,15.12,76,4.4,297.9,342.0,300.6
959.4,502,21.3,19.6,90,15.11,77,4.4,297.9,342.0,300.6
958.8,507,21.2,19.5,90,15.09,77,4.4,297.9,341.9,300.6
958.3,512,21.2,19.5,90,15.07,78,4.3,297.9,341.8,300.6
957.7,517,21.1,19.5,90,15.07,78,4.3,297.9,341.8,300.6
957.1,522,21.1,19.5,91,15.07,78,4.3,297.9,341.8,300.6
956.6,527,21.0,19.5,91,15.05,79,4.3,297.9,341.8,300.6
956.1,532,21.0,19.4,91,15.03,79,4.3,297.9,341.7,300.6
955.5,537,20.9,19.4,91,15.02,80,4.3,297.9,341.7,300.6
955.0,542,20.9,19.4,91,15.03,80,4.3,297.9,341.7,300.6
954.5,546,20.9,19.4,92,15.05,80,4.3,297.9,341.8,300.6
954.0,551,20.8,19.5,92,15.09,81,4.3,298.0,341.9,300.6
953.5,556,20.8,19.5,92,15.11,81,4.3,298.0,342.0,300.7
953.0,560,20.8,19.5,92,15.10,82,4.3,298.0,342.0,300.7
952.4,565,20.7,19.4,92,15.06,82,4.3,298.0,341.9,300.7
951.9,570,20.7,19.3,92,15.01,83,4.3,298.0,341.7,300.7
951.4,575,20.6,19.3,92,15.00,83,4.3,298.0,341.7,300.7
950.8,580,20.6,19.3,93,15.02,83,4.3,298.0,341.7,300.7
950.3,585,20.5,19.3,93,15.03,84,4.3,298.0,341.7,300.6
949.8,589,20.5,19.3,93,15.02,84,4.3,298.0,341.7,300.6
949.3,594,20.4,19.3,94,15.04,84,4.3,298.0,341.8,300.6
948.8,598,20.4,19.4,94,15.07,84,4.2,298.0,341.9,300.6
948.3,603,20.3,19.4,94,15.09,84,4.2,297.9,341.9,300.6
947.8,607,20.3,19.3,94,15.08,84,4.2,297.9,341.9,300.6
947.3,612,20.2,19.3,94,15.01,84,4.2,298.0,341.7,300.6
946.8,616,20.2,19.1,93,14.82,84,4.2,298.0,341.2,300.6
946.3,621,20.2,18.8,91,14.56,84,4.2,298.1,340.5,300.7
945.8,625,20.3,18.5,89,14.30,84,4.2,298.1,339.8,300.7
945.3,630,20.3,18.3,88,14.13,84,4.1,298.2,339.4,300.7
944.8,635,20.3,18.2,88,14.05,83,4.1,298.2,339.3,300.8
944.3,639,20.3,18.2,88,14.05,83,4.1,298.3,339.3,300.8
943.8,644,20.3,18.2,88,14.07,83,4.0,298.3,339.4,300.8
943.4,648,20.2,18.2,88,14.09,82,4.0,298.3,339.4,300.8
942.9,653,20.2,18.2,89,14.11,81,4.0,298.3,339.5,300.8
942.4,657,20.1,18.2,89,14.09,81,3.9,298.3,339.4,300.8
941.9,662,20.1,18.2,89,14.06,80,3.9,298.3,339.4,300.8
941.4,666,20.1,18.1,89,14.05,79,3.8,298.3,339.3,300.8
940.9,670,20.0,18.2,89,14.07,78,3.8,298.3,339.4,300.8
940.4,675,20.0,18.2,89,14.09,77,3.7,298.3,339.5,300.9
939.9,680,20.0,18.2,89,14.09,76,3.7,298.3,339.5,300.9
939.4,684,19.9,18.1,90,14.09,75,3.7,298.3,339.5,300.9
938.9,689,19.9,18.1,90,14.07,74,3.6,298.3,339.4,300.9
938.4,694,19.8,18.1,90,14.05,73,3.6,298.4,339.4,300.9
937.8,699,19.8,18.1,90,14.03,72,3.5,298.4,339.4,300.9
937.3,704,19.8,18.0,90,14.00,71,3.5,298.4,339.3,300.9
936.7,709,19.7,17.9,89,13.92,70,3.4,298.4,339.1,300.9
936.2,714,19.7,17.8,89,13.81,69,3.4,298.4,338.8,300.9
935.6,719,19.7,17.6,88,13.70,68,3.4,298.5,338.5,300.9
935.1,724,19.7,17.5,87,13.60,67,3.3,298.5,338.3,301.0
934.6,729,19.7,17.4,87,13.53,66,3.3,298.6,338.1,301.0
934.1,734,19.7,17.4,86,13.47,65,3.3,298.6,338.0,301.0
933.6,739,19.7,17.3,86,13.39,64,3.2,298.7,337.8,301.1
933.1,743,19.7,17.1,85,13.30,63,3.2,298.7,337.6,301.1
932.5,748,19.7,17.0,84,13.22,62,3.1,298.8,337.5,301.2
932.0,753,19.7,17.0,84,13.16,61,3.1,298.8,337.4,301.2
931.5,758,19.7,16.9,84,13.13,60,3.1,298.9,337.3,301.2
931.0,763,19.7,16.9,84,13.09,59,3.0,298.9,337.3,301.3
930.4,768,19.7,16.8,83,13.06,58,3.0,298.9,337.2,301.3
929.8,773,19.7,16.8,83,13.02,57,3.0,299.0,337.1,301.3
929.3,778,19.6,16.7,83,13.00,56,2.9,299.0,337.1,301.3
928.7,784,19.6,16.7,83,12.99,55,2.9,299.0,337.1,301.3
928.1,789,19.6,16.7,83,12.98,54,2.9,299.0,337.1,301.4
927.5,795,19.5,16.6,83,12.96,54,2.8,299.0,337.0,301.4
926.9,800,19.5,16.6,83,12.89,53,2.8,299.1,336.9,301.4
926.3,806,19.5,16.4,83,12.80,52,2.8,299.1,336.6,301.4
925.7,811,19.5,16.3,82,12.72,51,2.8,299.1,336.5,301.4
925.1,817,19.4,16.3,82,12.66,50,2.7,299.2,336.3,301.4
925.0,818,19.4,16.2,82,12.65,49,2.7,299.2,336.3,301.4
924.6,822,19.4,16.2,82,12.61,49,2.7,299.2,336.2,301.4
924.0,827,19.4,16.1,81,12.53,48,2.7,299.2,336.0,301.5
923.5,832,19.4,16.0,81,12.47,48,2.7,299.2,335.9,301.5
922.9,837,19.3,16.0,81,12.45,47,2.6,299.3,335.8,301.5
922.4,842,19.3,15.9,81,12.45,46,2.6,299.3,335.8,301.5
921.9,847,19.3,15.9,81,12.46,45,2.6,299.3,335.9,301.5
921.4,852,19.3,15.9,81,12.45,45,2.6,299.3,335.9,301.6
920.9,857,19.2,15.9,81,12.44,44,2.6,299.3,335.9,301.6
920.3,862,19.2,15.9,81,12.44,43,2.6,299.4,335.9,301.6
919.8,866,19.2,15.9,81,12.41,43,2.6,299.4,335.8,301.6
919.3,871,19.1,15.8,81,12.36,42,2.6,299.4,335.7,301.6
918.8,876,19.1,15.7,81,12.31,41,2.6,299.4,335.6,301.6
918.2,881,19.1,15.7,81,12.29,41,2.6,299.5,335.6,301.7
917.7,886,19.1,15.7,81,12.28,40,2.6,299.5,335.6,301.7
917.2,891,19.0,15.7,81,12.29,40,2.6,299.5,335.6,301.7
916.6,897,19.0,15.7,81,12.31,39,2.6,299.5,335.7,301.7
916.0,902,19.0,15.7,81,12.33,38,2.7,299.5,335.8,301.7
915.5,907,18.9,15.7,81,12.31,38,2.7,299.5,335.7,301.8
914.9,913,18.9,15.6,81,12.25,37,2.7,299.6,335.6,301.8
914.3,918,18.9,15.4,80,12.16,36,2.8,299.6,335.4,301.8
913.7,924,18.9,15.3,79,12.04,36,2.8,299.7,335.1,301.9
913.2,929,18.9,15.1,79,11.93,35,2.8,299.8,334.9,301.9
912.6,934,19.0,15.0,78,11.85,34,2.9,299.8,334.8,302.0
912.1,940,19.0,15.0,78,11.83,33,2.9,299.9,334.7,302.0
911.5,945,18.9,15.0,78,11.83,32,2.9,299.9,334.8,302.1
911.0,950,18.9,15.0,78,11.82,31,3.0,299.9,334.8,302.1
910.5,954,18.9,14.9,78,11.80,30,3.0,300.0,334.7,302.1
910.0,959,18.9,14.9,78,11.77,29,3.0,300.0,334.7,302.1
909.5,964,18.9,14.8,77,11.72,28,3.1,300.0,334.6,302.1
909.0,968,18.9,14.7,77,11.66,27,3.1,300.1,334.5,302.2
908.5,973,18.9,14.6,76,11.58,26,3.1,300.1,334.3,302.2
908.0,978,18.9,14.5,76,11.53,24,3.1,300.2,334.2,302.3
907.5,982,18.9,14.5,76,11.49,23,3.1,300.2,334.1,302.3
907.0,987,18.8,14.4,76,11.48,22,3.1,300.2,334.1,302.3
906.5,992,18.8,14.4,76,11.48,20,3.1,300.2,334.2,302.3
906.0,997,18.7,14.4,76,11.49,19,3.0,300.2,334.2,302.3
905.6,1001,18.7,14.4,76,11.50,18,3.0,300.2,334.2,302.3
905.1,1006,18.7,14.5,77,11.51,16,3.0,300.2,334.2,302.3
904.6,1010,18.6,14.5,77,11.53,15,2.9,300.2,334.3,302.3
904.1,1015,18.6,14.5,77,11.55,14,2.9,300.3,334.4,302.3
903.7,1019,18.6,14.5,77,11.55,12,2.9,300.3,334.4,302.3
903.2,1023,18.5,14.5,77,11.55,11,2.8,300.3,334.4,302.4
902.8,1028,18.5,14.5,78,11.57,10,2.7,300.3,334.5,302.4
902.3,1032,18.5,14.5,78,11.59,8,2.7,300.3,334.5,302.4
901.9,1036,18.4,14.5,78,11.61,7,2.6,300.3,334.6,302.4
901.4,1040,18.4,14.5,78,11.61,6,2.6,300.3,334.6,302.4
901.0,1045,18.3,14.5,78,11.59,5,2.5,300.3,334.5,302.4
900.5,1049,18.3,14.5,78,11.59,4,2.4,300.3,334.5,302.4
900.1,1053,18.3,14.5,78,11.59,3,2.3,300.3,334.6,302.4
899.6,1058,18.2,14.5,79,11.60,2,2.3,300.3,334.6,302.4
899.2,1062,18.2,14.5,79,11.59,1,2.2,300.3,334.6,302.4
898.7,1067,18.2,14.4,79,11.59,360,2.2,300.3,334.6,302.4
898.2,1071,18.1,14.4,79,11.59,360,2.1,300.4,334.6,302.4
897.7,1076,18.1,14.5,79,11.61,360,2.0,300.4,334.7,302.5
897.1,1081,18.1,14.5,80,11.65,359,2.0,300.4,334.8,302.5
896.6,1086,18.0,14.5,80,11.65,359,1.9,300.4,334.8,302.5
896.1,1091,18.0,14.5,80,11.67,359,1.9,300.4,334.9,302.5
895.6,1096,17.9,14.6,81,11.73,359,1.8,300.4,335.1,302.5
895.1,1101,17.9,14.7,81,11.80,359,1.8,300.4,335.2,302.5
894.5,1106,17.8,14.7,82,11.82,359,1.7,300.4,335.3,302.5
894.0,1111,17.8,14.7,82,11.83,359,1.7,300.4,335.4,302.6
893.5,1116,17.8,14.7,82,11.86,358,1.6,300.4,335.4,302.6
893.0,1121,17.7,14.7,83,11.89,358,1.6,300.4,335.5,302.6
892.4,1126,17.7,14.7,83,11.89,358,1.6,300.4,335.6,302.6
891.9,1132,17.6,14.7,83,11.89,357,1.5,300.5,335.6,302.6
891.4,1137,17.6,14.7,83,11.92,357,1.5,300.4,335.6,302.6
890.8,1142,17.5,14.8,84,11.94,356,1.5,300.4,335.7,302.6
890.3,1147,17.5,14.8,84,11.94,355,1.5,300.4,335.7,302.6
889.7,1153,17.4,14.7,84,11.92,353,1.5,300.4,335.6,302.6
889.2,1158,17.4,14.7,84,11.91,352,1.5,300.4,335.6,302.6
888.6,1163,17.3,14.7,85,11.93,350,1.5,300.4,335.7,302.6
888.0,1169,17.3,14.7,85,11.95,348,1.5,300.5,335.7,302.6
887.5,1174,17.2,14.7,85,11.96,346,1.5,300.5,335.8,302.6
886.9,1179,17.2,14.7,86,11.97,344,1.5,300.5,335.8,302.6
886.4,1185,17.1,14.7,86,11.97,342,1.6,300.5,335.8,302.6
885.9,1190,17.1,14.7,86,11.97,340,1.6,300.5,335.8,302.6
885.3,1195,17.0,14.8,86,12.01,339,1.6,300.4,335.9,302.6
884.8,1200,17.0,14.8,87,12.09,337,1.7,300.4,336.1,302.6
884.2,1206,16.9,14.9,88,12.17,336,1.8,300.5,336.4,302.6
883.7,1211,16.9,15.0,89,12.22,335,1.8,300.4,336.5,302.7
883.1,1216,16.8,15.0,89,12.22,334,1.9,300.5,336.5,302.7
882.6,1221,16.8,14.9,88,12.15,333,2.0,300.5,336.4,302.7
882.1,1226,16.8,14.7,87,12.04,333,2.1,300.6,336.1,302.7
881.6,1231,16.9,14.6,87,11.96,333,2.2,300.6,336.0,302.8
881.1,1236,16.9,14.6,87,11.96,332,2.2,300.7,336.1,302.9
880.6,1241,16.8,14.6,87,11.99,332,2.3,300.7,336.1,302.9
880.1,1245,16.8,14.6,87,11.99,332,2.4,300.7,336.2,302.9
879.7,1250,16.7,14.6,87,11.98,333,2.5,300.7,336.1,302.9
879.2,1254,16.7,14.6,87,11.98,333,2.6,300.7,336.1,302.9
878.7,1259,16.7,14.6,88,11.98,333,2.7,300.7,336.1,302.9
878.3,1263,16.6,14.6,88,11.96,333,2.8,300.7,336.1,302.9
877.8,1268,16.6,14.5,88,11.94,333,2.9,300.7,336.0,302.9
877.3,1272,16.6,14.5,88,11.93,334,3.0,300.8,336.0,302.9
876.9,1277,16.5,14.5,88,11.94,334,3.1,300.8,336.1,302.9
876.4,1281,16.5,14.5,88,11.97,334,3.2,300.8,336.1,302.9
876.0,1286,16.4,14.6,89,11.99,334,3.3,300.8,336.2,302.9
875.5,1290,16.4,14.5,89,11.98,333,3.4,300.8,336.2,302.9
875.0,1295,16.4,14.5,89,11.95,333,3.5,300.8,336.1,302.9
874.5,1300,16.3,14.4,89,11.91,333,3.6,300.8,336.0,302.9
874.0,1304,16.3,14.4,88,11.86,332,3.7,300.8,335.9,302.9
873.6,1309,16.3,14.3,88,11.82,332,3.8,300.8,335.8,303.0
873.1,1314,16.3,14.3,88,11.80,331,3.9,300.8,335.7,303.0
872.6,1319,16.2,14.3,88,11.80,331,4.0,300.9,335.8,303.0
872.1,1323,16.2,14.3,88,11.81,330,4.1,300.9,335.9,303.0
871.6,1328,16.2,14.3,89,11.84,329,4.2,300.9,335.9,303.1
871.1,1333,16.1,14.3,89,11.85,329,4.3,300.9,336.0,303.1
870.6,1338,16.1,14.3,89,11.83,328,4.4,300.9,336.0,303.1
870.0,1344,16.1,14.2,89,11.81,327,4.5,301.0,335.9,303.1
869.4,1349,16.1,14.2,89,11.79,327,4.6,301.0,335.9,303.1
868.8,1355,16.1,14.1,88,11.75,326,4.7,301.1,335.9,303.2
868.2,1362,16.1,14.1,88,11.71,325,4.8,301.1,335.8,303.2
867.6,1368,16.0,14.0,88,11.68,324,5.0,301.1,335.8,303.3
867.0,1374,16.0,14.0,88,11.64,324,5.1,301.2,335.6,303.3
866.4,1380,15.9,13.9,87,11.57,323,5.2,301.2,335.5,303.3
865.8,1385,15.9,13.7,87,11.47,322,5.3,301.2,335.2,303.3
865.2,1391,16.0,13.6,86,11.39,322,5.4,301.3,335.1,303.4
864.7,1396,16.0,13.5,85,11.34,321,5.5,301.4,335.0,303.4
864.2,1401,15.9,13.5,85,11.32,321,5.6,301.4,335.0,303.4
863.7,1406,15.9,13.5,85,11.32,320,5.7,301.4,335.0,303.5
863.2,1411,15.9,13.4,85,11.29,320,5.8,301.4,335.0,303.5
862.8,1415,15.9,13.4,85,11.27,319,5.9,301.5,334.9,303.5
862.3,1420,15.9,13.3,85,11.24,318,6.0,301.6,334.9,303.6
861.9,1424,15.9,13.3,84,11.20,318,6.1,301.6,334.9,303.6
861.4,1428,16.0,13.2,84,11.17,317,6.2,301.7,334.9,303.7
861.0,1433,16.0,13.2,84,11.14,317,6.3,301.7,334.9,303.8
860.5,1437,16.0,13.2,83,11.12,316,6.3,301.8,334.9,303.8
860.1,1442,16.0,13.1,83,11.11,315,6.4,301.8,334.9,303.8
859.6,1447,16.0,13.1,83,11.11,314,6.5,301.9,334.9,303.9
859.1,1452,15.9,13.1,83,11.12,314,6.5,301.9,335.0,303.9
858.5,1457,15.9,13.1,84,11.14,313,6.6,301.9,335.1,303.9
858.0,1463,15.8,13.2,84,11.18,312,6.6,301.9,335.2,303.9
857.4,1469,15.8,13.2,85,11.20,312,6.7,301.9,335.3,304.0
856.8,1474,15.8,13.2,85,11.20,311,6.7,301.9,335.3,304.0
856.2,1480,15.7,13.2,85,11.18,310,6.7,302.0,335.2,304.0
855.7,1485,15.7,13.2,85,11.18,310,6.8,301.9,335.2,304.0
855.2,1491,15.6,13.1,85,11.17,309,6.8,302.0,335.2,304.0
854.6,1496,15.6,13.1,85,11.15,308,6.8,302.0,335.1,304.0
854.1,1501,15.5,13.0,85,11.11,308,6.8,302.0,335.0,304.0
853.6,1506,15.5,13.0,85,11.10,307,6.8,302.0,335.0,304.0
853.1,1511,15.5,13.0,85,11.11,307,6.8,302.0,335.1,304.0
852.6,1516,15.4,13.0,85,11.09,307,6.8,302.0,335.0,304.0
852.1,1521,15.4,12.9,85,11.03,306,6.8,302.0,334.9,304.0
851.5,1527,15.4,12.8,84,10.95,306,6.8,302.1,334.7,304.1
851.0,1532,15.3,12.7,84,10.89,306,6.8,302.1,334.5,304.1
850.4,1538,15.3,12.6,84,10.86,306,6.7,302.1,334.5,304.1
850.0,1542,15.3,12.6,84,10.84,306,6.7,302.1,334.4,304.1
849.8,1544,15.3,12.6,84,10.83,306,6.7,302.1,334.4,304.1
849.2,1550,15.2,12.5,84,10.82,306,6.7,302.2,334.4,304.1
848.7,1555,15.2,12.6,84,10.84,307,6.6,302.2,334.5,304.2
848.1,1561,15.2,12.6,85,10.90,307,6.6,302.2,334.7,304.2
847.5,1567,15.1,12.7,85,10.94,307,6.5,302.2,334.8,304.2
846.9,1573,15.1,12.7,86,10.96,308,6.4,302.3,334.9,304.2
846.3,1579,15.1,12.7,86,10.98,308,6.4,302.3,335.0,304.3
845.8,1585,15.0,12.7,86,11.00,309,6.3,302.3,335.1,304.3
845.2,1590,15.0,12.8,87,11.03,309,6.2,302.3,335.2,304.3
844.6,1596,14.9,12.7,87,11.02,310,6.1,302.3,335.2,304.3
844.0,1602,14.9,12.7,86,10.97,310,6.0,302.4,335.1,304.4
843.4,1608,14.9,12.6,86,10.90,311,5.9,302.4,334.9,304.4
842.8,1614,14.9,12.5,86,10.87,311,5.9,302.4,334.9,304.4
842.3,1620,14.8,12.5,86,10.86,312,5.8,302.5,334.9,304.4
841.7,1625,14.8,12.5,86,10.87,312,5.7,302.5,334.9,304.5
841.2,1631,14.8,12.5,86,10.86,313,5.6,302.6,335.0,304.5
840.6,1637,14.8,12.4,86,10.85,313,5.5,302.6,335.0,304.6
840.0,1642,14.8,12.4,85,10.81,313,5.4,302.6,334.9,304.6
839.5,1648,14.7,12.3,85,10.75,313,5.3,302.6,334.8,304.6
839.0,1653,14.7,12.1,84,10.65,314,5.2,302.7,334.5,304.6
838.4,1659,14.8,11.9,83,10.51,314,5.0,302.8,334.2,304.7
837.8,1664,14.8,11.7,82,10.36,314,4.9,302.9,333.9,304.8
837.3,1670,14.8,11.5,80,10.21,314,4.8,302.9,333.5,304.8
836.7,1676,14.8,11.2,79,10.03,313,4.7,303.0,333.1,304.8
836.1,1682,14.8,10.8,77,9.79,313,4.6,303.0,332.4,304.8
835.5,1688,14.8,10.5,75,9.56,313,4.5,303.1,331.8,304.9
834.9,1694,14.8,10.3,75,9.48,313,4.3,303.2,331.7,304.9
834.3,1700,14.8,10.3,75,9.50,313,4.2,303.3,331.8,305.0
833.7,1706,14.9,10.3,74,9.48,313,4.1,303.4,331.9,305.1
833.2,1712,15.0,10.0,72,9.32,313,4.0,303.6,331.6,305.3
832.6,1718,15.1,9.6,69,9.05,314,3.9,303.8,331.1,305.4
832.0,1724,15.3,9.0,66,8.70,314,3.7,304.0,330.3,305.6
831.4,1730,15.4,8.3,63,8.31,315,3.6,304.1,329.3,305.7
830.8,1736,15.5,7.6,59,7.92,316,3.5,304.3,328.3,305.8
830.2,1742,15.6,6.9,56,7.53,317,3.3,304.5,327.4,305.8
829.7,1748,15.7,6.1,53,7.13,318,3.2,304.6,326.4,305.9
829.1,1753,15.7,5.5,51,6.85,320,3.1,304.8,325.7,306.0
828.5,1759,15.8,5.3,50,6.74,322,3.0,304.9,325.5,306.1
828.0,1765,15.8,5.2,49,6.70,324,2.8,304.9,325.4,306.2
827.4,1771,15.8,5.0,49,6.64,327,2.7,305.0,325.3,306.2
826.8,1777,15.8,4.9,48,6.57,330,2.6,305.0,325.2,306.2
826.2,1783,15.7,4.8,48,6.53,333,2.5,305.1,325.1,306.3
825.6,1789,15.7,4.7,48,6.52,337,2.4,305.1,325.1,306.3
825.0,1795,15.6,4.8,48,6.53,341,2.4,305.1,325.1,306.3
824.4,1802,15.6,4.8,49,6.56,345,2.3,305.1,325.2,306.3
823.7,1808,15.5,4.8,49,6.57,349,2.3,305.1,325.2,306.3
823.1,1815,15.4,4.7,49,6.51,353,2.3,305.1,325.0,306.3
822.5,1821,15.4,4.4,48,6.39,357,2.2,305.1,324.8,306.3
821.9,1827,15.4,4.1,47,6.27,1,2.2,305.2,324.4,306.3
821.3,1833,15.4,3.9,46,6.16,5,2.2,305.2,324.2,306.4
820.7,1839,15.4,3.7,45,6.08,8,2.2,305.3,324.0,306.4
820.2,1845,15.4,3.4,44,5.96,11,2.2,305.4,323.7,306.5
819.6,1851,15.5,2.9,43,5.76,14,2.2,305.5,323.3,306.5
819.0,1857,15.5,2.2,41,5.48,17,2.2,305.6,322.6,306.6
818.4,1863,15.6,1.4,38,5.20,20,2.3,305.8,321.9,306.7
817.9,1869,15.7,1.0,37,5.04,22,2.3,305.9,321.6,306.8
817.3,1875,15.7,0.7,36,4.94,24,2.3,306.0,321.3,306.9
816.7,1881,15.7,0.3,35,4.79,26,2.3,306.1,321.0,307.0
816.1,1887,15.7,0.1,34,4.72,27,2.3,306.1,320.8,307.0
815.5,1893,15.7,0.1,35,4.74,29,2.2,306.2,321.0,307.0
815.0,1899,15.6,0.2,35,4.76,30,2.2,306.2,321.0,307.0
814.4,1905,15.6,0.1,35,4.73,32,2.2,306.2,320.9,307.1
813.8,1912,15.6,-0.2,34,4.65,33,2.2,306.2,320.8,307.1
813.2,1918,15.6,-0.6,33,4.52,34,2.2,306.3,320.4,307.1
812.5,1925,15.6,-1.0,32,4.38,34,2.2,306.3,320.1,307.2
811.9,1931,15.5,-1.3,31,4.28,35,2.2,306.4,319.8,307.2
