PRES,HGHT,TEMP,DWPT,RELH,MIXR,DRCT,SPED,THTA,THTE,THTV
1013.5,31,22.1,20.0,88,14.71,300,1.7,294.1,336.3,296.7
1013.0,35,23.1,20.6,86,15.25,346,1.2,295.2,339.0,297.9
1012.3,41,23.5,20.9,85,15.52,3,1.3,295.7,340.4,298.4
1011.6,47,24.1,21.1,83,15.77,9,1.4,296.3,341.9,299.1
1011.0,52,24.5,21.1,81,15.77,11,1.5,296.7,342.4,299.5
1010.4,57,24.7,21.0,80,15.72,12,1.5,297.0,342.6,299.8
1009.8,62,24.8,21.0,80,15.71,14,1.6,297.1,342.7,299.9
1009.1,68,24.7,21.0,80,15.72,16,1.7,297.1,342.7,299.9
1008.5,74,24.7,21.0,80,15.74,19,1.8,297.1,342.8,299.9
1007.9,79,24.6,21.0,80,15.77,21,1.8,297.1,342.9,299.9
1007.3,85,24.6,21.1,81,15.79,24,1.9,297.1,343.0,299.9
1006.7,90,24.6,21.1,81,15.80,26,2.0,297.1,343.0,300.0
1006.1,95,24.5,21.1,81,15.81,29,2.1,297.2,343.0,300.0
1005.5,101,24.5,21.1,81,15.83,31,2.1,297.2,343.1,300.0
1004.8,106,24.5,21.1,82,15.86,34,2.2,297.2,343.2,300.0
1004.2,111,24.4,21.1,82,15.85,36,2.3,297.2,343.2,300.0
1003.6,117,24.4,21.1,82,15.87,38,2.3,297.2,343.3,300.0
1002.9,123,24.3,21.1,82,15.93,40,2.4,297.2,343.5,300.1
1002.3,128,24.3,21.2,82,15.98,42,2.5,297.3,343.7,300.1
1001.6,134,24.3,21.2,83,16.01,44,2.5,297.3,343.8,300.2
1000.9,140,24.3,21.2,83,16.00,46,2.6,297.3,343.8,300.2
1000.3,146,24.2,21.1,83,15.97,48,2.6,297.3,343.7,300.2
1000.0,148,24.2,21.1,83,15.97,49,2.7,297.3,343.7,300.2
999.6,152,24.2,21.1,83,15.98,49,2.7,297.3,343.8,300.2
999.0,157,24.1,21.2,84,16.02,50,2.8,297.3,343.9,300.2
998.4,163,24.1,21.2,84,16.06,51,2.8,297.3,344.0,300.2
997.8,168,24.0,21.2,84,16.10,52,2.8,297.3,344.1,300.2
997.2,173,24.0,21.2,84,16.11,53,2.9,297.4,344.2,300.2
996.7,177,24.0,21.2,85,16.12,54,2.9,297.4,344.2,300.2
996.2,182,23.9,21.2,85,16.14,55,2.9,297.4,344.3,300.2
995.7,187,23.9,21.3,85,16.20,55,3.0,297.4,344.4,300.2
995.1,191,23.8,21.3,86,16.27,56,3.0,297.4,344.6,300.3
994.6,196,23.8,21.4,87,16.32,56,3.0,297.4,344.8,300.3
994.0,201,23.7,21.4,87,16.31,56,3.0,297.4,344.7,300.3
993.4,207,23.7,21.3,87,16.28,57,3.0,297.4,344.7,300.3
992.8,212,23.6,21.3,87,16.23,57,3.0,297.4,344.5,300.3
992.1,218,23.6,21.2,86,16.17,57,3.0,297.4,344.4,300.3
991.5,223,23.5,21.1,86,16.13,58,3.0,297.4,344.3,300.3
990.9,229,23.5,21.1,86,16.09,58,2.9,297.4,344.2,300.3
990.2,234,23.4,21.1,87,16.08,59,2.9,297.4,344.1,300.3
989.6,240,23.4,21.1,87,16.10,60,2.9,297.4,344.2,300.3
988.9,246,23.3,21.1,87,16.15,60,2.9,297.4,344.4,300.3
988.3,252,23.3,21.1,88,16.17,61,2.9,297.4,344.4,300.3
987.6,258,23.2,21.1,88,16.15,62,2.8,297.4,344.3,300.3
987.0,263,23.2,21.1,88,16.13,64,2.8,297.4,344.3,300.3
986.3,269,23.1,21.1,88,16.13,65,2.8,297.4,344.3,300.3
985.7,275,23.1,21.0,88,16.12,67,2.8,297.4,344.3,300.3
985.1,280,23.0,21.0,89,16.10,69,2.8,297.4,344.2,300.3
984.5,286,22.9,21.0,89,16.10,70,2.8,297.4,344.2,300.3
983.9,291,22.9,21.0,89,16.11,72,2.8,297.4,344.3,300.3
983.3,296,22.9,21.0,89,16.12,74,2.8,297.4,344.3,300.3
982.7,302,22.8,21.0,89,16.10,76,2.8,297.4,344.2,300.3
982.1,307,22.8,20.9,89,16.09,78,2.9,297.5,344.2,300.3
981.5,312,22.7,21.0,90,16.11,80,2.9,297.5,344.3,300.3
980.9,317,22.7,21.0,90,16.15,82,2.9,297.5,344.4,300.3
980.3,323,22.6,21.0,90,16.17,84,3.0,297.5,344.5,300.4
979.7,328,22.6,20.9,90,16.13,86,3.0,297.5,344.4,300.3
979.1,333,22.5,20.8,90,16.04,88,3.1,297.5,344.1,300.3
978.5,339,22.5,20.7,90,15.93,89,3.2,297.5,343.8,300.3
977.9,344,22.5,20.6,89,15.84,90,3.2,297.6,343.6,300.4
977.4,349,22.5,20.6,89,15.81,91,3.3,297.6,343.6,300.4
976.8,354,22.5,20.6,89,15.80,92,3.3,297.6,343.6,300.4
976.2,359,22.4,20.5,89,15.79,93,3.3,297.6,343.5,300.4
975.7,364,22.3,20.5,89,15.71,94,3.4,297.6,343.3,300.4
975.1,369,22.3,20.4,89,15.61,94,3.4,297.6,343.0,300.4
974.6,374,22.3,20.3,88,15.52,94,3.5,297.6,342.8,300.4
974.0,379,22.3,20.2,88,15.50,95,3.5,297.7,342.8,300.5
973.4,384,22.3,20.2,88,15.52,95,3.5,297.8,343.0,300.5
972.9,389,22.3,20.3,88,15.57,95,3.6,297.8,343.1,300.5
972.3,394,22.2,20.3,89,15.63,94,3.6,297.8,343.3,300.6
971.8,399,22.2,20.4,90,15.72,94,3.6,297.8,343.5,300.6
971.2,404,22.1,20.5,90,15.78,94,3.6,297.7,343.7,300.5
970.7,409,22.0,20.4,90,15.72,93,3.6,297.7,343.4,300.5
970.1,414,22.0,20.3,90,15.62,92,3.6,297.7,343.2,300.5
969.6,419,22.0,20.3,90,15.62,92,3.6,297.7,343.2,300.5
969.0,424,21.9,20.4,91,15.72,91,3.6,297.7,343.5,300.5
968.4,429,21.9,20.5,92,15.84,90,3.6,297.7,343.8,300.6
967.9,434,21.8,20.5,92,15.84,89,3.7,297.7,343.8,300.5
967.3,440,21.8,20.4,92,15.75,88,3.7,297.7,343.6,300.5
966.6,445,21.7,20.3,92,15.69,87,3.7,297.7,343.4,300.5
966.0,451,21.6,20.3,92,15.71,86,3.7,297.7,343.4,300.5
965.4,457,21.6,20.3,93,15.74,85,3.7,297.7,343.5,300.5
964.8,462,21.5,20.3,93,15.76,84,3.7,297.7,343.6,300.5
964.2,467,21.5,20.3,93,15.78,82,3.7,297.7,343.6,300.5
963.6,473,21.4,20.4,94,15.81,81,3.8,297.7,343.7,300.5
963.1,478,21.4,20.4,94,15.81,80,3.8,297.7,343.7,300.5
962.5,482,21.3,20.4,94,15.82,79,3.8,297.7,343.8,300.5
962.0,487,21.3,20.4,94,15.85,78,3.9,297.7,343.8,300.5
961.5,492,21.2,20.4,95,15.86,77,3.9,297.7,343.9,300.5
960.9,497,21.2,20.4,95,15.88,76,3.9,297.7,343.9,300.6
960.3,502,21.2,20.4,95,15.92,76,3.9,297.7,344.1,300.6
959.8,507,21.1,20.4,96,15.93,75,4.0,297.7,344.1,300.6
959.2,512,21.1,20.4,96,15.88,74,4.0,297.7,344.0,300.6
958.7,517,21.0,20.3,95,15.81,74,4.0,297.7,343.7,300.6
958.1,522,21.0,20.2,96,15.78,73,4.1,297.7,343.7,300.6
957.6,527,20.9,20.2,96,15.79,73,4.1,297.7,343.7,300.5
957.0,532,20.9,20.2,96,15.80,73,4.1,297.7,343.7,300.6
956.5,537,20.8,20.2,96,15.81,73,4.1,297.7,343.7,300.6
955.9,542,20.8,20.2,97,15.82,73,4.2,297.8,343.8,300.6
955.4,547,20.7,20.2,97,15.80,73,4.2,297.7,343.7,300.6
954.8,552,20.7,20.2,97,15.79,73,4.2,297.7,343.7,300.6
954.3,557,20.6,20.2,97,15.77,73,4.2,297.7,343.6,300.5
953.7,563,20.6,20.1,97,15.75,73,4.3,297.7,343.6,300.5
953.1,568,20.5,20.1,97,15.74,73,4.3,297.7,343.5,300.5
952.6,573,20.5,20.1,98,15.75,74,4.3,297.7,343.6,300.5
952.0,578,20.4,20.2,98,15.81,74,4.4,297.7,343.8,300.6
951.4,583,20.4,20.2,99,15.86,74,4.4,297.8,343.9,300.6
950.9,588,20.4,20.2,99,15.85,75,4.5,297.8,343.9,300.6
950.3,593,20.3,20.1,99,15.80,75,4.5,297.7,343.7,300.6
949.8,598,20.3,20.1,99,15.77,76,4.6,297.7,343.6,300.6
949.3,603,20.2,20.1,99,15.75,76,4.7,297.8,343.6,300.6
948.8,608,20.2,20.0,99,15.70,76,4.8,297.7,343.4,300.5
948.2,612,20.1,19.9,99,15.65,77,4.9,297.8,343.3,300.5
947.7,618,20.1,20.0,99,15.68,77,5.0,297.8,343.4,300.5
947.1,623,20.0,20.0,100,15.75,77,5.1,297.8,343.6,300.6
946.5,628,20.0,20.0,100,15.78,78,5.3,297.8,343.7,300.6
945.9,634,20.0,20.0,100,15.79,78,5.4,297.9,343.8,300.7
945.2,640,20.0,20.0,100,15.78,78,5.5,297.9,343.9,300.7
944.6,645,20.0,20.0,100,15.74,78,5.7,297.9,343.8,300.7
944.0,651,19.9,19.9,100,15.69,78,5.8,297.9,343.6,300.7
943.4,656,19.9,19.8,100,15.62,78,6.0,298.0,343.4,300.7
942.9,661,19.8,19.7,99,15.54,78,6.1,298.0,343.2,300.7
942.3,666,19.8,19.7,99,15.47,78,6.3,297.9,343.0,300.7
941.8,671,19.7,19.6,99,15.45,78,6.4,297.9,342.9,300.7
941.3,676,19.7,19.6,99,15.42,78,6.6,297.9,342.8,300.7
940.8,681,19.6,19.5,100,15.37,78,6.7,297.9,342.6,300.6
940.3,685,19.6,19.5,100,15.37,78,6.8,297.9,342.7,300.6
939.7,690,19.6,19.6,100,15.42,78,7.0,298.0,342.9,300.7
939.2,696,19.6,19.5,100,15.40,78,7.1,298.0,342.9,300.8
938.6,701,19.6,19.3,98,15.18,78,7.2,298.1,342.3,300.8
938.0,706,19.6,18.8,95,14.67,77,7.3,298.1,340.9,300.7
937.5,711,19.5,18.2,92,14.17,77,7.3,298.1,339.5,300.6
936.9,716,19.5,18.1,92,14.06,77,7.4,298.1,339.1,300.6
936.4,721,19.4,18.1,92,14.06,77,7.4,298.1,339.1,300.6
935.8,726,19.5,17.7,90,13.78,77,7.5,298.2,338.4,300.7
935.3,731,19.6,17.3,87,13.41,77,7.5,298.4,337.5,300.8
934.8,736,19.6,17.1,85,13.21,77,7.5,298.5,337.1,300.8
934.3,741,19.7,17.0,85,13.15,77,7.5,298.6,337.0,300.9
933.8,745,19.7,17.0,85,13.17,77,7.5,298.6,337.1,301.0
933.3,750,19.6,17.0,85,13.19,76,7.4,298.6,337.2,301.0
932.8,755,19.6,17.0,85,13.22,76,7.4,298.6,337.3,301.0
932.3,759,19.6,17.0,85,13.22,76,7.4,298.6,337.3,301.0
931.8,764,19.5,17.0,85,13.21,76,7.3,298.6,337.3,301.0
931.3,768,19.5,17.0,85,13.19,76,7.3,298.7,337.2,301.0
930.8,773,19.5,17.0,86,13.19,77,7.2,298.7,337.2,301.0
930.3,777,19.4,17.0,86,13.20,77,7.2,298.7,337.3,301.0
929.8,782,19.4,17.0,86,13.22,77,7.1,298.7,337.3,301.0
929.3,787,19.3,17.0,86,13.23,77,7.1,298.7,337.4,301.0
928.8,791,19.3,17.0,87,13.24,77,7.1,298.7,337.4,301.0
928.3,796,19.2,17.0,87,13.26,77,7.0,298.7,337.5,301.0
927.8,801,19.2,17.0,87,13.28,77,7.0,298.7,337.6,301.1
927.3,805,19.2,17.1,88,13.32,78,7.0,298.7,337.7,301.1
926.8,810,19.1,17.1,88,13.38,78,6.9,298.7,337.8,301.1
926.3,814,19.1,17.2,89,13.43,78,6.9,298.7,338.0,301.1
925.9,819,19.0,17.2,89,13.49,78,6.9,298.7,338.2,301.1
925.4,823,19.0,17.3,90,13.56,79,6.9,298.7,338.3,301.1
925.0,827,18.9,17.3,90,13.59,79,6.9,298.7,338.4,301.1
924.9,827,18.9,17.3,90,13.60,79,6.9,298.7,338.4,301.1
924.5,832,18.9,17.3,91,13.60,79,6.9,298.7,338.5,301.1
924.0,836,18.9,17.3,91,13.60,79,6.9,298.7,338.5,301.1
923.6,840,18.9,17.3,91,13.57,80,6.9,298.7,338.4,301.1
923.1,844,18.9,17.3,91,13.58,80,7.0,298.8,338.5,301.2
922.7,848,18.8,17.3,91,13.62,80,7.0,298.8,338.6,301.2
922.2,853,18.8,17.4,91,13.64,80,7.0,298.8,338.7,301.2
921.7,857,18.8,17.3,91,13.62,80,7.0,298.8,338.7,301.3
921.2,862,18.8,17.3,91,13.58,80,7.0,298.9,338.6,301.3
920.7,866,18.8,17.2,91,13.55,80,7.1,298.9,338.6,301.3
920.2,871,18.8,17.2,91,13.53,79,7.1,298.9,338.6,301.3
919.7,876,18.7,17.2,91,13.52,79,7.1,298.9,338.5,301.3
919.2,881,18.7,17.1,91,13.48,79,7.1,298.9,338.4,301.3
918.7,886,18.6,17.1,91,13.44,79,7.1,298.9,338.3,301.3
918.2,891,18.6,17.1,91,13.44,78,7.2,298.9,338.3,301.4
917.6,896,18.6,17.1,91,13.46,78,7.2,299.0,338.4,301.4
917.1,901,18.6,17.1,91,13.48,78,7.2,299.0,338.5,301.4
916.6,905,18.6,17.1,91,13.47,77,7.2,299.0,338.5,301.5
916.1,910,18.5,17.0,91,13.45,77,7.3,299.1,338.5,301.5
915.6,915,18.5,17.0,91,13.42,76,7.3,299.1,338.4,301.5
915.1,920,18.5,17.0,91,13.41,76,7.3,299.1,338.4,301.5
914.6,924,18.4,16.9,91,13.40,76,7.4,299.1,338.4,301.5
914.1,929,18.4,16.9,91,13.40,75,7.4,299.1,338.4,301.5
913.6,933,18.4,16.9,91,13.42,75,7.5,299.1,338.5,301.6
913.2,938,18.3,17.0,92,13.44,75,7.5,299.1,338.5,301.6
912.7,942,18.3,17.0,92,13.47,74,7.6,299.1,338.6,301.6
912.2,947,18.3,17.0,93,13.51,74,7.6,299.2,338.7,301.6
911.7,951,18.2,17.0,93,13.51,74,7.7,299.2,338.8,301.6
911.2,956,18.2,17.0,93,13.51,74,7.8,299.2,338.8,301.6
910.7,960,18.1,17.0,93,13.49,74,7.9,299.2,338.7,301.6
910.3,965,18.1,17.0,93,13.48,73,7.9,299.2,338.7,301.6
909.8,969,18.1,16.9,93,13.46,73,8.0,299.2,338.6,301.6
909.3,974,18.0,16.9,93,13.43,74,8.1,299.2,338.6,301.6
908.9,978,18.0,16.9,93,13.42,74,8.2,299.2,338.6,301.6
908.4,982,18.0,16.9,93,13.42,74,8.2,299.3,338.6,301.7
907.9,987,18.0,16.8,93,13.41,74,8.3,299.3,338.6,301.7
907.4,992,17.9,16.8,93,13.40,74,8.4,299.3,338.6,301.7
906.9,996,17.9,16.8,93,13.38,74,8.5,299.3,338.5,301.7
906.4,1001,17.9,16.7,93,13.35,75,8.5,299.3,338.5,301.7
905.9,1006,17.8,16.7,93,13.34,75,8.6,299.3,338.4,301.7
905.4,1011,17.8,16.7,93,13.31,75,8.6,299.3,338.4,301.7
905.0,1015,17.8,16.6,93,13.28,76,8.7,299.3,338.3,301.7
904.5,1020,17.7,16.6,93,13.25,76,8.7,299.3,338.2,301.7
904.0,1024,17.7,16.5,93,13.20,76,8.7,299.3,338.1,301.7
903.5,1029,17.7,16.4,92,13.14,77,8.7,299.4,337.9,301.7
903.1,1033,17.7,16.3,92,13.06,77,8.7,299.4,337.7,301.8
902.6,1038,17.7,16.2,91,12.97,78,8.8,299.5,337.6,301.8
902.1,1043,17.7,16.2,91,12.94,78,8.8,299.5,337.5,301.9
901.5,1048,17.7,16.2,91,12.93,79,8.8,299.6,337.6,301.9
901.0,1052,17.6,16.2,91,12.93,79,8.7,299.6,337.5,301.9
900.5,1057,17.6,16.1,91,12.92,79,8.7,299.6,337.6,301.9
900.0,1062,17.6,16.1,91,12.90,80,8.7,299.6,337.5,301.9
899.5,1067,17.5,16.0,91,12.86,80,8.7,299.6,337.4,301.9
899.0,1072,17.5,16.0,91,12.80,81,8.7,299.6,337.3,301.9
898.5,1077,17.5,15.9,90,12.75,81,8.7,299.7,337.1,301.9
898.0,1081,17.5,15.9,90,12.74,81,8.6,299.7,337.1,302.0
897.5,1086,17.4,15.9,91,12.75,82,8.6,299.7,337.2,302.0
897.0,1091,17.4,15.9,91,12.77,82,8.6,299.7,337.3,302.0
896.5,1095,17.4,15.9,91,12.76,82,8.6,299.7,337.2,302.0
896.0,1100,17.3,15.8,91,12.71,82,8.6,299.7,337.1,302.0
895.5,1105,17.3,15.8,91,12.67,82,8.6,299.8,337.0,302.0
895.0,1110,17.3,15.7,91,12.65,83,8.5,299.8,337.0,302.0
894.5,1115,17.2,15.7,91,12.65,83,8.5,299.8,337.0,302.0
893.9,1120,17.2,15.7,91,12.64,82,8.5,299.8,336.9,302.0
893.4,1125,17.1,15.7,91,12.62,82,8.5,299.8,336.9,302.1
892.9,1131,17.1,15.6,91,12.58,82,8.5,299.8,336.8,302.0
892.3,1136,17.0,15.5,91,12.55,82,8.5,299.8,336.7,302.0
891.7,1141,17.0,15.5,91,12.53,82,8.5,299.8,336.7,302.1
891.1,1147,17.0,15.5,91,12.55,81,8.5,299.8,336.7,302.1
890.6,1153,16.9,15.6,92,12.59,81,8.6,299.8,336.9,302.1
890.0,1158,16.9,15.6,92,12.61,80,8.6,299.8,337.0,302.1
889.4,1164,16.8,15.5,92,12.59,80,8.6,299.9,336.9,302.1
888.8,1170,16.8,15.4,92,12.51,79,8.6,299.9,336.7,302.1
888.2,1175,16.8,15.3,91,12.44,79,8.6,299.9,336.5,302.1
887.6,1181,16.7,15.3,91,12.38,78,8.6,299.9,336.4,302.2
887.1,1186,16.7,15.2,91,12.35,77,8.7,300.0,336.3,302.2
886.6,1191,16.7,15.2,91,12.34,77,8.7,300.0,336.3,302.2
886.1,1196,16.7,15.2,91,12.33,76,8.7,300.0,336.3,302.2
885.6,1201,16.6,15.2,91,12.32,75,8.7,300.0,336.3,302.2
885.1,1205,16.6,15.2,91,12.33,75,8.8,300.0,336.4,302.3
884.6,1210,16.6,15.1,91,12.33,74,8.8,300.1,336.4,302.3
884.1,1215,16.6,15.1,91,12.31,74,8.8,300.1,336.4,302.3
883.6,1219,16.5,15.1,91,12.29,73,8.8,300.1,336.3,302.3
883.1,1224,16.5,15.0,91,12.25,72,8.9,300.2,336.3,302.4
882.6,1229,16.5,15.0,91,12.21,72,8.9,300.2,336.2,302.4
882.1,1234,16.5,14.9,90,12.16,71,8.9,300.2,336.1,302.4
881.6,1239,16.5,14.8,90,12.09,71,8.9,300.2,335.9,302.4
881.1,1244,16.5,14.7,90,12.06,71,8.9,300.3,335.8,302.4
880.6,1249,16.4,14.7,90,12.04,70,8.9,300.3,335.8,302.5
880.1,1253,16.4,14.7,90,12.04,70,9.0,300.3,335.8,302.5
879.6,1258,16.4,14.7,90,12.04,70,9.0,300.3,335.9,302.5
879.1,1263,16.3,14.7,90,12.04,70,9.0,300.3,335.9,302.5
878.6,1268,16.3,14.7,90,12.02,70,9.0,300.4,335.8,302.5
878.2,1272,16.3,14.6,90,11.98,70,9.0,300.4,335.7,302.5
877.7,1277,16.3,14.5,89,11.92,70,9.0,300.4,335.6,302.6
877.2,1282,16.3,14.4,89,11.87,70,9.0,300.5,335.5,302.6
876.7,1286,16.3,14.3,88,11.80,70,9.1,300.6,335.4,302.7
876.2,1291,16.4,14.2,87,11.73,70,9.1,300.7,335.3,302.8
875.7,1296,16.4,14.2,87,11.72,70,9.1,300.7,335.4,302.8
875.3,1301,16.4,14.3,87,11.78,71,9.1,300.8,335.6,302.9
874.8,1305,16.4,14.3,88,11.82,71,9.2,300.8,335.8,302.9
874.3,1310,16.4,14.3,87,11.80,71,9.2,300.9,335.8,303.0
873.8,1315,16.4,14.3,87,11.77,72,9.3,300.9,335.7,303.0
873.3,1320,16.4,14.2,87,11.72,72,9.3,300.9,335.6,303.1
872.8,1325,16.4,13.9,85,11.54,73,9.4,301.0,335.2,303.1
872.2,1330,16.4,13.6,83,11.26,73,9.4,301.1,334.5,303.1
871.7,1335,16.5,13.1,80,10.92,74,9.5,301.2,333.6,303.2
871.2,1341,16.6,12.6,78,10.59,74,9.6,301.3,332.8,303.3
870.7,1346,16.7,12.3,75,10.35,75,9.7,301.5,332.3,303.4
870.1,1351,16.8,12.0,73,10.16,75,9.8,301.7,331.9,303.5
869.6,1356,16.8,11.7,72,9.99,76,9.9,301.8,331.6,303.6
869.1,1361,16.8,11.4,70,9.80,76,10.0,301.9,331.1,303.6
868.6,1366,16.9,11.2,69,9.63,76,10.1,301.9,330.7,303.7
868.0,1371,16.9,11.0,68,9.51,77,10.2,302.1,330.5,303.8
867.5,1376,17.0,10.7,67,9.38,77,10.3,302.2,330.2,303.9
867.0,1382,17.0,10.5,65,9.24,77,10.5,302.3,329.9,304.0
866.5,1387,17.1,10.3,64,9.12,78,10.6,302.4,329.7,304.0
866.0,1392,17.1,10.2,64,9.04,78,10.7,302.4,329.5,304.1
865.5,1397,17.1,9.9,63,8.91,78,10.8,302.5,329.2,304.1
865.0,1402,17.2,9.4,60,8.60,78,10.9,302.6,328.4,304.1
864.5,1407,17.2,8.7,57,8.21,78,11.0,302.7,327.4,304.2
864.0,1411,17.3,8.2,55,7.92,78,11.1,302.9,326.8,304.3
863.5,1416,17.4,7.9,54,7.78,78,11.2,303.0,326.5,304.4
863.1,1420,17.4,7.8,53,7.70,78,11.3,303.0,326.3,304.4
862.6,1425,17.5,7.7,53,7.67,78,11.4,303.2,326.4,304.6
862.1,1430,17.6,7.7,53,7.69,78,11.5,303.3,326.6,304.7
861.6,1435,17.6,7.7,52,7.70,77,11.5,303.4,326.7,304.8
861.1,1440,17.6,7.7,52,7.70,77,11.6,303.5,326.8,304.9
860.6,1445,17.6,7.9,53,7.79,77,11.6,303.5,327.1,304.9
860.1,1450,17.6,8.1,54,7.91,77,11.7,303.5,327.4,305.0
859.6,1455,17.5,8.2,54,7.94,76,11.7,303.5,327.5,305.0
859.1,1460,17.5,8.0,54,7.87,76,11.7,303.5,327.4,305.0
858.6,1465,17.5,7.7,53,7.70,75,11.7,303.6,326.9,305.0
858.1,1470,17.5,7.1,50,7.40,75,11.7,303.6,326.1,305.0
857.6,1475,17.5,6.3,48,6.98,75,11.7,303.7,324.9,305.0
857.1,1480,17.6,5.2,44,6.49,74,11.7,303.8,323.6,305.0
856.5,1485,17.7,4.5,42,6.19,74,11.7,304.0,322.9,305.1
856.0,1491,17.7,4.5,42,6.18,73,11.6,304.0,322.9,305.2
855.5,1496,17.6,4.8,43,6.33,73,11.6,304.0,323.4,305.2
855.0,1501,17.6,5.2,44,6.48,73,11.6,304.0,323.8,305.2
854.4,1506,17.6,5.4,45,6.59,72,11.5,304.1,324.2,305.3
853.9,1511,17.6,5.5,45,6.66,72,11.5,304.2,324.5,305.4
853.4,1517,17.6,5.6,45,6.70,72,11.5,304.2,324.7,305.5
852.9,1522,17.7,5.7,45,6.73,71,11.4,304.3,324.9,305.6
852.3,1527,17.7,5.5,45,6.67,71,11.4,304.4,324.8,305.6
851.8,1533,17.7,5.1,43,6.47,71,11.3,304.4,324.2,305.6
851.3,1538,17.7,4.5,42,6.22,70,11.3,304.5,323.6,305.7
850.8,1543,17.7,4.2,41,6.07,70,11.2,304.6,323.2,305.7
850.2,1548,17.7,4.1,40,6.04,70,11.2,304.7,323.2,305.8
850.0,1551,17.7,4.1,40,6.05,70,11.2,304.7,323.3,305.8
849.7,1554,17.7,4.1,40,6.05,70,11.2,304.7,323.3,305.8
849.2,1559,17.7,3.9,40,5.97,69,11.1,304.8,323.1,305.9
848.7,1564,17.7,3.6,39,5.84,69,11.1,304.8,322.8,305.9
848.2,1569,17.7,3.3,38,5.72,69,11.1,304.8,322.5,305.9
847.7,1574,17.7,3.1,38,5.65,69,11.0,304.9,322.3,305.9
847.1,1580,17.7,3.1,38,5.63,68,11.0,304.9,322.3,306.0
846.6,1585,17.6,3.0,38,5.62,68,11.0,304.9,322.3,306.0
846.1,1590,17.6,2.8,37,5.55,68,11.0,304.9,322.1,306.0
845.5,1596,17.6,2.6,37,5.45,68,10.9,305.0,321.8,306.0
845.0,1601,17.5,2.3,36,5.34,67,10.9,305.0,321.5,306.0
844.5,1606,17.5,2.1,36,5.28,67,10.9,305.1,321.4,306.0
844.0,1611,17.5,2.2,36,5.31,67,10.9,305.1,321.5,306.1
843.6,1616,17.5,2.3,36,5.36,67,10.9,305.1,321.7,306.1
843.1,1621,17.5,2.2,36,5.34,66,10.9,305.2,321.7,306.1
842.6,1625,17.5,2.0,35,5.25,66,10.9,305.2,321.4,306.2
842.1,1630,17.5,1.7,35,5.15,66,10.9,305.3,321.2,306.2
841.7,1635,17.5,1.6,34,5.11,66,10.9,305.3,321.2,306.3
841.2,1640,17.5,1.5,34,5.08,65,10.9,305.3,321.1,306.3
840.7,1644,17.4,1.2,33,4.97,65,10.9,305.4,320.8,306.3
840.3,1649,17.4,0.7,32,4.81,65,10.9,305.4,320.3,306.3
839.8,1654,17.4,0.4,32,4.68,65,10.9,305.4,320.0,306.3
839.3,1659,17.4,0.1,31,4.60,65,10.9,305.5,319.8,306.3
838.9,1663,17.4,0.1,31,4.58,65,10.8,305.5,319.8,306.4
838.4,1668,17.5,0.4,32,4.70,64,10.8,305.6,320.3,306.5
837.9,1673,17.5,0.9,33,4.88,64,10.8,305.7,320.8,306.6
837.4,1678,17.4,1.1,33,4.96,64,10.8,305.7,321.1,306.6
836.9,1683,17.4,1.1,33,4.94,64,10.7,305.7,321.1,306.6
836.4,1688,17.4,0.9,33,4.88,64,10.7,305.7,320.9,306.6
835.9,1694,17.4,0.7,32,4.81,64,10.6,305.8,320.8,306.7
835.4,1699,17.3,0.4,32,4.72,64,10.6,305.8,320.5,306.7
834.9,1704,17.3,0.1,31,4.63,64,10.5,305.8,320.3,306.7
834.4,1709,17.3,-0.0,31,4.58,64,10.5,305.8,320.2,306.7
833.9,1714,17.3,-0.1,31,4.56,65,10.4,305.9,320.1,306.7
833.4,1719,17.3,-0.2,31,4.54,65,10.4,305.9,320.1,306.8
833.0,1724,17.3,-0.3,30,4.51,65,10.3,306.0,320.1,306.8
832.5,1728,17.3,-0.4,30,4.47,65,10.2,306.0,320.0,306.9
832.0,1733,17.3,-0.6,30,4.39,65,10.2,306.1,319.8,306.9
831.6,1738,17.3,-1.1,29,4.25,65,10.1,306.2,319.5,306.9
831.1,1743,17.3,-1.6,28,4.09,65,10.0,306.2,319.1,307.0
830.6,1748,17.3,-2.1,26,3.93,65,10.0,306.3,318.7,307.0
830.1,1752,17.3,-2.5,26,3.83,65,9.9,306.3,318.4,307.0
829.7,1758,17.3,-2.7,25,3.78,65,9.8,306.3,318.3,307.0
829.1,1763,17.3,-2.8,25,3.77,65,9.8,306.4,318.3,307.1
828.6,1768,17.2,-2.7,25,3.78,65,9.7,306.4,318.4,307.1
828.1,1774,17.2,-2.6,26,3.80,65,9.7,306.4,318.4,307.1
827.5,1779,17.2,-2.6,26,3.82,65,9.6,306.4,318.5,307.2
827.0,1785,17.1,-2.6,26,3.83,65,9.5,306.4,318.5,307.2
826.4,1791,17.1,-2.6,26,3.84,65,9.5,306.5,318.6,307.2
825.8,1797,17.0,-2.6,26,3.84,65,9.4,306.5,318.6,307.2
825.3,1803,17.0,-2.5,26,3.84,65,9.4,306.5,318.6,307.2
824.7,1809,17.0,-2.5,26,3.85,65,9.3,306.5,318.7,307.3
824.1,1815,17.0,-2.6,26,3.83,64,9.3,306.6,318.7,307.3
823.5,1821,17.0,-2.9,25,3.74,64,9.2,306.7,318.5,307.4
822.9,1827,17.1,-3.6,24,3.57,64,9.2,306.9,318.3,307.6
822.4,1833,17.3,-4.1,23,3.44,64,9.1,307.1,318.1,307.8
821.8,1839,17.4,-4.0,23,3.45,64,9.1,307.3,318.3,308.0
821.2,1845,17.4,-3.5,24,3.60,64,9.0,307.4,318.8,308.1
820.6,1851,17.4,-2.9,25,3.77,64,9.0,307.4,319.4,308.1
820.1,1856,17.3,-2.4,26,3.91,64,8.9,307.4,319.8,308.1
819.5,1862,17.3,-2.2,26,3.96,64,8.9,307.4,320.0,308.2
