PRES,HGHT,TEMP,DWPT,RELH,MIXR,DRCT,SPED,THTA,THTE,THTV
1014.3,31,24.7,21.6,83,16.26,81,3.6,296.6,343.7,299.5
1013.5,38,24.9,21.3,81,15.95,82,3.5,296.9,343.2,299.7
1012.9,43,24.9,21.2,80,15.86,82,3.6,296.9,342.9,299.8
1012.3,48,24.9,21.1,80,15.74,81,3.9,297.0,342.6,299.8
1011.8,53,24.8,20.9,79,15.58,81,4.2,297.0,342.2,299.8
1011.4,56,24.8,20.8,78,15.46,81,4.4,297.0,341.9,299.8
1010.8,61,24.8,20.7,78,15.40,80,4.7,297.0,341.7,299.8
1010.1,67,24.7,20.7,78,15.39,80,5.0,297.0,341.7,299.8
1009.5,72,24.7,20.7,78,15.37,80,5.2,297.0,341.6,299.8
1008.9,77,24.6,20.6,78,15.34,80,5.4,297.0,341.6,299.8
1008.3,82,24.6,20.6,78,15.31,79,5.7,297.0,341.5,299.8
1007.7,88,24.6,20.5,78,15.28,79,5.9,297.0,341.4,299.8
1007.1,93,24.5,20.5,78,15.26,79,6.1,297.0,341.3,299.8
1006.5,98,24.5,20.5,79,15.29,79,6.2,297.0,341.4,299.8
1005.9,104,24.4,20.6,79,15.34,79,6.4,297.0,341.6,299.8
1005.3,109,24.3,20.6,80,15.37,78,6.5,297.0,341.6,299.8
1004.6,115,24.3,20.6,80,15.41,78,6.6,297.0,341.8,299.8
1004.0,121,24.2,20.7,81,15.45,78,6.7,297.0,341.9,299.8
1003.3,126,24.2,20.7,81,15.47,78,6.8,297.0,341.9,299.8
1002.7,132,24.1,20.6,81,15.45,78,6.9,297.0,341.8,299.8
1002.0,138,24.1,20.6,81,15.45,78,7.0,297.0,341.9,299.8
1001.4,143,24.0,20.6,81,15.48,77,7.0,297.0,341.9,299.8
1000.7,149,23.9,20.7,82,15.53,77,7.0,297.0,342.1,299.8
1000.1,155,23.9,20.7,83,15.58,77,7.0,297.0,342.2,299.8
1000.0,155,23.9,20.7,83,15.58,77,7.1,297.0,342.2,299.8
999.4,160,23.8,20.7,83,15.58,77,7.1,297.0,342.2,299.8
998.8,166,23.8,20.7,83,15.57,77,7.0,297.0,342.2,299.8
998.1,172,23.7,20.7,83,15.56,77,7.0,297.0,342.1,299.8
997.5,178,23.6,20.7,83,15.56,77,7.0,297.0,342.1,299.8
996.8,183,23.6,20.7,84,15.56,76,7.0,297.0,342.1,299.8
996.2,189,23.5,20.6,84,15.56,76,7.0,297.0,342.1,299.8
995.6,194,23.5,20.6,84,15.53,76,7.0,297.0,342.0,299.7
995.0,199,23.4,20.6,84,15.52,76,6.9,297.0,342.0,299.7
994.5,204,23.4,20.6,84,15.55,76,6.9,297.0,342.1,299.8
993.9,209,23.3,20.6,85,15.59,76,6.9,297.0,342.2,299.8
993.4,213,23.3,20.6,85,15.60,76,6.9,297.0,342.3,299.8
992.8,218,23.2,20.6,85,15.61,76,6.9,297.0,342.3,299.8
992.3,223,23.2,20.6,86,15.62,77,6.9,297.0,342.3,299.8
991.7,228,23.1,20.6,86,15.62,77,6.9,297.0,342.3,299.8
991.2,233,23.1,20.6,86,15.61,77,6.9,297.0,342.3,299.8
990.6,238,23.1,20.6,86,15.62,77,6.9,297.0,342.3,299.8
990.0,243,23.0,20.6,86,15.65,77,6.9,297.0,342.4,299.8
989.5,248,23.0,20.6,87,15.67,78,6.9,297.0,342.5,299.8
988.9,253,22.9,20.6,87,15.66,78,7.0,297.0,342.5,299.8
988.3,258,22.9,20.6,87,15.64,78,7.0,297.0,342.4,299.8
987.7,264,22.8,20.6,87,15.62,78,7.0,297.0,342.3,299.8
987.1,269,22.8,20.5,87,15.58,79,7.1,297.0,342.2,299.8
986.5,274,22.7,20.5,87,15.55,79,7.1,297.0,342.1,299.8
985.9,279,22.7,20.5,87,15.55,79,7.2,297.0,342.1,299.8
985.3,285,22.6,20.4,87,15.54,79,7.2,297.0,342.1,299.8
984.7,290,22.6,20.4,88,15.53,80,7.3,297.0,342.1,299.8
984.1,296,22.5,20.4,88,15.53,80,7.3,297.0,342.1,299.8
983.5,301,22.5,20.4,88,15.50,80,7.3,297.0,342.0,299.8
982.9,307,22.4,20.3,88,15.46,80,7.4,297.0,341.9,299.8
982.2,312,22.4,20.3,88,15.42,80,7.4,297.0,341.8,299.8
981.6,318,22.3,20.3,88,15.43,80,7.4,297.0,341.8,299.8
981.0,323,22.3,20.3,89,15.47,80,7.5,297.0,341.9,299.8
980.4,329,22.2,20.4,89,15.53,80,7.5,297.1,342.1,299.8
979.8,334,22.2,20.4,90,15.59,80,7.5,297.0,342.3,299.8
979.2,340,22.1,20.4,90,15.62,80,7.5,297.0,342.3,299.8
978.5,345,22.0,20.4,90,15.61,80,7.5,297.0,342.3,299.8
977.9,351,22.0,20.4,91,15.59,80,7.5,297.0,342.3,299.8
977.3,356,21.9,20.4,91,15.61,80,7.5,297.0,342.3,299.8
976.6,362,21.9,20.4,91,15.64,80,7.5,297.0,342.4,299.8
976.0,368,21.8,20.4,92,15.65,80,7.4,297.0,342.4,299.8
975.4,373,21.8,20.3,92,15.59,80,7.4,297.0,342.2,299.8
974.8,378,21.7,20.3,91,15.52,79,7.4,297.0,342.1,299.8
974.2,384,21.7,20.2,91,15.50,79,7.3,297.0,342.0,299.8
973.6,389,21.6,20.2,92,15.52,79,7.3,297.0,342.1,299.8
973.0,394,21.6,20.2,92,15.51,79,7.2,297.0,342.0,299.8
972.5,399,21.5,20.2,92,15.49,79,7.1,297.0,342.0,299.8
971.9,405,21.5,20.2,92,15.52,79,7.1,297.0,342.1,299.8
971.3,410,21.4,20.2,93,15.57,78,7.0,297.1,342.2,299.8
970.7,415,21.4,20.3,93,15.59,78,7.0,297.0,342.3,299.8
970.2,420,21.3,20.2,93,15.56,78,6.9,297.0,342.2,299.8
969.6,425,21.3,20.2,93,15.52,78,6.9,297.0,342.1,299.8
969.0,431,21.2,20.1,94,15.51,78,6.8,297.0,342.0,299.8
968.4,436,21.2,20.1,94,15.50,78,6.8,297.0,342.0,299.8
967.9,441,21.1,20.1,94,15.47,77,6.7,297.0,341.9,299.8
967.3,446,21.1,20.0,94,15.44,77,6.7,297.0,341.8,299.8
966.8,450,21.0,20.0,94,15.44,77,6.7,297.0,341.8,299.8
966.2,455,21.0,20.0,94,15.44,77,6.7,297.0,341.8,299.8
965.7,460,20.9,20.0,94,15.40,76,6.6,297.0,341.7,299.8
965.1,465,20.9,19.9,94,15.36,76,6.6,297.1,341.6,299.8
964.6,470,20.9,19.9,94,15.33,76,6.6,297.1,341.5,299.8
964.0,475,20.8,19.9,94,15.33,76,6.6,297.1,341.6,299.8
963.5,480,20.8,19.9,95,15.35,76,6.6,297.1,341.6,299.8
962.9,485,20.7,19.9,95,15.34,75,6.7,297.1,341.6,299.8
962.3,490,20.7,19.8,95,15.29,75,6.7,297.1,341.4,299.8
961.8,495,20.6,19.8,95,15.27,75,6.7,297.1,341.4,299.8
961.2,501,20.6,19.8,95,15.28,75,6.7,297.1,341.4,299.8
960.7,506,20.5,19.8,95,15.29,75,6.7,297.1,341.4,299.8
960.1,511,20.5,19.8,96,15.32,75,6.8,297.1,341.5,299.8
959.5,516,20.4,19.9,96,15.38,75,6.8,297.1,341.7,299.8
958.9,521,20.4,19.9,97,15.41,75,6.8,297.1,341.8,299.8
958.4,526,20.3,19.9,97,15.40,75,6.8,297.1,341.7,299.8
957.8,532,20.3,19.8,97,15.37,75,6.8,297.1,341.7,299.8
957.2,537,20.2,19.8,97,15.33,75,6.8,297.1,341.6,299.8
956.6,542,20.2,19.7,97,15.24,75,6.9,297.1,341.3,299.8
956.0,548,20.2,19.5,96,15.12,75,6.9,297.1,341.0,299.8
955.4,553,20.1,19.4,95,14.98,75,6.9,297.1,340.6,299.8
954.8,559,20.1,19.2,95,14.84,75,6.9,297.2,340.2,299.8
954.1,565,20.1,19.1,94,14.72,76,6.9,297.2,340.0,299.8
953.5,571,20.1,19.0,94,14.65,76,6.9,297.2,339.8,299.8
952.8,576,20.0,18.9,93,14.62,76,6.9,297.3,339.7,299.9
952.2,582,20.0,18.9,93,14.57,76,6.9,297.3,339.6,299.9
951.6,588,20.0,18.8,93,14.53,77,6.9,297.3,339.6,299.9
950.9,594,20.0,18.8,93,14.52,77,6.9,297.4,339.6,300.0
950.3,599,19.9,18.8,93,14.53,77,6.9,297.4,339.6,300.0
949.7,605,19.9,18.8,94,14.56,78,7.0,297.4,339.7,300.0
949.1,610,19.9,18.9,94,14.59,78,7.0,297.4,339.8,300.0
948.5,616,19.8,18.9,94,14.60,78,7.0,297.4,339.9,300.0
947.9,621,19.8,18.8,94,14.58,79,7.0,297.4,339.8,300.0
947.4,626,19.7,18.8,94,14.56,79,7.0,297.4,339.8,300.0
946.8,632,19.7,18.8,94,14.53,79,7.0,297.5,339.7,300.1
946.2,637,19.7,18.7,94,14.51,80,7.0,297.5,339.7,300.1
945.6,642,19.6,18.7,94,14.52,80,7.0,297.5,339.7,300.1
945.1,647,19.6,18.7,95,14.52,80,7.1,297.5,339.7,300.1
944.5,652,19.5,18.7,95,14.51,80,7.1,297.5,339.7,300.1
943.9,658,19.5,18.7,95,14.49,81,7.1,297.5,339.7,300.1
943.4,663,19.5,18.6,95,14.47,81,7.2,297.5,339.6,300.1
942.8,668,19.4,18.6,95,14.44,81,7.2,297.5,339.5,300.1
942.2,674,19.4,18.5,95,14.41,81,7.2,297.5,339.5,300.1
941.6,679,19.3,18.5,95,14.37,81,7.2,297.6,339.4,300.1
941.0,685,19.3,18.4,95,14.33,81,7.3,297.6,339.3,300.1
940.4,690,19.3,18.4,95,14.29,81,7.3,297.6,339.2,300.1
939.8,695,19.2,18.3,95,14.26,81,7.3,297.6,339.1,300.2
939.2,701,19.2,18.3,95,14.24,82,7.4,297.6,339.1,300.2
938.6,706,19.2,18.3,95,14.23,82,7.4,297.7,339.1,300.2
938.0,712,19.1,18.3,95,14.21,82,7.4,297.7,339.0,300.2
937.5,717,19.1,18.2,95,14.16,82,7.5,297.7,338.9,300.2
936.9,722,19.0,18.1,94,14.10,82,7.5,297.7,338.7,300.2
936.3,727,19.0,18.0,94,14.04,82,7.5,297.7,338.6,300.2
935.8,732,19.0,18.0,94,13.98,82,7.5,297.7,338.4,300.2
935.2,737,19.0,18.0,94,13.99,82,7.6,297.7,338.5,300.2
934.7,742,18.9,18.0,94,14.03,82,7.6,297.7,338.6,300.3
934.2,747,18.9,18.0,95,14.04,82,7.6,297.8,338.6,300.3
933.7,752,18.8,18.0,95,14.03,82,7.7,297.7,338.6,300.3
933.1,757,18.8,18.0,95,14.01,83,7.7,297.8,338.6,300.3
932.6,762,18.7,17.9,95,13.99,83,7.7,297.8,338.5,300.3
932.1,767,18.7,17.9,95,13.98,83,7.8,297.8,338.5,300.3
931.6,771,18.7,17.9,95,13.98,83,7.8,297.8,338.5,300.3
931.0,776,18.6,17.9,95,13.96,83,7.8,297.8,338.5,300.3
930.5,782,18.6,17.8,95,13.94,84,7.9,297.8,338.4,300.3
929.9,787,18.5,17.8,95,13.91,84,7.9,297.8,338.3,300.3
929.3,792,18.5,17.7,95,13.87,84,8.0,297.8,338.2,300.3
928.7,798,18.4,17.7,95,13.85,84,8.0,297.8,338.2,300.3
928.1,803,18.4,17.7,96,13.85,85,8.0,297.8,338.2,300.3
927.5,809,18.4,17.7,96,13.87,85,8.1,297.8,338.2,300.3
926.9,814,18.3,17.7,96,13.88,85,8.1,297.9,338.3,300.3
926.4,820,18.3,17.7,96,13.88,85,8.2,297.8,338.3,300.3
925.8,825,18.2,17.7,97,13.87,85,8.2,297.8,338.2,300.3
925.2,831,18.2,17.6,97,13.84,86,8.2,297.9,338.2,300.3
925.0,832,18.2,17.6,97,13.83,86,8.3,297.9,338.2,300.3
924.6,836,18.1,17.6,97,13.82,86,8.3,297.9,338.2,300.3
924.0,841,18.1,17.6,97,13.83,86,8.3,297.9,338.2,300.4
923.5,847,18.1,17.6,97,13.84,86,8.3,297.9,338.2,300.4
922.9,852,18.0,17.6,97,13.85,86,8.3,297.9,338.3,300.4
922.4,857,18.0,17.6,98,13.86,86,8.3,297.9,338.3,300.4
921.8,862,17.9,17.6,98,13.85,86,8.3,297.9,338.3,300.4
921.3,867,17.9,17.5,97,13.78,86,8.3,298.0,338.1,300.4
920.7,872,17.9,17.4,97,13.73,86,8.3,298.0,338.1,300.5
920.2,877,17.9,17.4,97,13.75,86,8.3,298.1,338.2,300.5
919.7,882,17.9,17.5,98,13.84,86,8.2,298.1,338.4,300.5
919.2,887,17.8,17.5,98,13.85,86,8.2,298.0,338.4,300.5
918.6,892,17.8,17.4,98,13.76,86,8.1,298.0,338.2,300.5
918.1,897,17.7,17.3,97,13.63,86,8.1,298.1,337.8,300.5
917.5,902,17.7,17.2,97,13.55,86,8.0,298.1,337.6,300.5
917.0,907,17.7,17.1,96,13.53,85,8.0,298.1,337.6,300.6
916.4,912,17.7,17.1,97,13.53,85,7.9,298.2,337.7,300.6
915.9,917,17.6,17.1,97,13.56,85,7.8,298.2,337.7,300.6
915.3,923,17.6,17.1,97,13.56,85,7.7,298.2,337.8,300.6
914.8,928,17.5,17.1,97,13.53,85,7.7,298.2,337.7,300.6
914.2,933,17.5,17.0,97,13.48,85,7.6,298.2,337.5,300.6
913.6,939,17.5,17.0,97,13.42,85,7.5,298.2,337.4,300.6
913.0,944,17.4,16.9,97,13.38,84,7.4,298.2,337.3,300.6
912.4,950,17.4,16.9,97,13.36,84,7.4,298.3,337.3,300.7
911.9,955,17.4,16.8,97,13.35,84,7.3,298.3,337.2,300.6
911.3,961,17.3,16.8,97,13.32,84,7.3,298.3,337.2,300.7
910.7,966,17.3,16.7,97,13.29,84,7.2,298.3,337.1,300.7
910.1,971,17.2,16.7,97,13.25,84,7.2,298.3,337.0,300.7
909.6,977,17.2,16.6,96,13.21,84,7.2,298.3,336.9,300.7
909.0,982,17.2,16.6,96,13.16,84,7.1,298.4,336.8,300.7
908.5,987,17.2,16.5,96,13.14,84,7.1,298.4,336.8,300.7
908.0,992,17.1,16.5,96,13.14,83,7.1,298.4,336.8,300.7
907.4,997,17.1,16.5,97,13.14,83,7.1,298.4,336.8,300.7
906.9,1002,17.0,16.5,97,13.11,83,7.2,298.4,336.7,300.7
906.3,1007,17.0,16.4,96,13.07,83,7.2,298.4,336.6,300.7
905.8,1012,17.0,16.3,96,13.01,83,7.2,298.4,336.4,300.7
905.2,1018,16.9,16.3,96,12.96,83,7.2,298.4,336.3,300.8
904.6,1023,16.9,16.2,96,12.92,83,7.3,298.5,336.3,300.8
904.1,1029,16.9,16.2,96,12.90,83,7.3,298.5,336.2,300.8
903.5,1034,16.8,16.1,96,12.87,83,7.3,298.5,336.2,300.8
902.8,1040,16.8,16.1,95,12.82,83,7.4,298.5,336.1,300.8
902.2,1046,16.8,16.0,95,12.75,83,7.4,298.6,335.9,300.9
901.6,1052,16.8,15.9,94,12.68,83,7.4,298.6,335.7,300.9
901.0,1058,16.7,15.8,94,12.64,83,7.4,298.7,335.7,300.9
900.4,1064,16.7,15.8,94,12.63,83,7.4,298.7,335.7,301.0
899.8,1069,16.7,15.8,94,12.64,83,7.4,298.7,335.7,301.0
899.2,1075,16.7,15.8,95,12.65,83,7.4,298.7,335.8,301.0
898.6,1081,16.6,15.8,95,12.64,83,7.4,298.8,335.8,301.0
898.0,1086,16.6,15.7,95,12.62,83,7.4,298.8,335.7,301.0
897.4,1092,16.5,15.7,95,12.60,83,7.3,298.8,335.6,301.0
896.9,1097,16.5,15.6,95,12.56,83,7.3,298.8,335.6,301.0
896.3,1102,16.4,15.6,95,12.52,83,7.3,298.8,335.5,301.0
895.8,1108,16.4,15.5,94,12.47,83,7.2,298.8,335.4,301.1
895.2,1113,16.4,15.4,94,12.42,83,7.1,298.9,335.3,301.1
894.6,1118,16.4,15.4,94,12.40,83,7.0,298.9,335.2,301.1
894.1,1123,16.4,15.4,94,12.39,84,7.0,298.9,335.2,301.2
893.6,1129,16.3,15.4,94,12.37,84,6.9,298.9,335.2,301.2
893.0,1134,16.3,15.3,94,12.35,84,6.8,299.0,335.2,301.2
892.5,1139,16.3,15.3,94,12.32,84,6.7,299.0,335.1,301.2
892.0,1144,16.3,15.2,93,12.29,84,6.6,299.0,335.1,301.2
891.5,1149,16.3,15.2,93,12.26,84,6.5,299.1,335.1,301.3
890.9,1154,16.3,15.2,93,12.26,84,6.4,299.2,335.2,301.4
890.4,1159,16.3,15.2,93,12.27,84,6.3,299.2,335.2,301.4
889.9,1164,16.2,15.2,93,12.26,84,6.2,299.2,335.2,301.4
889.3,1169,16.2,15.1,93,12.25,84,6.1,299.2,335.2,301.4
888.8,1174,16.2,15.0,93,12.19,84,6.0,299.2,335.0,301.4
888.2,1179,16.1,14.9,92,12.07,84,6.0,299.2,334.7,301.4
887.7,1185,16.1,14.7,91,11.90,84,5.9,299.3,334.2,301.4
887.2,1190,16.1,14.5,90,11.79,84,5.8,299.4,334.0,301.5
886.7,1194,16.2,14.5,90,11.76,84,5.7,299.4,334.0,301.5
886.2,1199,16.1,14.5,90,11.78,84,5.7,299.4,334.1,301.6
885.7,1204,16.1,14.5,90,11.80,84,5.6,299.5,334.2,301.6
885.3,1208,16.1,14.5,90,11.81,84,5.6,299.5,334.2,301.6
884.8,1212,16.0,14.5,91,11.81,83,5.6,299.5,334.2,301.6
884.4,1217,16.0,14.5,90,11.79,83,5.6,299.5,334.2,301.6
883.9,1221,16.0,14.3,90,11.69,83,5.5,299.6,334.0,301.7
883.4,1226,16.1,14.1,88,11.52,83,5.5,299.6,333.6,301.7
883.0,1230,16.1,13.8,86,11.33,83,5.5,299.7,333.1,301.8
882.5,1235,16.1,13.7,85,11.22,83,5.5,299.8,332.9,301.8
882.1,1239,16.1,13.7,85,11.21,83,5.5,299.8,332.9,301.9
881.6,1243,16.1,13.7,86,11.26,83,5.6,299.9,333.1,301.9
881.1,1248,16.1,13.8,86,11.32,83,5.6,299.9,333.2,301.9
880.7,1252,16.0,13.8,87,11.36,83,5.6,299.9,333.4,301.9
880.2,1257,16.0,13.9,87,11.41,83,5.6,299.9,333.5,301.9
879.7,1262,15.9,13.9,88,11.43,83,5.7,299.9,333.6,301.9
879.2,1267,15.9,14.0,88,11.48,83,5.7,299.9,333.7,301.9
878.6,1272,15.8,14.0,89,11.55,83,5.8,299.9,333.9,301.9
878.1,1277,15.8,14.1,90,11.61,83,5.8,299.9,334.1,302.0
877.5,1283,15.7,14.1,90,11.63,83,5.8,299.9,334.1,302.0
877.0,1288,15.7,14.1,90,11.62,83,5.9,299.9,334.1,302.0
876.5,1293,15.6,14.1,91,11.61,83,5.9,299.9,334.1,301.9
875.9,1299,15.6,14.1,91,11.59,83,6.0,299.9,334.0,302.0
875.4,1304,15.5,14.1,91,11.63,83,6.0,299.9,334.1,302.0
874.8,1309,15.5,14.2,92,11.70,83,6.1,299.9,334.4,302.0
874.3,1314,15.5,14.2,92,11.74,83,6.1,299.9,334.5,302.0
873.8,1319,15.4,14.2,92,11.74,83,6.1,299.9,334.5,302.0
873.2,1324,15.4,14.2,92,11.73,84,6.2,299.9,334.5,302.1
872.7,1329,15.4,14.2,93,11.73,84,6.2,299.9,334.5,302.1
872.2,1334,15.3,14.2,93,11.73,84,6.2,300.0,334.5,302.1
871.7,1339,15.3,14.1,93,11.69,84,6.2,300.0,334.4,302.1
871.2,1344,15.2,14.0,92,11.63,84,6.2,300.0,334.3,302.1
870.8,1349,15.2,13.9,92,11.54,85,6.2,300.0,334.0,302.1
870.3,1353,15.3,13.8,91,11.47,85,6.2,300.1,333.9,302.1
869.8,1358,15.3,13.8,91,11.45,85,6.2,300.1,333.9,302.2
869.3,1363,15.3,13.7,91,11.42,85,6.2,300.2,333.9,302.2
868.9,1367,15.2,13.7,90,11.38,85,6.2,300.2,333.8,302.2
868.4,1372,15.2,13.6,90,11.35,86,6.1,300.2,333.7,302.3
867.9,1377,15.2,13.6,90,11.34,86,6.1,300.2,333.7,302.3
867.4,1382,15.1,13.6,90,11.35,86,6.1,300.2,333.7,302.3
866.9,1387,15.1,13.6,91,11.37,86,6.0,300.2,333.8,302.3
866.4,1392,15.0,13.6,91,11.38,86,5.9,300.2,333.9,302.3
865.8,1397,15.0,13.6,91,11.38,87,5.9,300.3,333.9,302.3
865.3,1402,15.0,13.6,91,11.35,87,5.8,300.3,333.8,302.3
864.8,1408,14.9,13.5,91,11.35,87,5.7,300.3,333.8,302.3
864.2,1413,14.9,13.5,92,11.34,87,5.7,300.3,333.8,302.3
863.6,1419,14.8,13.5,92,11.30,88,5.6,300.3,333.7,302.3
863.0,1425,14.8,13.4,91,11.26,88,5.5,300.3,333.6,302.3
862.4,1430,14.7,13.3,91,11.22,88,5.5,300.3,333.5,302.3
861.8,1436,14.7,13.2,91,11.13,88,5.4,300.3,333.2,302.3
861.2,1442,14.7,13.0,89,10.97,89,5.4,300.4,332.8,302.4
860.6,1448,14.7,12.7,87,10.75,89,5.3,300.5,332.3,302.4
860.1,1454,14.8,12.4,86,10.56,89,5.3,300.6,331.9,302.5
859.5,1459,14.8,12.2,85,10.46,89,5.2,300.6,331.6,302.5
858.9,1465,14.7,12.1,85,10.41,89,5.2,300.6,331.5,302.5
858.4,1470,14.7,12.1,84,10.36,90,5.2,300.7,331.4,302.5
857.9,1475,14.7,12.0,84,10.32,90,5.2,300.7,331.3,302.6
857.4,1480,14.6,11.9,84,10.27,90,5.2,300.7,331.2,302.6
856.9,1485,14.6,11.7,83,10.16,90,5.2,300.7,330.9,302.6
856.4,1490,14.6,11.5,82,10.03,90,5.2,300.8,330.5,302.6
855.9,1495,14.6,11.4,81,9.97,90,5.2,300.8,330.4,302.6
855.4,1500,14.6,11.5,82,10.05,90,5.2,300.9,330.7,302.7
854.9,1505,14.6,11.8,83,10.21,90,5.3,300.9,331.2,302.7
854.4,1510,14.5,11.9,85,10.33,90,5.3,300.9,331.5,302.7
853.9,1515,14.5,12.0,85,10.36,90,5.3,300.9,331.6,302.8
853.4,1519,14.4,12.1,86,10.48,90,5.4,300.9,331.9,302.8
852.9,1524,14.4,12.3,88,10.63,90,5.4,300.9,332.4,302.8
852.4,1530,14.3,12.4,89,10.70,90,5.4,300.9,332.6,302.8
851.9,1535,14.2,12.4,89,10.71,90,5.5,300.9,332.6,302.8
851.3,1540,14.2,12.5,90,10.77,90,5.5,300.9,332.8,302.8
850.8,1545,14.1,12.6,91,10.84,90,5.6,300.8,333.0,302.8
850.3,1551,14.1,12.6,91,10.86,89,5.6,300.8,333.0,302.8
850.0,1553,14.0,12.6,91,10.85,89,5.6,300.8,333.0,302.8
849.8,1556,14.0,12.6,91,10.84,89,5.6,300.8,332.9,302.8
849.2,1561,14.0,12.5,91,10.81,89,5.7,300.8,332.9,302.8
848.7,1567,13.9,12.5,91,10.83,89,5.7,300.8,332.9,302.8
848.1,1572,13.9,12.6,92,10.87,88,5.7,300.9,333.1,302.8
847.6,1577,13.9,12.6,92,10.89,88,5.7,300.9,333.2,302.9
847.0,1583,13.8,12.6,92,10.87,87,5.8,300.9,333.1,302.9
846.5,1589,13.8,12.5,92,10.83,87,5.8,300.9,333.0,302.9
845.9,1594,13.7,12.5,92,10.81,87,5.8,300.9,333.0,302.9
845.3,1600,13.7,12.5,92,10.81,86,5.8,300.9,333.0,302.9
844.8,1606,13.6,12.5,93,10.83,86,5.8,300.9,333.0,302.9
844.2,1611,13.6,12.5,93,10.84,85,5.8,300.9,333.1,302.9
843.7,1617,13.5,12.5,93,10.83,85,5.8,300.9,333.1,302.9
843.1,1622,13.5,12.4,93,10.83,84,5.8,301.0,333.1,302.9
842.5,1628,13.5,12.4,94,10.83,84,5.8,301.0,333.1,302.9
842.0,1634,13.4,12.4,94,10.84,83,5.8,301.0,333.1,303.0
841.4,1639,13.4,12.4,94,10.85,83,5.8,301.0,333.2,303.0
840.9,1645,13.3,12.5,94,10.86,82,5.8,301.0,333.2,303.0
840.3,1650,13.3,12.5,95,10.89,82,5.8,301.0,333.3,303.0
839.8,1656,13.3,12.5,95,10.89,81,5.8,301.0,333.3,303.0
839.2,1661,13.2,12.5,95,10.89,81,5.8,301.1,333.4,303.1
838.7,1666,13.2,12.4,95,10.89,80,5.9,301.1,333.4,303.1
838.2,1672,13.2,12.4,95,10.87,80,5.9,301.1,333.4,303.1
837.7,1677,13.1,12.4,95,10.86,80,5.9,301.1,333.3,303.1
837.2,1682,13.1,12.4,96,10.87,79,5.9,301.1,333.4,303.1
836.7,1687,13.1,12.4,96,10.89,79,5.9,301.2,333.5,303.1
836.2,1691,13.0,12.5,96,10.93,78,5.9,301.2,333.6,303.2
835.7,1696,13.0,12.5,97,10.98,78,5.9,301.2,333.8,303.2
835.3,1701,13.0,12.6,97,11.02,78,6.0,301.2,333.9,303.2
834.8,1706,12.9,12.5,98,11.01,78,6.0,301.2,333.9,303.2
834.3,1711,12.9,12.5,98,10.99,77,6.0,301.2,333.8,303.2
833.8,1716,12.8,12.5,98,10.97,77,6.0,301.2,333.8,303.2
833.3,1721,12.8,12.5,98,10.97,77,6.0,301.2,333.8,303.2
832.8,1726,12.7,12.4,98,10.96,76,6.1,301.2,333.8,303.2
832.4,1731,12.7,12.4,98,10.96,76,6.1,301.2,333.8,303.2
831.9,1735,12.7,12.4,98,10.95,76,6.1,301.3,333.8,303.2
831.4,1740,12.7,12.4,98,10.95,75,6.1,301.3,333.8,303.3
831.0,1745,12.7,12.4,98,10.95,75,6.1,301.3,333.8,303.3
830.5,1749,12.7,12.4,98,10.99,75,6.1,301.4,334.0,303.4
830.0,1754,12.7,12.5,99,11.01,75,6.2,301.4,334.1,303.4
829.6,1759,12.7,12.5,99,11.01,74,6.2,301.5,334.2,303.5
829.1,1764,12.6,12.4,99,11.01,74,6.2,301.5,334.2,303.5
828.6,1769,12.6,12.5,99,11.03,74,6.2,301.5,334.3,303.5
828.1,1774,12.6,12.4,99,11.01,73,6.3,301.5,334.3,303.5
827.6,1779,12.5,12.4,99,10.98,73,6.3,301.6,334.2,303.6
827.1,1784,12.5,12.3,99,10.96,73,6.3,301.6,334.1,303.6
826.6,1788,12.5,12.3,99,10.95,73,6.3,301.6,334.1,303.6
826.2,1793,12.5,12.3,99,10.94,72,6.4,301.6,334.1,303.6
825.7,1798,12.5,12.3,99,10.93,72,6.4,301.7,334.2,303.7
825.2,1804,12.5,12.2,98,10.91,72,6.4,301.7,334.2,303.7
824.6,1809,12.4,12.2,98,10.91,72,6.5,301.8,334.2,303.7
824.1,1815,12.4,12.2,99,10.91,72,6.5,301.8,334.2,303.8
823.5,1821,12.4,12.2,99,10.89,72,6.6,301.8,334.2,303.8
822.9,1827,12.3,12.1,99,10.88,71,6.6,301.8,334.2,303.8
822.3,1833,12.3,12.1,99,10.86,71,6.7,301.8,334.1,303.8
821.7,1839,12.2,12.0,99,10.82,71,6.7,301.8,334.0,303.8
821.1,1845,12.2,12.0,99,10.79,71,6.8,301.9,334.0,303.8
820.5,1851,12.2,12.0,99,10.78,71,6.8,301.9,334.0,303.9
820.0,1856,12.1,12.0,99,10.78,71,6.9,301.9,334.0,303.9
819.5,1862,12.1,11.9,99,10.78,71,7.0,301.9,334.0,303.9
819.0,1867,12.1,11.9,99,10.76,71,7.0,302.0,334.0,303.9
818.5,1872,12.0,11.9,99,10.73,71,7.1,302.0,333.9,303.9
818.0,1877,12.0,11.9,99,10.73,71,7.1,302.0,334.0,304.0
817.6,1881,12.0,11.9,99,10.75,71,7.2,302.1,334.1,304.0
817.1,1886,12.0,11.9,99,10.75,71,7.2,302.1,334.1,304.1
816.7,1890,12.0,11.8,99,10.73,71,7.3,302.1,334.1,304.1
816.2,1895,12.0,11.8,99,10.72,71,7.3,302.2,334.1,304.1
815.8,1900,11.9,11.8,99,10.73,71,7.4,302.2,334.2,304.1
815.3,1905,11.9,11.8,99,10.74,71,7.5,302.2,334.2,304.1
814.8,1910,11.9,11.8,99,10.74,71,7.5,302.2,334.2,304.2
814.3,1915,11.9,11.7,99,10.70,71,7.6,302.3,334.1,304.2
