PRES,HGHT,TEMP,DWPT,RELH,MIXR,DRCT,SPED,THTA,THTE,THTV
1012.0,31,23.4,19.8,80,14.49,81,5.3,295.5,337.3,298.1
1011.4,36,23.6,19.7,79,14.46,82,4.3,295.8,337.6,298.4
1010.8,41,23.7,19.7,78,14.43,83,4.3,296.0,337.7,298.5
1010.1,47,23.7,19.6,78,14.38,84,4.5,296.0,337.6,298.6
1009.6,51,23.7,19.5,77,14.25,84,4.7,296.0,337.2,298.5
1009.1,56,23.7,19.3,76,14.09,85,5.0,296.1,336.8,298.6
1008.5,61,23.7,19.1,75,13.94,85,5.3,296.2,336.5,298.6
1008.0,66,23.7,19.0,75,13.89,85,5.6,296.2,336.4,298.7
1007.4,70,23.7,19.0,75,13.90,86,5.8,296.2,336.4,298.7
1006.9,75,23.7,19.1,76,13.94,86,6.0,296.2,336.6,298.7
1006.3,80,23.6,19.1,76,13.96,87,6.2,296.2,336.7,298.7
1005.8,85,23.6,19.1,76,13.96,87,6.4,296.2,336.6,298.7
1005.2,90,23.5,19.1,76,13.94,88,6.6,296.2,336.6,298.7
1004.6,95,23.5,19.0,76,13.89,88,6.7,296.2,336.4,298.7
1004.0,100,23.4,18.9,76,13.85,89,6.9,296.2,336.3,298.7
1003.4,106,23.4,18.9,76,13.83,89,7.0,296.2,336.3,298.7
1002.7,111,23.3,18.9,76,13.86,90,7.1,296.3,336.4,298.7
1002.1,116,23.3,19.0,77,13.92,90,7.1,296.3,336.5,298.7
1001.5,121,23.2,19.1,77,13.99,91,7.2,296.3,336.7,298.7
1000.9,127,23.2,19.1,78,14.01,91,7.2,296.2,336.8,298.7
1000.3,132,23.1,19.0,78,13.94,92,7.3,296.2,336.6,298.7
1000.0,135,23.1,19.0,77,13.92,92,7.3,296.2,336.5,298.7
999.7,138,23.1,18.9,77,13.90,92,7.3,296.2,336.5,298.7
999.1,143,23.0,18.9,78,13.90,92,7.3,296.2,336.5,298.7
998.4,149,23.0,18.9,78,13.89,93,7.2,296.2,336.5,298.7
997.8,154,22.9,18.9,78,13.89,93,7.2,296.2,336.4,298.7
997.1,160,22.9,18.9,78,13.87,93,7.2,296.2,336.4,298.7
996.5,166,22.8,18.8,78,13.82,94,7.1,296.2,336.2,298.7
995.9,171,22.8,18.7,78,13.76,94,7.1,296.2,336.1,298.7
995.2,177,22.7,18.7,78,13.74,94,7.0,296.3,336.1,298.7
994.6,182,22.7,18.7,78,13.77,94,6.9,296.3,336.1,298.7
994.0,188,22.6,18.7,79,13.81,94,6.9,296.3,336.3,298.7
993.3,193,22.5,18.7,79,13.83,94,6.8,296.3,336.3,298.7
992.7,199,22.5,18.8,79,13.85,93,6.7,296.2,336.3,298.7
992.1,204,22.4,18.8,80,13.87,93,6.6,296.3,336.4,298.7
991.5,210,22.4,18.8,80,13.88,93,6.5,296.3,336.4,298.7
990.9,215,22.3,18.7,80,13.86,92,6.4,296.2,336.4,298.7
990.3,220,22.3,18.7,80,13.86,92,6.3,296.2,336.4,298.7
989.7,225,22.2,18.7,81,13.88,91,6.2,296.3,336.4,298.7
989.1,230,22.2,18.8,81,13.91,91,6.2,296.3,336.5,298.7
988.5,236,22.1,18.8,81,13.91,90,6.1,296.3,336.5,298.7
987.9,241,22.1,18.7,81,13.87,89,6.0,296.3,336.4,298.7
987.3,246,22.1,18.6,81,13.80,89,5.9,296.3,336.2,298.7
986.7,252,22.0,18.5,81,13.72,88,5.8,296.3,336.0,298.7
986.1,257,22.0,18.5,81,13.68,87,5.8,296.3,335.9,298.7
985.5,262,21.9,18.4,81,13.68,86,5.7,296.3,335.9,298.7
985.0,267,21.9,18.5,81,13.71,85,5.7,296.3,336.0,298.7
984.4,272,21.8,18.5,81,13.74,84,5.6,296.3,336.1,298.7
983.9,277,21.8,18.5,82,13.73,84,5.6,296.3,336.0,298.7
983.3,282,21.7,18.4,82,13.71,83,5.6,296.3,336.0,298.7
982.8,286,21.7,18.4,82,13.71,82,5.5,296.3,336.0,298.7
982.2,291,21.6,18.4,82,13.71,82,5.5,296.3,336.0,298.7
981.7,296,21.6,18.4,82,13.69,81,5.5,296.3,335.9,298.7
981.1,301,21.5,18.3,82,13.65,81,5.5,296.3,335.8,298.7
980.5,307,21.5,18.3,82,13.65,81,5.4,296.3,335.8,298.7
979.9,312,21.4,18.4,83,13.68,80,5.4,296.3,335.9,298.7
979.4,317,21.4,18.4,83,13.72,80,5.4,296.3,336.0,298.7
978.8,322,21.3,18.4,84,13.77,80,5.4,296.3,336.1,298.7
978.2,327,21.3,18.5,84,13.82,81,5.4,296.3,336.3,298.7
977.6,332,21.2,18.5,85,13.86,81,5.4,296.3,336.4,298.7
977.0,338,21.2,18.5,85,13.85,81,5.4,296.3,336.4,298.7
976.5,343,21.1,18.4,85,13.80,82,5.3,296.3,336.2,298.7
975.9,348,21.1,18.4,84,13.73,82,5.3,296.3,336.0,298.7
975.4,352,21.1,18.3,84,13.70,83,5.3,296.3,336.0,298.7
974.8,357,21.0,18.3,84,13.69,83,5.3,296.3,335.9,298.7
974.3,362,21.0,18.2,84,13.66,84,5.2,296.3,335.9,298.7
973.7,367,20.9,18.2,84,13.63,84,5.2,296.3,335.8,298.8
973.2,372,20.9,18.2,85,13.64,85,5.2,296.3,335.8,298.8
972.7,376,20.8,18.2,85,13.67,86,5.1,296.3,335.9,298.7
972.1,381,20.8,18.3,86,13.72,87,5.1,296.3,336.0,298.7
971.6,386,20.7,18.3,86,13.74,87,5.0,296.3,336.1,298.7
971.0,391,20.7,18.3,86,13.73,88,5.0,296.3,336.1,298.7
970.4,396,20.6,18.2,86,13.72,88,4.9,296.3,336.0,298.7
969.9,401,20.6,18.2,86,13.66,89,4.8,296.3,335.9,298.7
969.3,406,20.5,18.1,86,13.57,89,4.8,296.3,335.6,298.7
968.7,412,20.5,18.0,85,13.49,90,4.7,296.3,335.4,298.7
968.2,417,20.5,17.9,85,13.44,90,4.6,296.4,335.3,298.8
967.6,422,20.5,17.9,85,13.45,90,4.5,296.4,335.4,298.8
967.1,426,20.4,17.9,86,13.46,90,4.4,296.4,335.4,298.8
966.5,431,20.4,17.9,86,13.46,90,4.4,296.4,335.4,298.8
966.0,436,20.3,17.9,86,13.47,90,4.3,296.4,335.4,298.8
965.5,441,20.3,17.9,86,13.49,90,4.2,296.4,335.4,298.8
964.9,445,20.2,17.9,86,13.48,90,4.1,296.4,335.4,298.8
964.4,450,20.2,17.8,86,13.45,89,4.1,296.4,335.4,298.8
963.9,455,20.2,17.8,86,13.43,89,4.0,296.4,335.3,298.8
963.3,460,20.1,17.8,87,13.42,88,3.9,296.4,335.3,298.8
962.8,465,20.1,17.7,87,13.38,87,3.9,296.4,335.2,298.8
962.3,470,20.0,17.7,86,13.34,87,3.8,296.4,335.0,298.8
961.8,474,20.0,17.6,86,13.31,86,3.7,296.4,335.0,298.8
961.2,479,19.9,17.6,87,13.33,85,3.7,296.4,335.0,298.8
960.7,483,19.9,17.7,87,13.35,84,3.7,296.4,335.1,298.8
960.2,488,19.8,17.7,87,13.37,83,3.6,296.4,335.1,298.8
959.7,492,19.8,17.7,88,13.36,83,3.6,296.4,335.1,298.8
959.2,497,19.8,17.7,88,13.36,82,3.6,296.4,335.1,298.8
958.7,502,19.7,17.7,88,13.38,81,3.6,296.4,335.2,298.8
958.1,507,19.7,17.7,88,13.40,80,3.6,296.4,335.2,298.8
957.5,512,19.6,17.6,88,13.38,80,3.6,296.4,335.2,298.8
956.9,517,19.6,17.6,88,13.34,79,3.5,296.4,335.1,298.8
956.4,523,19.5,17.6,88,13.33,79,3.5,296.4,335.0,298.8
955.8,528,19.5,17.6,89,13.33,78,3.5,296.4,335.0,298.8
955.2,533,19.4,17.5,89,13.32,78,3.6,296.4,335.0,298.8
954.7,538,19.4,17.5,89,13.29,78,3.6,296.4,334.9,298.8
954.2,542,19.3,17.5,89,13.27,78,3.6,296.4,334.9,298.8
953.6,547,19.3,17.5,89,13.27,78,3.6,296.4,334.9,298.8
953.1,552,19.3,17.4,89,13.27,78,3.6,296.4,334.9,298.8
952.6,556,19.2,17.4,89,13.26,78,3.6,296.4,334.9,298.8
952.1,561,19.2,17.4,90,13.27,78,3.6,296.4,334.9,298.8
951.6,566,19.1,17.4,90,13.28,78,3.5,296.4,334.9,298.8
951.1,571,19.1,17.4,90,13.28,78,3.5,296.4,334.9,298.8
950.5,575,19.0,17.4,90,13.27,78,3.5,296.4,334.9,298.8
950.0,580,19.0,17.4,90,13.25,79,3.5,296.4,334.8,298.8
949.5,585,18.9,17.4,91,13.24,79,3.5,296.4,334.8,298.8
948.9,590,18.9,17.4,91,13.25,79,3.4,296.4,334.9,298.8
948.4,595,18.8,17.4,91,13.27,79,3.4,296.4,334.9,298.8
947.9,600,18.8,17.4,91,13.27,79,3.4,296.4,334.9,298.8
947.3,605,18.7,17.3,92,13.26,79,3.3,296.4,334.9,298.8
946.8,610,18.7,17.3,92,13.26,79,3.3,296.4,334.8,298.8
946.2,615,18.7,17.3,92,13.27,80,3.3,296.4,334.9,298.8
945.7,619,18.6,17.3,92,13.27,80,3.2,296.5,334.9,298.8
945.2,624,18.6,17.3,92,13.28,79,3.2,296.5,334.9,298.8
944.6,629,18.5,17.3,93,13.28,79,3.1,296.5,334.9,298.8
944.1,634,18.5,17.3,93,13.28,79,3.1,296.5,334.9,298.8
943.5,639,18.4,17.3,93,13.26,79,3.0,296.5,334.9,298.8
943.0,644,18.4,17.2,93,13.23,78,3.0,296.5,334.8,298.8
942.4,649,18.3,17.2,93,13.23,78,2.9,296.5,334.8,298.8
941.8,655,18.3,17.2,93,13.23,77,2.9,296.5,334.8,298.8
941.2,660,18.2,17.2,94,13.25,77,2.9,296.5,334.9,298.8
940.7,665,18.2,17.2,94,13.26,76,2.8,296.5,334.9,298.8
940.1,670,18.1,17.2,94,13.27,75,2.8,296.5,334.9,298.8
939.6,675,18.1,17.2,95,13.27,75,2.8,296.5,334.9,298.8
939.1,680,18.0,17.2,95,13.27,74,2.7,296.5,334.9,298.8
938.6,685,18.0,17.2,95,13.25,73,2.7,296.4,334.9,298.8
938.1,689,17.9,17.1,95,13.20,72,2.7,296.5,334.7,298.8
937.6,694,17.9,17.0,95,13.13,72,2.7,296.5,334.5,298.8
937.1,698,17.9,16.9,94,13.07,71,2.6,296.5,334.4,298.8
936.6,703,17.9,16.9,94,13.03,70,2.6,296.5,334.3,298.8
936.0,708,17.8,16.9,94,13.02,70,2.6,296.5,334.3,298.9
935.5,712,17.8,16.8,94,12.99,69,2.6,296.6,334.2,298.9
935.0,717,17.8,16.8,94,12.98,68,2.5,296.6,334.2,298.9
934.5,722,17.7,16.8,94,12.98,68,2.5,296.6,334.2,298.9
933.9,727,17.7,16.8,95,13.00,67,2.5,296.6,334.3,298.9
933.4,732,17.7,16.8,95,13.00,67,2.4,296.6,334.3,298.9
932.8,737,17.6,16.8,95,12.98,67,2.4,296.6,334.2,298.9
932.2,743,17.6,16.7,95,12.96,66,2.4,296.6,334.2,298.9
931.6,748,17.5,16.7,95,12.96,66,2.3,296.6,334.2,298.9
931.0,754,17.5,16.7,95,12.97,66,2.3,296.6,334.2,298.9
930.3,760,17.4,16.7,96,12.99,65,2.2,296.6,334.3,298.9
929.6,767,17.3,16.7,96,12.98,65,2.1,296.6,334.3,298.9
928.9,773,17.3,16.7,96,12.95,64,2.1,296.6,334.2,298.9
928.3,779,17.2,16.6,96,12.88,64,2.0,296.6,333.9,298.9
927.6,785,17.2,16.4,95,12.78,63,1.9,296.6,333.7,298.9
927.0,791,17.1,16.3,95,12.69,63,1.8,296.6,333.5,298.9
926.3,797,17.1,16.2,95,12.64,62,1.8,296.7,333.4,298.9
925.7,803,17.1,16.2,95,12.64,61,1.7,296.7,333.4,298.9
925.1,808,17.0,16.3,95,12.68,60,1.6,296.7,333.5,299.0
925.0,809,17.0,16.3,95,12.69,59,1.5,296.7,333.5,299.0
924.5,814,17.0,16.3,96,12.74,59,1.5,296.7,333.7,299.0
923.9,819,16.9,16.4,97,12.78,58,1.5,296.7,333.8,299.0
923.4,824,16.9,16.4,97,12.81,56,1.4,296.7,333.9,299.0
922.8,830,16.8,16.4,98,12.84,54,1.3,296.7,333.9,299.0
922.3,835,16.8,16.5,98,12.87,52,1.3,296.7,334.0,299.0
921.8,839,16.7,16.5,99,12.92,49,1.2,296.7,334.2,299.0
921.3,844,16.6,16.5,99,12.96,46,1.2,296.7,334.3,299.0
920.8,849,16.6,16.5,100,12.96,43,1.1,296.7,334.3,299.0
920.3,853,16.6,16.5,99,12.92,40,1.1,296.7,334.2,299.0
919.8,858,16.5,16.4,99,12.89,36,1.1,296.7,334.1,299.0
919.3,862,16.5,16.4,100,12.89,33,1.1,296.7,334.1,299.0
918.8,867,16.4,16.4,100,12.89,30,1.1,296.7,334.1,299.0
918.3,871,16.4,16.3,100,12.84,27,1.1,296.7,333.9,299.0
917.8,876,16.4,16.3,99,12.78,24,1.1,296.7,333.8,299.0
917.3,881,16.3,16.2,99,12.72,21,1.1,296.7,333.6,299.0
916.7,886,16.3,16.1,99,12.69,19,1.1,296.7,333.6,299.0
916.2,891,16.3,16.1,99,12.68,17,1.2,296.7,333.5,299.0
915.7,896,16.2,16.1,99,12.67,15,1.2,296.7,333.5,299.0
915.2,901,16.2,16.1,99,12.65,14,1.2,296.7,333.4,299.0
914.7,905,16.1,16.0,99,12.61,12,1.3,296.8,333.4,299.0
914.2,910,16.1,16.0,99,12.60,11,1.3,296.8,333.4,299.0
913.7,914,16.1,16.0,99,12.59,11,1.3,296.8,333.4,299.0
913.2,919,16.1,16.0,99,12.60,10,1.3,296.8,333.4,299.1
912.7,923,16.1,16.0,100,12.62,9,1.4,296.8,333.5,299.1
912.2,928,16.0,16.0,100,12.63,9,1.4,296.9,333.6,299.1
911.8,932,16.0,16.0,100,12.65,8,1.4,296.9,333.6,299.2
911.3,937,16.0,16.0,100,12.63,7,1.4,296.9,333.6,299.2
910.7,942,16.0,15.9,100,12.61,7,1.4,297.0,333.6,299.2
910.2,947,15.9,15.9,100,12.58,6,1.4,297.0,333.5,299.2
909.7,952,15.9,15.8,100,12.54,5,1.4,297.0,333.4,299.2
909.2,957,15.9,15.8,99,12.49,5,1.4,297.0,333.3,299.2
908.7,961,15.8,15.7,99,12.47,4,1.4,297.0,333.2,299.2
908.1,966,15.8,15.7,99,12.43,3,1.4,297.0,333.1,299.2
907.6,971,15.7,15.6,99,12.39,2,1.4,297.0,333.0,299.2
907.1,976,15.7,15.6,99,12.40,360,1.3,297.0,333.1,299.2
906.6,981,15.7,15.6,100,12.42,359,1.3,297.0,333.1,299.2
906.1,986,15.6,15.6,100,12.41,357,1.3,297.0,333.1,299.3
905.5,991,15.6,15.6,100,12.41,356,1.2,297.1,333.2,299.3
905.0,996,15.6,15.5,100,12.37,354,1.2,297.1,333.1,299.3
904.4,1002,15.5,15.5,99,12.31,352,1.2,297.1,332.9,299.3
903.8,1007,15.5,15.4,99,12.25,349,1.2,297.1,332.7,299.3
903.2,1013,15.5,15.3,99,12.21,347,1.1,297.1,332.6,299.3
902.6,1019,15.4,15.3,99,12.21,344,1.1,297.1,332.7,299.3
902.0,1024,15.4,15.3,99,12.21,341,1.1,297.1,332.7,299.3
901.4,1030,15.3,15.2,99,12.17,339,1.1,297.2,332.6,299.3
900.8,1036,15.3,15.2,99,12.13,336,1.1,297.2,332.5,299.3
900.2,1041,15.2,15.1,99,12.10,333,1.1,297.2,332.4,299.3
899.7,1046,15.2,15.1,99,12.09,331,1.1,297.2,332.4,299.4
899.1,1051,15.2,15.1,99,12.09,328,1.1,297.2,332.4,299.4
898.6,1056,15.2,15.1,100,12.09,326,1.1,297.2,332.4,299.4
898.1,1061,15.1,15.1,100,12.11,324,1.2,297.3,332.5,299.4
897.6,1066,15.1,15.1,100,12.12,323,1.2,297.3,332.6,299.4
897.0,1071,15.1,15.1,100,12.10,322,1.2,297.3,332.5,299.5
896.5,1076,15.1,15.1,100,12.11,321,1.3,297.4,332.6,299.5
896.0,1081,15.1,15.1,100,12.12,321,1.3,297.4,332.7,299.6
895.4,1086,15.1,15.0,100,12.09,320,1.4,297.5,332.7,299.6
894.9,1091,15.0,14.9,100,12.02,320,1.4,297.4,332.5,299.6
894.4,1096,15.0,14.9,99,11.96,320,1.5,297.4,332.3,299.6
893.8,1101,14.9,14.8,99,11.93,321,1.5,297.5,332.2,299.6
893.3,1106,14.9,14.8,99,11.91,321,1.6,297.5,332.2,299.6
892.7,1112,14.8,14.7,99,11.88,322,1.7,297.5,332.1,299.6
892.2,1117,14.8,14.7,99,11.88,322,1.7,297.5,332.1,299.6
891.6,1122,14.8,14.7,100,11.90,323,1.8,297.5,332.2,299.7
891.1,1128,14.8,14.7,100,11.90,324,1.9,297.6,332.3,299.7
890.5,1133,14.7,14.7,100,11.86,325,1.9,297.6,332.1,299.7
890.0,1138,14.7,14.6,100,11.81,325,2.0,297.5,332.0,299.7
889.4,1143,14.6,14.6,100,11.82,326,2.0,297.6,332.0,299.7
888.9,1148,14.6,14.6,100,11.86,327,2.0,297.6,332.2,299.8
888.3,1154,14.6,14.6,100,11.87,328,2.1,297.7,332.3,299.8
887.8,1159,14.6,14.6,100,11.86,329,2.1,297.7,332.3,299.8
887.2,1165,14.6,14.6,100,11.85,330,2.1,297.7,332.3,299.9
886.6,1170,14.6,14.6,100,11.84,332,2.1,297.8,332.3,299.9
886.0,1176,14.5,14.5,100,11.82,333,2.1,297.8,332.3,299.9
885.4,1182,14.5,14.5,100,11.80,334,2.1,297.8,332.3,299.9
884.8,1188,14.5,14.5,100,11.79,335,2.1,297.8,332.3,300.0
884.2,1194,14.4,14.4,100,11.76,337,2.1,297.9,332.2,300.0
883.6,1199,14.4,14.4,100,11.73,339,2.0,297.9,332.1,300.0
883.0,1205,14.4,14.3,100,11.70,340,2.0,297.9,332.1,300.0
882.4,1211,14.3,14.3,100,11.68,342,2.0,298.0,332.1,300.0
881.8,1216,14.3,14.3,100,11.67,345,1.9,298.0,332.1,300.1
881.2,1222,14.3,14.2,100,11.67,347,1.8,298.0,332.1,300.1
880.6,1228,14.2,14.2,100,11.67,350,1.8,298.0,332.1,300.1
880.0,1233,14.2,14.2,100,11.67,352,1.7,298.1,332.2,300.1
879.4,1239,14.2,14.2,100,11.66,355,1.6,298.1,332.2,300.2
878.8,1245,14.2,14.2,100,11.64,359,1.6,298.1,332.2,300.2
878.2,1251,14.1,14.1,100,11.62,2,1.5,298.1,332.1,300.2
877.6,1257,14.1,14.1,100,11.61,6,1.5,298.2,332.2,300.3
877.0,1263,14.1,14.1,100,11.61,11,1.4,298.2,332.2,300.3
876.4,1269,14.1,14.1,100,11.60,15,1.4,298.3,332.2,300.3
875.8,1274,14.1,14.1,100,11.61,20,1.3,298.3,332.3,300.4
875.2,1280,14.1,14.1,100,11.62,25,1.3,298.4,332.4,300.5
874.7,1285,14.0,14.0,100,11.58,30,1.2,298.4,332.3,300.4
874.1,1290,14.0,14.0,100,11.54,35,1.2,298.4,332.1,300.4
873.6,1295,13.9,13.9,100,11.52,41,1.2,298.4,332.1,300.4
873.1,1300,13.9,13.9,100,11.53,46,1.2,298.4,332.2,300.5
872.6,1305,14.0,14.0,100,11.57,51,1.2,298.5,332.4,300.6
872.0,1311,14.0,14.0,100,11.58,57,1.2,298.6,332.5,300.6
871.5,1316,14.0,14.0,100,11.57,62,1.2,298.6,332.5,300.7
871.0,1321,13.9,13.9,100,11.51,66,1.2,298.6,332.3,300.6
870.4,1326,13.7,13.7,100,11.38,71,1.2,298.5,331.8,300.5
869.9,1331,13.6,13.4,98,11.15,75,1.2,298.4,331.1,300.4
869.4,1336,13.5,12.8,95,10.72,79,1.2,298.3,329.8,300.3
868.9,1342,13.4,11.8,90,10.07,82,1.2,298.3,327.9,300.1
868.4,1346,13.4,11.0,86,9.56,85,1.3,298.3,326.4,300.0
867.9,1351,13.4,10.8,84,9.43,88,1.3,298.4,326.1,300.1
867.4,1356,13.4,10.9,85,9.47,90,1.3,298.4,326.3,300.1
866.9,1361,13.4,10.8,84,9.45,92,1.3,298.5,326.3,300.2
866.4,1365,13.4,10.7,83,9.35,93,1.4,298.6,326.1,300.2
865.9,1370,13.4,10.5,83,9.26,94,1.4,298.6,325.8,300.2
865.5,1374,13.4,10.4,82,9.21,95,1.4,298.6,325.7,300.2
865.1,1378,13.4,10.4,82,9.19,95,1.4,298.6,325.7,300.3
864.6,1383,13.4,10.3,82,9.15,95,1.5,298.7,325.7,300.3
864.2,1387,13.4,10.2,81,9.09,94,1.5,298.7,325.6,300.4
863.8,1391,13.4,10.2,81,9.06,93,1.5,298.8,325.5,300.4
863.3,1396,13.4,10.1,80,9.04,92,1.5,298.9,325.6,300.5
862.8,1400,13.5,10.0,80,8.99,91,1.5,299.0,325.6,300.6
862.4,1405,13.6,9.9,79,8.94,89,1.6,299.1,325.5,300.7
861.9,1410,13.7,9.8,77,8.87,87,1.6,299.3,325.5,300.9
861.3,1415,13.8,9.7,76,8.80,85,1.6,299.4,325.5,301.0
860.8,1420,13.8,9.5,75,8.71,82,1.7,299.5,325.3,301.1
860.3,1425,13.9,9.4,75,8.66,80,1.7,299.6,325.3,301.2
859.8,1430,13.9,9.4,74,8.64,78,1.8,299.8,325.4,301.3
859.2,1435,14.0,9.3,73,8.61,75,1.8,299.9,325.5,301.5
858.7,1440,14.1,9.3,73,8.59,73,1.9,300.0,325.6,301.6
858.2,1445,14.2,9.2,72,8.56,71,1.9,300.2,325.6,301.7
857.8,1450,14.3,9.2,71,8.52,69,2.0,300.3,325.7,301.9
857.3,1455,14.4,9.1,71,8.51,67,2.1,300.5,325.8,302.0
856.8,1460,14.5,9.1,70,8.52,65,2.1,300.6,326.0,302.2
856.3,1464,14.6,9.2,70,8.55,64,2.2,300.7,326.2,302.3
855.8,1469,14.6,9.2,70,8.57,62,2.3,300.8,326.4,302.4
855.4,1474,14.6,9.2,70,8.60,61,2.4,300.9,326.5,302.4
854.9,1479,14.6,9.3,70,8.61,60,2.4,300.9,326.6,302.5
854.4,1484,14.6,9.2,70,8.59,59,2.5,300.9,326.6,302.5
853.9,1489,14.5,9.2,70,8.58,58,2.5,300.9,326.5,302.5
853.3,1494,14.5,9.2,71,8.60,57,2.6,301.0,326.6,302.5
852.8,1499,14.4,9.3,71,8.68,56,2.6,301.0,326.9,302.5
852.3,1504,14.4,9.4,72,8.75,55,2.7,301.0,327.1,302.6
851.8,1510,14.3,9.5,73,8.79,54,2.7,301.0,327.2,302.6
851.2,1515,14.3,9.6,73,8.82,54,2.7,301.0,327.3,302.6
850.7,1520,14.2,9.6,73,8.83,53,2.7,301.0,327.3,302.6
850.2,1525,14.2,9.5,74,8.82,52,2.7,301.0,327.3,302.6
850.0,1527,14.2,9.5,74,8.82,51,2.7,301.0,327.3,302.6
849.7,1530,14.1,9.5,74,8.82,51,2.7,301.0,327.3,302.6
849.2,1535,14.1,9.5,74,8.83,50,2.7,301.0,327.3,302.6
848.8,1539,14.1,9.6,74,8.87,50,2.7,301.0,327.4,302.6
848.3,1544,14.0,9.7,75,8.91,49,2.6,301.0,327.6,302.6
847.8,1548,14.0,9.7,75,8.95,48,2.6,301.0,327.7,302.6
847.4,1553,14.0,9.7,76,8.97,47,2.5,301.0,327.8,302.7
846.9,1558,14.0,9.7,76,8.98,46,2.5,301.1,327.8,302.7
846.4,1563,13.9,9.8,76,9.00,45,2.4,301.1,327.9,302.7
845.9,1568,13.9,9.7,76,8.98,43,2.3,301.1,327.9,302.7
845.4,1573,13.8,9.6,76,8.93,42,2.3,301.1,327.7,302.7
844.9,1578,13.8,9.5,75,8.86,41,2.2,301.1,327.5,302.7
844.4,1583,13.8,9.4,75,8.80,40,2.1,301.2,327.4,302.8
843.9,1588,13.8,9.3,74,8.77,38,2.1,301.2,327.4,302.8
843.3,1593,13.8,9.3,75,8.77,37,2.0,301.2,327.4,302.8
842.8,1599,13.7,9.4,75,8.80,36,1.9,301.3,327.5,302.9
842.3,1604,13.7,9.4,75,8.83,34,1.9,301.3,327.6,302.9
841.7,1610,13.7,9.4,76,8.85,33,1.8,301.3,327.7,302.9
841.2,1615,13.6,9.4,76,8.84,32,1.8,301.3,327.7,302.9
840.6,1621,13.6,9.4,76,8.83,31,1.7,301.3,327.6,302.9
840.1,1626,13.5,9.4,76,8.82,30,1.7,301.3,327.6,302.9
839.5,1632,13.5,9.4,76,8.83,29,1.7,301.3,327.7,302.9
839.0,1637,13.4,9.4,76,8.83,28,1.7,301.3,327.7,302.9
838.5,1642,13.4,9.4,76,8.84,28,1.6,301.3,327.7,302.9
838.0,1647,13.4,9.3,77,8.83,28,1.6,301.3,327.7,303.0
837.5,1652,13.3,9.3,77,8.81,28,1.7,301.4,327.7,303.0
837.0,1657,13.3,9.3,77,8.80,28,1.7,301.4,327.7,303.0
836.5,1662,13.3,9.3,77,8.80,28,1.7,301.4,327.7,303.0
836.0,1667,13.2,9.2,77,8.80,29,1.7,301.4,327.7,303.0
835.5,1672,13.2,9.2,77,8.80,29,1.7,301.4,327.7,303.0
835.0,1677,13.2,9.2,77,8.78,30,1.8,301.4,327.7,303.0
834.5,1682,13.1,9.1,77,8.75,31,1.8,301.5,327.6,303.0
834.0,1687,13.1,9.1,77,8.71,32,1.8,301.5,327.5,303.0
833.5,1692,13.0,8.9,76,8.65,33,1.9,301.5,327.3,303.0
833.0,1697,13.0,8.9,76,8.61,34,1.9,301.5,327.2,303.1
832.5,1703,13.0,8.9,76,8.63,34,2.0,301.5,327.3,303.1
832.0,1708,12.9,9.0,77,8.68,35,2.0,301.5,327.5,303.1
831.5,1713,12.9,9.0,77,8.72,36,2.1,301.5,327.6,303.1
830.9,1718,12.8,9.1,78,8.75,37,2.1,301.5,327.7,303.1
830.4,1724,12.8,9.2,79,8.81,38,2.2,301.5,327.9,303.1
829.9,1729,12.7,9.3,80,8.91,39,2.2,301.5,328.1,303.1
829.3,1735,12.7,9.5,81,9.02,39,2.2,301.5,328.4,303.2
828.8,1740,12.6,9.6,82,9.10,40,2.3,301.5,328.7,303.2
828.3,1745,12.6,9.7,83,9.15,41,2.3,301.5,328.8,303.2
827.7,1751,12.5,9.8,83,9.22,41,2.4,301.5,329.0,303.2
827.2,1756,12.5,9.9,84,9.28,42,2.4,301.5,329.2,303.2
826.7,1761,12.4,9.9,84,9.30,42,2.4,301.5,329.3,303.2
826.2,1766,12.4,9.8,84,9.26,42,2.5,301.6,329.2,303.3
825.7,1772,12.4,9.8,84,9.23,42,2.5,301.6,329.2,303.3
825.2,1777,12.4,9.7,84,9.22,43,2.5,301.6,329.2,303.3
824.7,1782,12.3,9.8,84,9.25,43,2.5,301.7,329.3,303.3
824.2,1787,12.3,9.8,85,9.28,43,2.6,301.7,329.4,303.4
823.7,1792,12.3,9.9,85,9.32,43,2.6,301.7,329.5,303.4
823.2,1797,12.2,9.9,86,9.34,42,2.6,301.7,329.6,303.4
822.7,1802,12.2,9.9,86,9.34,42,2.6,301.7,329.6,303.4
822.2,1807,12.2,9.9,86,9.33,42,2.6,301.7,329.6,303.4
821.7,1812,12.1,9.9,86,9.33,41,2.6,301.8,329.6,303.5
821.2,1818,12.1,9.8,86,9.31,41,2.6,301.8,329.6,303.5
820.7,1823,12.1,9.8,86,9.28,40,2.6,301.8,329.5,303.5
820.1,1828,12.0,9.7,86,9.25,40,2.6,301.8,329.4,303.5
819.6,1833,12.0,9.7,86,9.23,39,2.5,301.8,329.4,303.5
819.1,1838,11.9,9.6,86,9.23,38,2.5,301.8,329.4,303.5
818.7,1843,11.9,9.7,86,9.24,38,2.5,301.8,329.4,303.5
818.2,1848,11.9,9.6,86,9.24,37,2.4,301.8,329.5,303.5
817.8,1853,11.8,9.6,86,9.23,36,2.4,301.8,329.4,303.5
817.3,1857,11.8,9.6,86,9.23,35,2.3,301.9,329.4,303.5
816.9,1861,11.8,9.6,86,9.22,34,2.3,301.9,329.4,303.5
816.5,1866,11.7,9.6,87,9.24,33,2.2,301.9,329.5,303.6
816.1,1870,11.7,9.6,87,9.23,31,2.1,301.9,329.5,303.6
815.6,1874,11.7,9.6,87,9.21,30,2.0,301.9,329.4,303.6
