PRES,HGHT,TEMP,DWPT,RELH,MIXR,DRCT,SPED,THTA,THTE,THTV
1017.3,31,26.1,20.0,69,14.61,27,4.5,297.8,340.4,300.4
1016.9,34,25.9,20.3,71,14.90,40,2.9,297.6,341.0,300.3
1016.4,38,25.6,20.2,72,14.80,45,2.7,297.4,340.4,300.0
1015.8,44,25.3,19.9,72,14.57,47,2.8,297.1,339.4,299.7
1015.1,50,24.9,19.5,72,14.23,47,3.0,296.8,338.1,299.3
1014.5,55,24.6,18.9,71,13.71,47,3.3,296.5,336.3,299.0
1014.0,59,24.4,18.6,70,13.38,47,3.5,296.3,335.1,298.7
1013.5,63,24.2,18.6,71,13.45,48,3.7,296.2,335.1,298.6
1013.0,68,24.1,18.8,72,13.57,48,3.9,296.2,335.4,298.6
1012.5,72,24.0,18.7,72,13.54,48,4.1,296.1,335.3,298.5
1012.0,76,24.0,18.6,72,13.41,49,4.3,296.1,334.9,298.5
1011.5,81,23.9,18.4,71,13.28,49,4.5,296.1,334.5,298.4
1010.9,86,23.8,18.3,71,13.21,49,4.6,296.1,334.3,298.4
1010.4,90,23.8,18.3,71,13.24,50,4.8,296.1,334.4,298.4
1009.8,95,23.8,18.5,72,13.38,50,4.9,296.1,334.9,298.5
1009.2,100,23.9,18.7,73,13.55,50,5.1,296.3,335.5,298.7
1008.6,106,23.9,18.7,73,13.58,51,5.2,296.4,335.7,298.8
1008.0,111,23.9,18.5,72,13.43,51,5.3,296.4,335.3,298.7
1007.5,116,23.7,18.2,71,13.16,51,5.4,296.3,334.4,298.6
1006.9,121,23.6,17.9,71,12.94,51,5.5,296.1,333.6,298.4
1006.3,126,23.5,17.8,71,12.87,52,5.6,296.1,333.3,298.4
1005.8,131,23.4,17.9,71,12.91,52,5.7,296.1,333.4,298.3
1005.2,135,23.3,18.0,72,13.01,52,5.8,296.1,333.7,298.4
1004.7,140,23.3,18.1,73,13.13,52,5.9,296.1,334.1,298.4
1004.1,145,23.3,18.2,73,13.20,52,5.9,296.1,334.3,298.4
1003.5,150,23.2,18.2,73,13.20,52,6.0,296.1,334.3,298.4
1002.9,156,23.2,18.2,74,13.22,52,6.0,296.1,334.3,298.4
1002.3,161,23.1,18.2,74,13.25,53,6.1,296.0,334.4,298.4
1001.6,167,23.0,18.2,74,13.27,53,6.1,296.0,334.5,298.4
1001.0,172,23.0,18.2,75,13.27,53,6.1,296.0,334.5,298.4
1000.4,177,22.9,18.2,75,13.24,53,6.2,296.0,334.3,298.4
1000.0,181,22.9,18.1,74,13.20,53,6.2,296.0,334.2,298.4
999.8,183,22.9,18.1,74,13.18,52,6.2,296.0,334.2,298.4
999.2,188,22.8,18.0,74,13.09,52,6.2,296.0,333.9,298.4
998.6,194,22.8,17.9,74,13.03,52,6.2,296.0,333.8,298.3
998.0,199,22.7,17.9,74,13.02,52,6.2,296.0,333.7,298.4
997.4,204,22.7,17.9,74,13.03,52,6.2,296.0,333.8,298.4
996.7,209,22.6,17.9,75,13.07,51,6.2,296.0,333.9,298.4
996.1,215,22.6,17.9,75,13.09,51,6.2,296.1,333.9,298.4
995.5,220,22.5,17.9,75,13.07,51,6.2,296.0,333.9,298.4
994.9,225,22.5,17.9,75,13.04,50,6.2,296.0,333.8,298.3
994.3,231,22.4,17.8,75,13.02,50,6.2,296.0,333.7,298.3
993.7,236,22.4,17.8,76,13.03,50,6.2,296.0,333.8,298.3
993.1,241,22.3,17.8,76,13.06,49,6.1,296.0,333.8,298.3
992.5,247,22.2,17.9,76,13.07,49,6.1,296.0,333.9,298.3
991.8,252,22.2,17.9,76,13.08,48,6.1,296.0,333.9,298.4
991.2,258,22.1,17.8,76,13.06,48,6.1,296.0,333.8,298.4
990.6,263,22.1,17.7,76,12.97,47,6.1,296.0,333.6,298.3
990.0,268,22.0,17.5,76,12.84,47,6.1,296.0,333.2,298.3
989.4,274,22.0,17.4,75,12.76,46,6.1,296.0,333.0,298.3
988.8,279,21.9,17.4,76,12.77,46,6.2,296.0,333.0,298.3
988.2,284,21.9,17.5,76,12.81,46,6.2,296.0,333.1,298.3
987.6,290,21.8,17.5,76,12.84,45,6.2,296.0,333.2,298.3
986.9,295,21.8,17.5,77,12.89,45,6.2,296.0,333.4,298.3
986.3,301,21.7,17.6,77,12.94,45,6.3,296.0,333.5,298.3
985.7,306,21.7,17.6,78,12.94,44,6.3,296.0,333.5,298.3
985.1,311,21.6,17.5,78,12.90,44,6.3,296.0,333.4,298.3
984.5,317,21.6,17.5,78,12.90,44,6.4,296.0,333.4,298.3
984.0,322,21.5,17.5,78,12.92,44,6.4,296.0,333.4,298.3
983.4,327,21.5,17.6,78,12.94,44,6.5,296.0,333.5,298.3
982.8,332,21.4,17.6,79,12.95,44,6.5,296.0,333.5,298.3
982.3,337,21.4,17.5,79,12.93,44,6.6,296.0,333.5,298.3
981.7,342,21.3,17.5,79,12.93,44,6.6,296.0,333.4,298.3
981.1,347,21.3,17.5,79,12.92,44,6.6,296.0,333.4,298.3
980.5,352,21.2,17.5,79,12.91,44,6.7,296.0,333.4,298.3
979.9,357,21.2,17.4,79,12.87,44,6.7,296.0,333.3,298.3
979.4,362,21.1,17.4,79,12.84,45,6.7,296.0,333.2,298.3
978.8,367,21.1,17.3,79,12.83,45,6.8,296.0,333.2,298.3
978.3,372,21.0,17.4,80,12.87,45,6.8,296.0,333.3,298.3
977.7,377,21.0,17.4,80,12.92,45,6.8,296.0,333.4,298.3
977.2,381,20.9,17.4,80,12.94,46,6.8,296.0,333.5,298.3
976.7,386,20.9,17.4,81,12.94,46,6.8,296.0,333.5,298.3
976.2,390,20.8,17.4,81,12.93,46,6.8,296.0,333.4,298.3
975.7,395,20.8,17.4,81,12.93,47,6.8,296.0,333.4,298.3
975.2,399,20.8,17.4,81,12.94,47,6.7,296.0,333.5,298.3
974.7,404,20.7,17.4,81,12.95,47,6.7,296.0,333.5,298.3
974.1,409,20.6,17.4,82,12.96,48,6.7,296.0,333.5,298.3
973.5,414,20.6,17.4,82,12.97,48,6.6,296.0,333.5,298.3
972.9,420,20.5,17.4,82,12.97,49,6.6,296.0,333.5,298.3
972.3,425,20.5,17.4,82,12.96,49,6.6,296.0,333.5,298.3
971.7,430,20.4,17.4,83,12.98,49,6.5,296.0,333.5,298.3
971.1,436,20.4,17.4,83,13.00,50,6.5,296.0,333.6,298.3
970.5,441,20.3,17.4,83,13.03,50,6.4,296.0,333.7,298.3
969.9,446,20.3,17.4,84,13.02,51,6.4,296.0,333.7,298.3
969.3,452,20.2,17.4,84,12.98,51,6.3,296.0,333.6,298.3
968.7,457,20.2,17.3,84,12.96,51,6.2,296.0,333.5,298.3
968.1,463,20.1,17.3,84,12.96,52,6.2,296.0,333.5,298.3
967.5,468,20.1,17.3,84,12.98,52,6.2,296.0,333.6,298.3
966.9,473,20.0,17.3,84,12.98,52,6.1,296.0,333.5,298.3
966.3,479,20.0,17.3,85,12.98,52,6.1,296.0,333.6,298.3
965.7,484,19.9,17.3,85,13.00,53,6.0,296.0,333.6,298.3
965.2,489,19.9,17.4,85,13.03,53,6.0,296.0,333.7,298.3
964.6,494,19.8,17.4,86,13.07,53,6.0,296.0,333.8,298.3
964.0,499,19.8,17.4,86,13.11,53,5.9,296.0,333.9,298.3
963.5,504,19.7,17.5,87,13.13,53,5.9,296.0,334.0,298.3
962.9,509,19.7,17.4,87,13.13,53,5.9,296.0,334.0,298.3
962.3,514,19.6,17.4,87,13.11,53,5.9,296.0,333.9,298.3
961.8,519,19.6,17.4,87,13.09,53,5.9,296.0,333.9,298.3
961.2,525,19.5,17.3,87,13.05,53,5.9,296.0,333.8,298.3
960.6,530,19.5,17.3,87,13.03,53,5.9,296.0,333.7,298.3
960.1,535,19.4,17.2,87,13.00,53,5.9,296.0,333.6,298.3
959.5,540,19.4,17.2,87,12.98,53,5.9,296.0,333.6,298.3
958.9,545,19.4,17.2,87,12.97,53,5.9,296.0,333.6,298.3
958.4,550,19.3,17.2,87,12.97,53,5.9,296.0,333.5,298.3
957.8,555,19.3,17.2,88,13.00,53,6.0,296.0,333.6,298.3
957.2,560,19.2,17.2,88,13.03,53,6.0,296.0,333.7,298.3
956.6,565,19.1,17.2,89,13.05,53,6.0,296.0,333.8,298.3
956.1,571,19.1,17.2,89,13.06,53,6.1,296.0,333.8,298.3
955.5,576,19.0,17.2,89,13.06,53,6.1,296.0,333.8,298.3
954.9,581,19.0,17.2,89,13.05,53,6.2,296.0,333.8,298.3
954.4,586,19.0,17.1,89,13.00,53,6.3,296.0,333.6,298.3
953.8,591,18.9,17.0,89,12.91,53,6.3,296.0,333.4,298.3
953.3,596,18.9,16.9,89,12.85,53,6.4,296.0,333.2,298.3
952.7,601,18.8,16.9,89,12.84,53,6.5,296.1,333.2,298.3
952.2,606,18.8,16.9,89,12.85,53,6.5,296.0,333.2,298.3
951.6,611,18.7,16.9,89,12.86,53,6.6,296.0,333.3,298.3
951.1,616,18.7,16.9,90,12.86,53,6.7,296.0,333.2,298.3
950.6,620,18.6,16.9,90,12.84,53,6.8,296.0,333.2,298.3
950.0,625,18.6,16.8,89,12.80,53,6.9,296.0,333.1,298.3
949.5,630,18.6,16.8,89,12.74,53,6.9,296.1,332.9,298.3
949.0,635,18.5,16.6,89,12.62,53,7.0,296.1,332.6,298.3
948.4,640,18.5,16.4,87,12.44,54,7.1,296.1,332.1,298.3
947.9,644,18.5,16.2,87,12.35,54,7.1,296.1,331.9,298.3
947.4,649,18.4,16.2,87,12.30,54,7.2,296.1,331.8,298.3
946.8,654,18.4,16.1,86,12.26,54,7.2,296.1,331.7,298.3
946.3,659,18.4,16.1,86,12.23,54,7.3,296.2,331.6,298.3
945.8,664,18.3,16.0,87,12.21,54,7.3,296.2,331.6,298.3
945.2,669,18.3,16.0,87,12.22,54,7.3,296.2,331.6,298.4
944.6,674,18.3,16.1,87,12.29,54,7.3,296.2,331.8,298.4
944.1,679,18.2,16.2,88,12.37,54,7.3,296.2,332.0,298.4
943.5,684,18.1,16.3,89,12.43,53,7.3,296.2,332.2,298.4
943.0,689,18.1,16.2,89,12.40,53,7.3,296.1,332.1,298.3
942.5,694,18.0,16.2,89,12.36,53,7.3,296.1,331.9,298.3
942.0,699,18.0,16.2,89,12.35,53,7.3,296.1,331.9,298.3
941.5,703,17.9,16.1,89,12.29,53,7.3,296.1,331.8,298.3
941.0,708,17.9,16.0,88,12.21,53,7.2,296.2,331.5,298.3
940.5,712,17.9,15.9,88,12.14,53,7.2,296.2,331.4,298.3
939.9,717,17.9,15.8,88,12.09,53,7.2,296.2,331.2,298.3
939.4,722,17.8,15.7,87,12.03,53,7.1,296.2,331.1,298.4
938.9,726,17.8,15.6,87,11.99,53,7.1,296.2,331.0,298.4
938.4,731,17.8,15.6,87,11.96,53,7.0,296.3,330.9,298.4
937.9,736,17.7,15.5,87,11.92,53,7.0,296.3,330.9,298.4
937.3,741,17.7,15.5,87,11.89,53,6.9,296.3,330.8,298.4
936.8,745,17.7,15.4,87,11.86,53,6.9,296.3,330.7,298.4
936.3,750,17.6,15.3,86,11.79,54,6.9,296.3,330.5,298.4
935.8,755,17.6,15.2,86,11.70,54,6.8,296.3,330.2,298.4
935.3,759,17.6,15.1,85,11.59,54,6.8,296.3,330.0,298.4
934.8,764,17.5,14.9,85,11.50,54,6.8,296.3,329.7,298.4
934.3,769,17.5,14.8,84,11.43,54,6.8,296.4,329.6,298.4
933.7,774,17.5,14.7,84,11.34,54,6.7,296.4,329.3,298.4
933.2,779,17.5,14.6,83,11.23,55,6.7,296.4,329.0,298.4
932.6,784,17.4,14.3,82,11.07,55,6.7,296.4,328.6,298.4
932.1,789,17.4,14.0,80,10.83,55,6.7,296.5,328.0,298.4
931.5,794,17.4,13.4,77,10.43,55,6.7,296.5,326.9,298.4
931.0,799,17.5,12.6,73,9.87,55,6.7,296.6,325.4,298.4
930.5,803,17.6,11.6,68,9.28,56,6.7,296.8,323.9,298.4
930.0,808,17.7,11.1,65,8.93,56,6.8,296.9,323.1,298.5
929.5,813,17.7,11.0,65,8.90,56,6.8,297.0,323.1,298.6
929.0,817,17.7,11.2,66,9.02,56,6.8,297.0,323.5,298.7
928.5,822,17.7,11.4,66,9.13,56,6.8,297.1,323.8,298.7
928.0,827,17.7,11.4,67,9.18,56,6.8,297.1,324.0,298.7
927.4,832,17.6,11.5,67,9.23,56,6.8,297.1,324.1,298.8
926.9,837,17.6,11.6,68,9.29,56,6.8,297.1,324.3,298.8
926.3,842,17.5,11.7,68,9.35,56,6.8,297.1,324.5,298.8
925.8,847,17.5,11.7,69,9.36,56,6.9,297.1,324.5,298.8
925.2,852,17.4,11.7,69,9.36,56,6.9,297.1,324.5,298.8
925.0,854,17.4,11.7,69,9.35,56,6.9,297.1,324.5,298.8
924.6,858,17.4,11.6,69,9.34,56,6.9,297.1,324.5,298.8
924.0,863,17.4,11.6,69,9.33,56,6.9,297.1,324.5,298.8
923.5,869,17.3,11.6,69,9.32,56,6.9,297.2,324.5,298.8
922.9,874,17.3,11.6,69,9.34,55,6.9,297.2,324.5,298.9
922.3,880,17.3,11.6,69,9.36,55,6.9,297.2,324.6,298.9
921.7,885,17.2,11.7,70,9.38,55,6.9,297.2,324.7,298.9
921.1,890,17.2,11.7,70,9.39,55,6.9,297.2,324.7,298.9
920.5,896,17.1,11.7,70,9.41,55,6.9,297.2,324.8,298.9
919.9,901,17.1,11.7,71,9.42,55,6.9,297.2,324.8,298.9
919.3,907,17.0,11.7,71,9.44,54,6.9,297.2,324.9,298.9
918.8,912,17.0,11.7,71,9.44,54,6.9,297.2,324.9,298.9
918.2,918,17.0,11.7,71,9.46,54,6.8,297.3,325.0,299.0
917.6,923,16.9,11.7,71,9.46,54,6.8,297.3,325.0,299.0
917.0,929,16.9,11.7,71,9.46,54,6.8,297.3,325.0,299.0
916.4,934,16.9,11.7,72,9.46,54,6.8,297.3,325.1,299.0
915.8,940,16.9,11.7,71,9.45,55,6.8,297.4,325.1,299.1
915.2,945,16.8,11.6,71,9.44,55,6.7,297.4,325.1,299.1
914.6,951,16.8,11.6,71,9.43,55,6.7,297.5,325.1,299.1
914.0,956,16.8,11.6,71,9.43,55,6.7,297.5,325.1,299.2
913.4,962,16.7,11.6,72,9.44,56,6.6,297.5,325.2,299.2
912.8,967,16.7,11.6,72,9.45,56,6.6,297.5,325.2,299.2
912.3,972,16.6,11.6,72,9.43,56,6.6,297.5,325.2,299.2
911.8,977,16.6,11.5,72,9.40,57,6.5,297.5,325.1,299.2
911.2,982,16.6,11.4,71,9.34,57,6.5,297.5,324.9,299.2
910.7,987,16.6,11.3,71,9.27,57,6.5,297.5,324.7,299.2
910.2,992,16.5,11.2,71,9.22,58,6.5,297.6,324.6,299.2
909.8,996,16.5,11.2,71,9.22,58,6.4,297.5,324.6,299.2
909.3,1001,16.4,11.2,71,9.22,58,6.4,297.6,324.6,299.2
908.8,1005,16.4,11.2,71,9.20,58,6.4,297.6,324.6,299.2
908.3,1010,16.4,11.1,71,9.19,59,6.4,297.6,324.5,299.2
907.7,1015,16.3,11.1,71,9.18,59,6.4,297.6,324.5,299.2
907.2,1020,16.3,11.1,71,9.16,59,6.4,297.6,324.5,299.2
906.7,1025,16.2,11.0,71,9.12,59,6.4,297.6,324.4,299.2
906.1,1030,16.2,10.8,70,9.01,59,6.4,297.6,324.1,299.2
905.6,1035,16.2,10.4,69,8.79,58,6.4,297.6,323.5,299.2
905.1,1040,16.2,10.0,67,8.53,58,6.4,297.7,322.8,299.2
904.6,1045,16.2,9.7,65,8.39,58,6.5,297.8,322.5,299.3
904.1,1049,16.3,9.7,65,8.39,57,6.5,297.9,322.6,299.4
903.6,1054,16.3,9.8,65,8.42,57,6.5,297.9,322.7,299.4
903.2,1058,16.3,9.7,65,8.41,56,6.6,298.0,322.7,299.5
902.7,1062,16.3,9.6,65,8.36,55,6.6,298.0,322.7,299.5
902.3,1066,16.3,9.6,64,8.32,55,6.7,298.0,322.6,299.5
901.8,1071,16.3,9.6,65,8.35,54,6.7,298.1,322.7,299.6
901.3,1075,16.3,9.9,66,8.52,53,6.7,298.1,323.2,299.7
900.8,1080,16.2,10.2,68,8.73,52,6.8,298.1,323.8,299.7
900.3,1085,16.2,10.4,68,8.81,51,6.8,298.1,324.1,299.7
899.7,1091,16.1,10.1,68,8.68,51,6.9,298.1,323.7,299.7
899.2,1096,16.1,9.9,67,8.55,50,6.9,298.2,323.4,299.7
898.6,1101,16.1,9.9,67,8.57,49,6.9,298.2,323.5,299.8
898.0,1106,16.1,10.2,68,8.73,48,7.0,298.3,324.0,299.8
897.5,1112,16.0,10.6,70,8.97,48,7.0,298.3,324.7,299.9
897.0,1117,16.0,10.9,72,9.19,47,7.0,298.3,325.3,299.9
896.4,1122,15.9,11.3,74,9.41,46,7.0,298.3,325.9,300.0
895.9,1127,15.9,11.6,76,9.60,46,7.0,298.3,326.5,300.0
895.4,1131,15.8,11.8,77,9.73,45,7.0,298.3,326.8,300.0
894.9,1136,15.8,11.8,77,9.77,45,7.0,298.3,327.0,300.0
894.5,1140,15.8,11.9,78,9.82,44,7.0,298.3,327.2,300.1
894.0,1145,15.8,12.0,78,9.93,44,7.0,298.3,327.5,300.1
893.5,1149,15.8,12.2,79,10.04,43,7.0,298.3,327.8,300.1
893.1,1154,15.7,12.3,80,10.11,43,6.9,298.4,328.1,300.2
892.6,1158,15.7,12.3,80,10.13,43,6.9,298.4,328.1,300.2
892.1,1163,15.7,12.3,80,10.14,43,6.9,298.4,328.2,300.2
891.6,1167,15.7,12.3,80,10.15,43,6.8,298.4,328.3,300.3
891.2,1172,15.6,12.3,81,10.17,42,6.8,298.5,328.3,300.3
890.7,1177,15.6,12.4,81,10.19,42,6.8,298.5,328.4,300.3
890.2,1181,15.6,12.4,81,10.20,42,6.7,298.5,328.4,300.3
889.7,1186,15.5,12.3,81,10.16,43,6.7,298.5,328.3,300.3
889.2,1191,15.5,12.2,81,10.09,43,6.7,298.5,328.1,300.3
888.7,1196,15.4,12.1,80,10.01,43,6.6,298.5,327.9,300.3
888.2,1200,15.4,11.9,80,9.90,43,6.6,298.5,327.6,300.3
887.7,1205,15.4,11.5,78,9.67,43,6.6,298.5,327.0,300.3
887.2,1209,15.4,11.0,75,9.30,43,6.6,298.6,326.0,300.3
886.8,1214,15.5,10.4,72,8.96,44,6.5,298.7,325.2,300.3
886.3,1218,15.5,10.1,70,8.80,44,6.5,298.8,324.8,300.4
885.8,1223,15.5,10.1,70,8.80,44,6.5,298.8,324.9,300.4
885.4,1227,15.5,10.2,71,8.89,45,6.5,298.9,325.1,300.5
884.9,1232,15.5,10.4,72,9.00,45,6.4,298.9,325.5,300.5
884.4,1237,15.5,10.5,72,9.07,45,6.4,298.9,325.7,300.5
883.9,1241,15.4,10.6,73,9.09,46,6.3,298.9,325.8,300.6
883.4,1246,15.4,10.6,73,9.09,46,6.3,299.0,325.8,300.6
883.0,1250,15.4,10.6,73,9.10,46,6.3,299.0,325.9,300.6
882.5,1255,15.4,10.5,73,9.08,47,6.2,299.0,325.8,300.6
882.0,1260,15.4,10.4,72,9.00,47,6.2,299.1,325.7,300.7
881.5,1265,15.4,10.1,71,8.85,47,6.1,299.1,325.3,300.7
880.9,1270,15.4,9.7,69,8.62,48,6.1,299.2,324.7,300.7
880.4,1276,15.4,9.3,67,8.39,48,6.0,299.2,324.1,300.7
879.8,1281,15.4,8.9,65,8.13,48,6.0,299.3,323.4,300.7
879.2,1287,15.4,8.4,63,7.87,48,5.9,299.3,322.7,300.7
878.6,1292,15.4,7.9,61,7.65,48,5.9,299.4,322.1,300.8
878.1,1298,15.4,7.6,60,7.49,48,5.8,299.4,321.8,300.8
877.5,1303,15.4,7.5,59,7.42,48,5.7,299.5,321.6,300.8
877.0,1308,15.3,7.4,59,7.40,48,5.7,299.5,321.6,300.9
876.5,1313,15.3,7.4,59,7.39,48,5.6,299.5,321.6,300.9
876.0,1318,15.3,7.3,59,7.35,48,5.6,299.6,321.5,300.9
875.5,1322,15.3,7.2,58,7.27,48,5.5,299.6,321.3,300.9
875.0,1327,15.3,7.0,58,7.18,48,5.5,299.6,321.0,300.9
874.6,1332,15.2,6.9,57,7.13,48,5.4,299.6,320.9,300.9
874.1,1336,15.2,6.9,58,7.14,48,5.4,299.7,321.0,300.9
873.6,1341,15.2,6.9,58,7.16,47,5.4,299.7,321.0,301.0
873.2,1345,15.1,6.9,58,7.17,47,5.3,299.7,321.1,301.0
872.7,1349,15.1,6.9,58,7.16,47,5.3,299.7,321.0,301.0
872.3,1354,15.1,6.8,58,7.14,47,5.3,299.7,321.0,301.0
871.8,1358,15.0,6.9,58,7.15,46,5.2,299.7,321.1,301.0
871.4,1362,15.0,7.1,59,7.27,46,5.2,299.7,321.4,301.0
870.9,1367,15.0,7.7,62,7.58,46,5.2,299.7,322.3,301.1
870.5,1371,15.0,8.2,64,7.85,46,5.1,299.8,323.1,301.2
870.1,1375,15.0,8.3,64,7.92,45,5.1,299.8,323.4,301.2
869.6,1379,15.0,8.3,64,7.93,45,5.1,299.8,323.4,301.3
869.2,1384,14.9,8.5,65,8.03,45,5.0,299.9,323.8,301.3
868.7,1388,14.9,8.8,67,8.18,45,5.0,299.9,324.2,301.3
868.3,1393,14.9,8.9,67,8.27,44,4.9,299.9,324.5,301.4
867.8,1397,14.8,8.9,68,8.28,44,4.9,299.9,324.5,301.4
867.3,1402,14.8,8.9,68,8.25,44,4.9,299.9,324.4,301.4
866.8,1407,14.7,8.8,67,8.21,44,4.9,299.9,324.3,301.4
866.4,1412,14.7,8.6,67,8.13,43,4.8,299.9,324.1,301.4
865.9,1416,14.7,8.5,66,8.04,43,4.8,299.9,323.9,301.4
865.4,1421,14.7,8.4,66,8.04,43,4.8,300.0,323.9,301.4
864.9,1426,14.7,8.6,67,8.14,43,4.8,300.0,324.3,301.5
864.4,1431,14.7,8.9,68,8.30,43,4.8,300.0,324.7,301.5
863.9,1436,14.6,9.0,69,8.39,43,4.8,300.1,325.0,301.6
863.3,1441,14.6,9.0,69,8.39,42,4.8,300.1,325.1,301.6
862.8,1446,14.6,8.9,69,8.33,42,4.8,300.1,324.9,301.6
862.2,1452,14.6,8.6,67,8.17,42,4.9,300.2,324.6,301.7
861.7,1457,14.7,8.1,65,7.90,42,4.9,300.3,323.9,301.7
861.1,1463,14.7,7.7,63,7.66,42,5.0,300.4,323.3,301.8
860.6,1468,14.7,7.5,62,7.55,42,5.1,300.5,323.1,301.9
860.1,1473,14.8,7.3,61,7.49,42,5.1,300.6,323.0,301.9
859.5,1479,14.8,7.2,60,7.43,42,5.2,300.7,322.9,302.0
859.0,1484,14.8,7.0,60,7.35,42,5.3,300.7,322.7,302.1
858.4,1490,14.8,6.7,58,7.20,42,5.4,300.8,322.4,302.1
857.8,1495,14.9,6.5,57,7.08,42,5.5,300.9,322.2,302.2
857.2,1501,14.9,6.4,57,7.04,42,5.6,301.0,322.1,302.3
856.6,1507,14.9,6.4,57,7.03,42,5.7,301.1,322.2,302.3
856.0,1513,14.9,6.2,56,6.97,41,5.8,301.1,322.1,302.4
855.4,1519,14.9,5.9,55,6.84,41,5.9,301.2,321.8,302.4
854.8,1525,14.9,5.6,54,6.69,41,5.9,301.3,321.4,302.5
854.3,1530,14.9,5.4,53,6.60,41,6.0,301.3,321.3,302.5
853.7,1536,14.9,5.5,53,6.65,41,6.1,301.4,321.5,302.6
853.1,1542,14.9,5.7,54,6.75,41,6.2,301.4,321.8,302.7
852.6,1547,14.9,5.9,55,6.83,41,6.2,301.4,322.0,302.7
852.1,1552,14.8,6.0,55,6.89,41,6.3,301.5,322.2,302.7
851.5,1558,14.8,6.1,56,6.94,41,6.3,301.5,322.4,302.7
851.0,1563,14.8,6.1,56,6.96,41,6.3,301.5,322.5,302.8
850.5,1568,14.8,6.1,56,6.97,41,6.3,301.6,322.5,302.8
850.0,1573,14.8,6.1,56,6.98,41,6.4,301.6,322.6,302.9
849.6,1577,14.8,6.1,56,6.99,41,6.4,301.6,322.7,302.9
849.1,1582,14.7,6.1,56,6.99,40,6.4,301.7,322.7,302.9
848.6,1587,14.7,6.1,56,6.98,40,6.3,301.7,322.7,303.0
848.2,1591,14.7,6.1,56,6.96,40,6.3,301.7,322.7,303.0
847.7,1596,14.7,5.9,56,6.91,40,6.3,301.8,322.6,303.0
847.3,1600,14.7,5.8,55,6.85,40,6.3,301.8,322.5,303.0
846.8,1604,14.7,5.7,55,6.80,39,6.2,301.8,322.4,303.1
846.4,1609,14.7,5.7,55,6.80,39,6.2,301.9,322.4,303.1
846.0,1613,14.7,5.7,55,6.80,39,6.2,301.9,322.4,303.1
845.5,1618,14.6,5.7,55,6.81,39,6.2,301.9,322.5,303.2
845.1,1622,14.6,5.7,55,6.83,38,6.1,301.9,322.5,303.2
844.6,1627,14.6,5.8,56,6.85,38,6.1,301.9,322.6,303.2
844.1,1632,14.5,5.8,56,6.85,38,6.1,301.9,322.6,303.2
843.6,1637,14.5,5.8,56,6.85,38,6.0,302.0,322.7,303.2
843.1,1642,14.5,5.7,56,6.84,38,6.0,302.0,322.6,303.2
842.6,1647,14.4,5.7,56,6.81,38,6.0,302.0,322.6,303.2
842.1,1652,14.4,5.6,55,6.77,38,6.0,302.0,322.5,303.3
841.6,1657,14.4,5.4,55,6.71,38,6.0,302.1,322.3,303.3
841.0,1663,14.4,5.2,54,6.63,38,6.0,302.1,322.2,303.3
840.5,1668,14.4,5.1,53,6.55,39,6.0,302.2,322.0,303.4
839.9,1674,14.4,4.9,53,6.49,39,6.0,302.2,321.9,303.4
839.4,1679,14.4,4.8,53,6.44,39,6.1,302.3,321.8,303.4
838.8,1685,14.4,4.7,52,6.40,39,6.1,302.3,321.7,303.5
838.3,1690,14.3,4.6,52,6.34,40,6.1,302.3,321.6,303.5
837.7,1696,14.3,4.3,51,6.25,40,6.2,302.4,321.4,303.5
837.2,1701,14.4,4.1,50,6.13,40,6.2,302.5,321.1,303.6
836.7,1706,14.4,3.9,49,6.06,41,6.3,302.5,321.0,303.6
836.2,1711,14.4,3.8,49,6.04,41,6.3,302.6,321.0,303.7
835.8,1715,14.3,3.8,49,6.04,42,6.4,302.6,321.0,303.7
835.3,1720,14.3,3.8,49,6.04,42,6.4,302.6,321.0,303.7
834.8,1725,14.3,3.8,49,6.02,42,6.5,302.7,321.0,303.8
834.4,1730,14.3,3.6,49,5.97,43,6.6,302.7,320.9,303.8
833.9,1735,14.3,3.4,48,5.85,43,6.6,302.7,320.6,303.8
833.3,1740,14.3,2.9,46,5.66,43,6.7,302.8,320.1,303.8
832.8,1745,14.3,2.4,45,5.47,43,6.7,302.9,319.6,303.9
832.3,1751,14.3,2.2,44,5.41,43,6.8,302.9,319.5,303.9
831.8,1756,14.3,2.4,44,5.46,44,6.8,303.0,319.7,304.0
831.2,1761,14.3,2.4,45,5.47,44,6.8,303.0,319.8,304.0
830.7,1767,14.3,2.2,44,5.42,44,6.9,303.1,319.7,304.0
830.2,1772,14.2,2.3,44,5.44,44,6.9,303.1,319.7,304.1
829.8,1776,14.2,2.5,45,5.54,44,6.9,303.1,320.0,304.1
829.3,1781,14.2,2.8,46,5.65,44,6.9,303.1,320.4,304.1
828.9,1786,14.1,3.0,47,5.72,44,6.8,303.1,320.6,304.2
828.4,1790,14.1,3.0,47,5.75,43,6.8,303.1,320.7,304.2
828.0,1794,14.1,3.1,47,5.78,43,6.8,303.1,320.8,304.2
827.6,1799,14.0,3.1,48,5.79,43,6.7,303.1,320.8,304.2
827.1,1803,14.0,3.1,48,5.80,43,6.6,303.2,320.9,304.2
826.7,1807,14.0,3.1,48,5.81,43,6.6,303.2,320.9,304.2
826.3,1812,13.9,3.1,48,5.80,43,6.5,303.2,320.9,304.2
825.8,1816,13.9,3.1,48,5.79,43,6.4,303.2,320.9,304.3
825.4,1821,13.9,3.1,48,5.80,43,6.3,303.2,320.9,304.3
824.9,1826,13.9,3.1,48,5.82,42,6.2,303.2,321.0,304.3
824.5,1831,13.8,3.2,49,5.85,42,6.0,303.2,321.1,304.3
824.0,1835,13.8,3.3,49,5.88,42,5.9,303.2,321.2,304.3
823.5,1840,13.7,3.3,49,5.91,42,5.8,303.2,321.3,304.3
823.0,1845,13.7,3.4,50,5.94,42,5.7,303.2,321.4,304.3
822.5,1851,13.6,3.4,50,5.94,42,5.5,303.2,321.4,304.3
822.0,1855,13.6,3.4,50,5.94,42,5.4,303.3,321.4,304.3
821.6,1860,13.6,3.3,50,5.92,42,5.3,303.3,321.4,304.3
821.1,1865,13.5,3.2,50,5.87,42,5.2,303.3,321.2,304.4
