PRES,HGHT,TEMP,DWPT,RELH,MIXR,DRCT,SPED,THTA,THTE,THTV
1012.6,31,26.1,21.3,75,15.99,58,6.0,298.2,344.8,301.0
1012.0,35,25.4,21.5,79,16.18,63,5.0,297.6,344.6,300.4
1011.4,41,24.7,21.1,80,15.76,65,4.9,296.9,342.6,299.7
1010.7,47,24.2,20.9,82,15.60,66,5.1,296.5,341.7,299.2
1010.0,53,24.0,20.9,83,15.59,67,5.5,296.3,341.5,299.1
1009.4,59,24.0,20.9,83,15.56,67,5.8,296.3,341.3,299.1
1008.8,64,23.9,20.8,83,15.47,67,6.1,296.3,341.0,299.0
1008.2,69,23.8,20.6,83,15.37,68,6.4,296.2,340.7,299.0
1007.5,75,23.7,20.6,83,15.31,68,6.7,296.2,340.5,298.9
1006.8,81,23.7,20.5,83,15.29,69,6.9,296.2,340.5,299.0
1006.2,87,23.6,20.5,83,15.30,69,7.1,296.3,340.5,299.0
1005.5,93,23.6,20.5,83,15.30,69,7.4,296.2,340.5,299.0
1004.8,98,23.5,20.5,83,15.29,70,7.5,296.2,340.4,298.9
1004.1,104,23.4,20.5,84,15.26,70,7.7,296.2,340.3,298.9
1003.5,110,23.3,20.4,84,15.24,71,7.9,296.2,340.2,298.9
1002.9,115,23.3,20.4,84,15.22,71,8.0,296.2,340.2,298.9
1002.3,121,23.2,20.4,84,15.20,71,8.1,296.2,340.1,298.9
1001.6,126,23.2,20.3,84,15.18,72,8.2,296.2,340.1,298.9
1001.0,131,23.1,20.3,84,15.14,72,8.3,296.2,340.0,298.9
1000.4,137,23.1,20.2,84,15.09,72,8.4,296.2,339.8,298.8
1000.0,140,23.0,20.2,84,15.05,72,8.4,296.2,339.7,298.8
999.8,142,23.0,20.2,84,15.04,73,8.4,296.2,339.6,298.8
999.2,148,22.9,20.1,84,15.02,73,8.5,296.1,339.6,298.8
998.6,153,22.9,20.1,84,14.98,73,8.5,296.1,339.5,298.8
998.0,158,22.8,20.0,84,14.93,73,8.5,296.1,339.3,298.8
997.4,163,22.8,20.0,84,14.90,74,8.6,296.2,339.3,298.8
996.8,168,22.7,20.0,84,14.89,74,8.6,296.2,339.2,298.8
996.2,173,22.7,19.9,84,14.84,74,8.6,296.2,339.1,298.8
995.7,178,22.7,19.8,84,14.76,74,8.6,296.2,338.8,298.8
995.1,183,22.6,19.7,84,14.70,74,8.6,296.2,338.7,298.8
994.5,189,22.6,19.7,84,14.67,74,8.6,296.2,338.6,298.8
993.9,194,22.6,19.6,83,14.61,75,8.6,296.3,338.5,298.9
993.3,199,22.6,19.5,83,14.54,75,8.6,296.3,338.4,298.9
992.7,205,22.6,19.5,83,14.51,75,8.6,296.3,338.3,298.9
992.1,210,22.5,19.5,83,14.54,75,8.6,296.4,338.5,298.9
991.4,215,22.5,19.6,84,14.61,75,8.6,296.4,338.7,299.0
990.8,221,22.4,19.6,84,14.66,75,8.6,296.4,338.8,299.0
990.3,226,22.4,19.6,84,14.66,75,8.6,296.4,338.8,299.0
989.7,231,22.4,19.6,84,14.63,75,8.6,296.4,338.8,299.0
989.1,236,22.4,19.5,84,14.59,76,8.6,296.4,338.7,299.0
988.5,241,22.3,19.5,84,14.58,76,8.6,296.5,338.7,299.1
988.0,246,22.3,19.5,84,14.57,76,8.6,296.5,338.7,299.1
987.4,251,22.3,19.5,84,14.58,76,8.6,296.5,338.7,299.1
986.8,256,22.3,19.5,84,14.60,76,8.6,296.6,338.8,299.1
986.3,261,22.3,19.5,84,14.64,76,8.6,296.6,339.0,299.2
985.7,266,22.2,19.6,85,14.74,77,8.6,296.6,339.3,299.2
985.1,271,22.2,19.7,86,14.87,77,8.5,296.6,339.7,299.2
984.5,277,22.1,19.8,87,14.95,77,8.5,296.6,339.9,299.2
983.9,282,22.1,19.8,87,14.96,78,8.5,296.6,339.9,299.2
983.4,287,22.0,19.7,87,14.88,78,8.5,296.6,339.7,299.2
982.8,292,22.0,19.6,86,14.75,78,8.4,296.6,339.3,299.2
982.2,297,22.0,19.4,85,14.62,79,8.4,296.6,339.0,299.2
981.6,303,22.0,19.3,85,14.54,79,8.4,296.7,338.8,299.3
981.0,308,21.9,19.3,85,14.47,79,8.4,296.7,338.6,299.2
980.4,313,21.9,19.1,84,14.37,80,8.3,296.7,338.4,299.2
979.8,319,21.8,19.0,84,14.24,80,8.3,296.7,338.0,299.2
979.2,324,21.8,18.8,83,14.11,81,8.3,296.8,337.7,299.3
978.7,329,21.8,18.7,82,13.99,81,8.3,296.8,337.4,299.3
978.1,333,21.8,18.7,82,13.98,81,8.3,296.9,337.4,299.3
977.6,338,21.8,18.7,83,14.04,82,8.3,296.9,337.6,299.4
977.1,343,21.8,18.8,83,14.09,82,8.3,296.9,337.8,299.4
976.5,347,21.7,18.8,83,14.12,83,8.3,296.9,337.9,299.4
976.0,352,21.7,18.8,84,14.12,83,8.3,296.9,337.9,299.4
975.5,357,21.7,18.8,84,14.11,84,8.3,296.9,337.9,299.4
975.0,361,21.6,18.8,84,14.13,84,8.3,296.9,337.9,299.4
974.4,366,21.6,18.8,84,14.16,85,8.3,297.0,338.0,299.5
973.9,371,21.6,18.8,84,14.18,85,8.4,297.0,338.1,299.5
973.3,376,21.5,18.9,85,14.22,86,8.4,297.0,338.3,299.5
972.7,382,21.5,18.9,85,14.27,86,8.4,297.0,338.4,299.5
972.1,387,21.4,19.0,86,14.35,87,8.5,297.0,338.6,299.5
971.4,393,21.4,19.1,87,14.44,87,8.5,297.0,338.9,299.6
970.8,399,21.4,19.1,87,14.47,88,8.6,297.0,339.0,299.6
970.2,404,21.3,19.1,87,14.48,88,8.6,297.0,339.0,299.6
969.5,410,21.3,19.1,87,14.49,89,8.7,297.0,339.1,299.6
968.9,416,21.2,19.1,88,14.50,89,8.7,297.0,339.1,299.6
968.3,422,21.2,19.1,88,14.51,90,8.8,297.0,339.2,299.6
967.6,427,21.1,19.1,88,14.53,90,8.8,297.0,339.2,299.6
967.0,433,21.1,19.1,88,14.51,91,8.9,297.0,339.2,299.6
966.5,438,21.0,19.0,88,14.48,91,8.9,297.0,339.1,299.6
965.9,443,21.0,19.0,88,14.46,91,8.9,297.1,339.0,299.6
965.3,448,20.9,19.0,89,14.49,92,9.0,297.1,339.1,299.6
964.8,453,20.9,19.0,89,14.52,92,9.0,297.1,339.2,299.7
964.3,458,20.9,19.1,89,14.54,93,9.1,297.1,339.3,299.7
963.7,462,20.8,19.0,90,14.53,93,9.1,297.1,339.3,299.7
963.2,467,20.8,19.0,90,14.53,93,9.1,297.1,339.3,299.7
962.6,472,20.7,19.0,90,14.54,93,9.1,297.1,339.3,299.7
962.1,477,20.7,19.0,90,14.57,94,9.1,297.1,339.4,299.7
961.5,482,20.6,19.1,91,14.58,94,9.1,297.1,339.4,299.7
960.9,488,20.6,19.0,91,14.58,94,9.1,297.1,339.5,299.7
960.3,493,20.6,19.0,91,14.57,94,9.1,297.1,339.4,299.7
959.7,498,20.5,19.0,91,14.57,95,9.1,297.1,339.4,299.7
959.1,504,20.4,19.0,91,14.57,95,9.1,297.1,339.4,299.7
958.5,510,20.4,19.0,91,14.55,95,9.1,297.1,339.4,299.7
957.8,515,20.3,18.9,92,14.53,95,9.1,297.1,339.3,299.7
957.2,521,20.3,18.9,92,14.50,95,9.1,297.1,339.2,299.7
956.6,527,20.2,18.8,92,14.46,95,9.1,297.1,339.1,299.7
955.9,533,20.2,18.8,92,14.44,95,9.1,297.2,339.1,299.7
955.3,539,20.2,18.8,92,14.43,95,9.1,297.2,339.1,299.7
954.7,544,20.1,18.8,92,14.42,95,9.1,297.2,339.1,299.7
954.0,550,20.1,18.8,92,14.42,95,9.1,297.2,339.1,299.8
953.4,555,20.0,18.8,92,14.43,95,9.1,297.2,339.1,299.8
952.8,561,20.0,18.8,93,14.45,95,9.1,297.2,339.2,299.8
952.2,567,20.0,18.8,93,14.46,95,9.1,297.2,339.2,299.8
951.6,572,19.9,18.8,93,14.48,95,9.1,297.2,339.3,299.8
951.0,578,19.9,18.8,93,14.47,95,9.2,297.2,339.3,299.8
950.3,583,19.8,18.7,93,14.45,95,9.2,297.3,339.2,299.8
949.7,589,19.8,18.7,94,14.45,95,9.2,297.3,339.2,299.8
949.1,595,19.7,18.7,94,14.44,95,9.2,297.3,339.2,299.8
948.4,601,19.7,18.7,94,14.43,95,9.3,297.3,339.2,299.8
947.8,607,19.6,18.6,94,14.38,95,9.3,297.3,339.0,299.8
947.1,613,19.6,18.5,94,14.34,95,9.3,297.3,338.9,299.8
946.5,618,19.5,18.5,94,14.31,95,9.4,297.3,338.9,299.8
945.9,624,19.5,18.5,94,14.31,95,9.4,297.3,338.9,299.8
945.3,629,19.4,18.5,94,14.31,95,9.4,297.3,338.9,299.8
944.7,635,19.4,18.5,95,14.32,95,9.5,297.3,338.9,299.9
944.1,640,19.3,18.5,95,14.32,95,9.5,297.3,338.9,299.9
943.6,645,19.3,18.5,95,14.31,95,9.5,297.3,338.9,299.9
943.0,651,19.2,18.4,95,14.29,95,9.5,297.3,338.9,299.9
942.4,656,19.2,18.4,95,14.27,95,9.5,297.3,338.8,299.9
941.9,661,19.2,18.4,95,14.25,95,9.5,297.3,338.8,299.9
941.3,666,19.1,18.4,95,14.25,96,9.5,297.4,338.8,299.9
940.8,671,19.1,18.3,95,14.23,96,9.5,297.4,338.7,299.9
940.2,676,19.0,18.3,95,14.20,96,9.5,297.4,338.7,299.9
939.7,681,19.0,18.2,95,14.17,96,9.4,297.4,338.6,299.9
939.2,686,19.0,18.2,95,14.14,97,9.4,297.4,338.5,299.9
938.6,691,18.9,18.2,96,14.14,97,9.3,297.4,338.5,299.9
938.1,696,18.9,18.2,96,14.15,98,9.2,297.4,338.5,299.9
937.5,701,18.8,18.2,96,14.15,98,9.1,297.4,338.5,299.9
936.9,706,18.8,18.1,96,14.12,98,9.0,297.4,338.4,299.9
936.4,712,18.7,18.1,96,14.07,99,8.9,297.4,338.3,299.9
935.8,717,18.7,18.0,96,14.03,99,8.8,297.4,338.2,299.9
935.2,722,18.6,18.0,96,13.98,99,8.6,297.4,338.1,299.9
934.7,727,18.6,17.9,96,13.94,100,8.5,297.4,338.0,299.9
934.1,732,18.6,17.8,95,13.85,100,8.3,297.5,337.8,299.9
933.6,737,18.6,17.6,94,13.73,100,8.2,297.5,337.4,299.9
933.0,742,18.6,17.5,94,13.61,101,8.0,297.5,337.1,300.0
932.5,747,18.5,17.4,93,13.50,101,7.9,297.6,336.9,300.0
932.0,752,18.5,17.2,92,13.39,101,7.7,297.6,336.6,300.0
931.4,757,18.5,17.1,91,13.26,101,7.5,297.7,336.3,300.0
930.9,761,18.6,16.9,90,13.11,101,7.4,297.7,335.9,300.1
930.4,766,18.6,16.8,89,13.01,101,7.3,297.8,335.7,300.1
929.9,771,18.6,16.7,89,12.98,101,7.1,297.8,335.7,300.1
929.4,776,18.5,16.7,89,13.00,101,7.0,297.8,335.7,300.2
928.9,780,18.5,16.7,89,12.99,100,6.9,297.8,335.7,300.2
928.4,785,18.5,16.7,89,12.95,100,6.8,297.9,335.6,300.2
927.9,789,18.4,16.5,89,12.86,100,6.7,297.9,335.4,300.2
927.5,794,18.4,16.4,88,12.71,99,6.6,297.9,335.0,300.2
927.0,798,18.5,16.2,87,12.60,99,6.5,298.0,334.8,300.2
926.5,802,18.5,16.1,86,12.54,98,6.5,298.0,334.7,300.3
926.1,807,18.5,16.1,86,12.50,98,6.5,298.1,334.6,300.3
925.6,811,18.4,16.0,86,12.49,97,6.5,298.1,334.6,300.3
925.1,816,18.4,16.0,86,12.48,97,6.5,298.1,334.5,300.3
925.0,816,18.4,16.0,86,12.47,97,6.5,298.1,334.5,300.3
924.6,820,18.3,16.0,86,12.48,97,6.5,298.1,334.5,300.3
924.0,825,18.3,16.0,87,12.51,96,6.5,298.1,334.6,300.3
923.5,830,18.2,16.1,88,12.56,96,6.6,298.0,334.7,300.3
923.0,835,18.1,16.1,88,12.54,96,6.6,298.0,334.6,300.3
922.4,840,18.1,16.0,87,12.47,96,6.7,298.0,334.5,300.3
921.9,846,18.1,15.9,87,12.44,96,6.7,298.1,334.4,300.3
921.3,851,18.1,15.9,87,12.44,96,6.8,298.1,334.4,300.3
920.8,856,18.0,15.9,88,12.45,96,6.9,298.1,334.5,300.3
920.2,861,17.9,15.9,88,12.45,96,7.0,298.1,334.4,300.3
919.6,867,17.9,15.9,88,12.45,96,7.1,298.1,334.5,300.3
919.1,872,17.9,15.9,88,12.45,97,7.2,298.1,334.5,300.3
918.5,877,17.8,15.9,89,12.46,97,7.3,298.1,334.5,300.3
917.9,882,17.8,15.9,89,12.49,97,7.4,298.1,334.6,300.3
917.4,888,17.7,15.9,89,12.49,98,7.5,298.1,334.6,300.3
916.8,893,17.7,15.9,89,12.49,98,7.6,298.1,334.6,300.3
916.2,898,17.6,15.9,90,12.49,99,7.6,298.1,334.6,300.3
915.7,904,17.6,15.9,90,12.47,99,7.7,298.1,334.5,300.3
915.1,909,17.5,15.8,90,12.46,100,7.8,298.1,334.5,300.4
914.5,915,17.5,15.8,90,12.46,100,7.9,298.1,334.5,300.4
913.8,921,17.4,15.8,90,12.46,100,8.0,298.1,334.5,300.4
913.2,927,17.3,15.8,91,12.45,101,8.1,298.1,334.5,300.4
912.6,933,17.3,15.7,91,12.42,101,8.1,298.1,334.4,300.4
911.9,939,17.2,15.7,91,12.40,102,8.2,298.1,334.4,300.4
911.3,945,17.2,15.6,90,12.36,102,8.2,298.2,334.3,300.4
910.7,950,17.2,15.6,90,12.32,102,8.3,298.2,334.2,300.4
910.1,956,17.2,15.5,90,12.27,103,8.4,298.3,334.2,300.5
909.5,961,17.2,15.5,90,12.25,103,8.4,298.3,334.1,300.5
909.0,967,17.2,15.5,90,12.24,103,8.4,298.4,334.2,300.5
908.4,972,17.2,15.4,90,12.22,104,8.5,298.4,334.1,300.6
907.9,977,17.1,15.4,89,12.20,104,8.5,298.4,334.1,300.6
907.3,982,17.1,15.4,89,12.20,104,8.5,298.4,334.1,300.6
906.8,987,17.1,15.4,90,12.20,104,8.5,298.4,334.2,300.6
906.3,992,17.0,15.4,90,12.21,105,8.6,298.5,334.2,300.6
905.7,997,17.0,15.4,90,12.20,105,8.6,298.5,334.2,300.6
905.2,1002,16.9,15.3,90,12.19,105,8.6,298.5,334.1,300.6
904.7,1007,16.9,15.3,90,12.18,106,8.6,298.5,334.1,300.6
904.1,1012,16.9,15.3,90,12.16,106,8.6,298.5,334.1,300.7
903.6,1017,16.9,15.3,90,12.16,106,8.6,298.5,334.1,300.7
903.0,1022,16.8,15.3,90,12.16,107,8.6,298.6,334.2,300.7
902.5,1028,16.8,15.3,91,12.19,107,8.6,298.6,334.3,300.8
902.0,1033,16.8,15.3,91,12.24,108,8.6,298.6,334.4,300.8
901.4,1038,16.7,15.4,92,12.27,108,8.6,298.6,334.5,300.8
900.9,1043,16.7,15.4,92,12.29,108,8.6,298.6,334.5,300.8
900.3,1048,16.6,15.4,92,12.29,109,8.6,298.6,334.6,300.8
899.8,1053,16.6,15.4,93,12.28,109,8.5,298.6,334.5,300.8
899.3,1058,16.5,15.4,93,12.29,109,8.5,298.6,334.6,300.8
898.8,1063,16.5,15.4,93,12.31,110,8.5,298.6,334.6,300.8
898.2,1068,16.5,15.4,93,12.34,110,8.5,298.6,334.7,300.8
897.7,1073,16.4,15.4,94,12.34,110,8.5,298.6,334.8,300.9
897.2,1078,16.4,15.4,94,12.33,110,8.5,298.7,334.8,300.9
896.7,1083,16.4,15.3,94,12.31,110,8.4,298.7,334.7,300.9
896.1,1088,16.3,15.3,94,12.30,111,8.4,298.7,334.7,300.9
895.6,1093,16.3,15.3,94,12.31,111,8.4,298.7,334.7,300.9
895.0,1098,16.2,15.3,94,12.32,111,8.4,298.7,334.8,300.9
894.5,1104,16.2,15.3,95,12.33,111,8.4,298.7,334.8,300.9
893.9,1109,16.1,15.3,95,12.34,110,8.3,298.7,334.9,300.9
893.3,1115,16.1,15.3,95,12.35,110,8.3,298.7,334.9,300.9
892.8,1120,16.0,15.3,95,12.36,110,8.3,298.7,334.9,300.9
892.2,1126,16.0,15.3,96,12.37,110,8.3,298.7,334.9,300.9
891.5,1132,15.9,15.3,96,12.38,110,8.3,298.7,335.0,300.9
890.9,1138,15.9,15.3,96,12.36,109,8.2,298.7,334.9,300.9
890.3,1143,15.8,15.3,96,12.34,109,8.2,298.7,334.8,300.9
889.7,1149,15.8,15.2,96,12.30,109,8.2,298.7,334.7,300.9
889.2,1155,15.7,15.1,96,12.26,108,8.2,298.7,334.6,300.9
888.6,1160,15.7,15.1,96,12.24,108,8.2,298.7,334.6,300.9
888.1,1165,15.6,15.1,97,12.26,108,8.2,298.7,334.6,300.9
887.5,1171,15.6,15.1,97,12.28,107,8.2,298.7,334.7,300.9
886.9,1176,15.5,15.1,97,12.29,107,8.1,298.8,334.7,301.0
886.4,1181,15.5,15.1,98,12.29,106,8.1,298.8,334.8,301.0
885.8,1187,15.5,15.1,98,12.27,106,8.1,298.8,334.7,301.0
885.3,1192,15.4,15.1,98,12.26,106,8.1,298.8,334.7,301.0
884.7,1198,15.4,15.1,98,12.28,105,8.1,298.8,334.8,301.0
884.1,1203,15.3,15.1,98,12.30,105,8.0,298.8,334.9,301.0
883.5,1209,15.3,15.1,99,12.31,105,8.0,298.8,334.9,301.1
882.9,1214,15.3,15.1,99,12.31,105,8.0,298.8,334.9,301.1
882.3,1220,15.2,15.1,99,12.29,105,7.9,298.9,334.9,301.1
881.7,1226,15.2,15.0,99,12.25,105,7.9,298.9,334.8,301.1
881.1,1232,15.2,14.9,99,12.22,104,7.8,298.9,334.8,301.1
880.4,1239,15.2,14.9,98,12.18,104,7.8,299.0,334.7,301.2
879.8,1245,15.1,14.8,98,12.14,104,7.7,299.0,334.6,301.2
879.1,1251,15.1,14.8,98,12.09,105,7.6,299.1,334.6,301.2
878.5,1257,15.1,14.7,98,12.07,105,7.6,299.1,334.5,301.3
877.9,1263,15.1,14.7,98,12.06,105,7.5,299.1,334.5,301.3
877.3,1269,15.0,14.7,98,12.08,105,7.4,299.2,334.6,301.3
876.6,1275,15.0,14.7,98,12.11,105,7.3,299.2,334.7,301.4
876.0,1281,15.0,14.7,98,12.11,106,7.2,299.2,334.8,301.4
875.4,1287,15.0,14.7,98,12.07,106,7.1,299.3,334.7,301.4
874.8,1293,15.0,14.6,98,12.02,106,7.0,299.3,334.6,301.5
874.3,1298,15.0,14.5,97,11.97,106,6.9,299.4,334.5,301.5
873.7,1304,14.9,14.5,97,11.96,107,6.8,299.4,334.6,301.6
873.2,1309,14.9,14.5,97,11.99,107,6.8,299.4,334.7,301.6
872.6,1314,14.9,14.6,98,12.03,107,6.7,299.5,334.8,301.6
872.1,1319,14.8,14.6,98,12.06,108,6.6,299.5,334.9,301.6
871.6,1324,14.8,14.6,99,12.06,108,6.5,299.5,335.0,301.7
871.1,1329,14.8,14.5,98,12.04,108,6.4,299.5,334.9,301.7
870.6,1334,14.8,14.5,98,11.99,108,6.4,299.5,334.8,301.7
870.1,1339,14.8,14.4,98,11.93,108,6.3,299.6,334.7,301.7
869.6,1344,14.8,14.3,97,11.89,108,6.2,299.6,334.6,301.8
869.1,1349,14.7,14.3,97,11.89,108,6.2,299.7,334.7,301.8
868.6,1353,14.7,14.4,98,11.94,108,6.1,299.7,334.8,301.8
868.1,1358,14.6,14.4,99,11.97,108,6.1,299.6,334.9,301.8
867.6,1363,14.6,14.4,98,11.94,107,6.0,299.7,334.8,301.8
867.2,1367,14.6,14.3,98,11.89,107,6.0,299.7,334.7,301.8
866.7,1372,14.6,14.2,98,11.86,106,6.0,299.7,334.6,301.8
866.3,1376,14.6,14.2,98,11.84,106,6.0,299.7,334.6,301.9
865.8,1380,14.5,14.2,98,11.83,105,6.0,299.8,334.6,301.9
865.4,1385,14.5,14.2,98,11.81,104,6.0,299.8,334.6,301.9
865.0,1389,14.5,14.1,98,11.79,103,6.0,299.8,334.5,301.9
864.5,1393,14.4,14.1,98,11.78,103,6.0,299.8,334.5,301.9
864.1,1398,14.4,14.0,98,11.73,102,6.0,299.8,334.4,301.9
863.6,1402,14.4,13.9,97,11.67,101,6.0,299.8,334.2,301.9
863.2,1407,14.4,13.8,96,11.60,100,6.0,299.9,334.1,302.0
862.7,1411,14.4,13.8,96,11.56,99,6.0,299.9,334.0,302.0
862.2,1416,14.4,13.7,96,11.53,99,6.1,300.0,334.0,302.1
861.8,1420,14.4,13.7,96,11.53,98,6.1,300.0,334.0,302.1
861.3,1425,14.4,13.7,96,11.54,97,6.1,300.1,334.1,302.1
860.8,1430,14.3,13.8,96,11.57,97,6.1,300.1,334.2,302.1
860.4,1434,14.3,13.8,97,11.60,96,6.1,300.0,334.2,302.1
859.9,1439,14.2,13.8,97,11.61,96,6.1,300.0,334.3,302.1
859.4,1444,14.2,13.8,97,11.62,96,6.1,300.1,334.3,302.1
858.9,1448,14.1,13.8,98,11.61,95,6.1,300.1,334.3,302.1
858.4,1453,14.1,13.7,97,11.54,95,6.1,300.1,334.1,302.2
857.9,1458,14.1,13.6,96,11.45,95,6.1,300.1,333.9,302.2
857.4,1463,14.1,13.5,96,11.41,95,6.1,300.2,333.8,302.2
856.9,1468,14.1,13.4,96,11.38,95,6.1,300.2,333.8,302.2
856.4,1474,14.0,13.4,96,11.37,95,6.0,300.2,333.8,302.2
855.8,1479,14.0,13.5,96,11.41,95,6.0,300.2,333.9,302.3
855.2,1485,14.0,13.6,97,11.49,95,5.9,300.2,334.1,302.3
854.6,1491,13.9,13.6,98,11.55,95,5.9,300.2,334.3,302.3
854.0,1497,13.8,13.6,99,11.55,96,5.8,300.2,334.3,302.3
853.4,1504,13.8,13.5,99,11.51,96,5.8,300.2,334.2,302.3
852.7,1510,13.7,13.5,99,11.47,96,5.7,300.2,334.1,302.3
852.1,1516,13.7,13.5,99,11.46,96,5.6,300.3,334.1,302.3
851.6,1521,13.7,13.4,99,11.46,97,5.6,300.3,334.1,302.4
851.0,1527,13.7,13.4,99,11.46,97,5.5,300.3,334.2,302.4
850.5,1532,13.6,13.4,99,11.46,97,5.4,300.4,334.2,302.4
850.0,1537,13.6,13.4,99,11.46,97,5.4,300.4,334.3,302.5
849.9,1538,13.6,13.4,99,11.46,97,5.4,300.4,334.3,302.5
849.4,1543,13.6,13.4,99,11.47,97,5.3,300.5,334.3,302.5
848.9,1548,13.6,13.4,99,11.49,98,5.2,300.5,334.4,302.6
848.3,1554,13.6,13.4,99,11.49,98,5.1,300.5,334.5,302.6
847.8,1559,13.6,13.4,99,11.51,98,5.1,300.5,334.6,302.6
847.2,1564,13.5,13.5,99,11.52,98,5.0,300.6,334.7,302.7
846.7,1570,13.6,13.4,99,11.52,98,4.9,300.7,334.7,302.7
846.1,1575,13.6,13.4,99,11.51,98,4.9,300.7,334.8,302.8
845.6,1581,13.5,13.4,99,11.49,98,4.8,300.7,334.7,302.8
845.0,1586,13.5,13.3,99,11.47,98,4.7,300.8,334.7,302.8
844.5,1592,13.5,13.3,99,11.42,98,4.7,300.8,334.6,302.8
843.9,1597,13.4,13.1,98,11.33,98,4.6,300.8,334.4,302.9
843.4,1603,13.4,13.0,97,11.20,98,4.6,300.8,334.0,302.9
842.8,1608,13.4,12.7,95,11.00,98,4.6,300.9,333.5,302.9
842.3,1613,13.4,12.4,93,10.77,97,4.5,300.9,332.9,302.9
841.8,1619,13.4,12.2,92,10.64,97,4.5,301.0,332.5,302.9
841.3,1624,13.4,12.1,92,10.59,97,4.4,301.0,332.4,302.9
840.8,1629,13.4,12.1,92,10.60,96,4.4,301.1,332.5,303.0
840.3,1634,13.3,12.2,93,10.69,96,4.4,301.0,332.7,303.0
839.7,1639,13.2,12.4,95,10.81,95,4.4,301.0,333.0,302.9
839.2,1645,13.1,12.3,95,10.81,94,4.4,300.9,333.0,302.9
838.7,1650,13.1,12.2,94,10.70,94,4.4,301.0,332.7,302.9
838.1,1655,13.1,12.0,93,10.60,93,4.4,301.1,332.5,303.0
837.6,1661,13.1,12.0,93,10.56,92,4.4,301.1,332.5,303.0
837.0,1667,13.1,11.9,93,10.53,91,4.4,301.2,332.4,303.1
836.5,1672,13.1,11.8,92,10.47,91,4.4,301.2,332.3,303.1
835.9,1678,13.1,11.8,92,10.43,90,4.4,301.2,332.2,303.1
835.4,1683,13.0,11.7,92,10.42,89,4.5,301.3,332.2,303.1
834.8,1689,13.0,11.7,92,10.38,88,4.5,301.3,332.1,303.2
834.3,1694,13.0,11.5,91,10.29,88,4.5,301.4,332.0,303.2
833.7,1700,13.1,11.4,90,10.23,87,4.6,301.5,331.9,303.3
833.2,1705,13.1,11.4,90,10.23,86,4.6,301.5,332.0,303.4
832.7,1710,13.1,11.4,90,10.25,86,4.7,301.6,332.1,303.5
832.1,1716,13.1,11.5,90,10.32,85,4.7,301.7,332.4,303.6
831.6,1721,13.1,11.6,91,10.41,85,4.8,301.7,332.7,303.6
831.0,1727,13.0,11.7,92,10.49,84,4.8,301.7,332.9,303.6
830.5,1733,12.9,11.7,92,10.48,84,4.9,301.7,332.8,303.6
829.9,1738,12.9,11.6,92,10.41,84,5.0,301.7,332.7,303.6
829.4,1744,12.8,11.6,92,10.37,83,5.0,301.7,332.6,303.6
828.8,1750,12.8,11.6,92,10.40,83,5.1,301.7,332.7,303.6
828.3,1755,12.8,11.6,93,10.45,83,5.1,301.7,332.8,303.6
827.7,1761,12.8,11.7,93,10.46,83,5.2,301.8,332.9,303.7
827.2,1767,12.8,11.6,93,10.44,83,5.2,301.9,333.0,303.8
826.6,1772,12.8,11.6,92,10.41,83,5.2,302.0,333.0,303.9
826.1,1777,12.9,11.5,92,10.39,82,5.3,302.0,333.0,303.9
825.6,1783,12.9,11.5,91,10.37,82,5.3,302.1,333.0,304.0
825.1,1788,12.8,11.4,91,10.34,82,5.3,302.1,333.0,304.0
824.6,1793,12.9,11.3,91,10.29,82,5.4,302.2,332.9,304.1
824.1,1798,12.9,11.3,90,10.24,81,5.4,302.3,332.8,304.1
823.5,1804,12.9,11.2,89,10.20,81,5.4,302.4,332.8,304.2
823.0,1809,13.0,11.2,89,10.18,81,5.4,302.5,332.9,304.3
822.5,1815,13.0,11.1,88,10.16,80,5.4,302.6,332.9,304.4
821.9,1820,13.0,11.1,88,10.12,80,5.4,302.7,332.9,304.5
821.3,1826,13.0,11.0,87,10.06,79,5.5,302.7,332.9,304.6
820.8,1832,13.1,10.9,87,10.01,78,5.5,302.8,332.8,304.6
820.2,1838,13.1,10.8,86,9.98,77,5.5,302.9,332.8,304.7
819.7,1843,13.0,10.8,86,9.97,76,5.5,302.9,332.7,304.7
819.1,1849,13.0,10.8,86,9.97,75,5.5,302.9,332.8,304.7
818.6,1855,13.0,10.8,87,9.97,74,5.5,302.9,332.8,304.8
818.0,1860,12.9,10.8,87,9.97,73,5.5,302.9,332.8,304.8
817.5,1866,12.9,10.8,87,9.99,72,5.5,303.0,332.9,304.8
817.0,1871,12.8,10.8,87,10.01,71,5.5,303.0,333.0,304.8
816.4,1877,12.8,10.8,88,10.03,70,5.5,303.0,333.1,304.8
815.9,1882,12.8,10.9,88,10.06,68,5.6,303.0,333.2,304.9
815.4,1887,12.8,10.9,88,10.09,67,5.6,303.1,333.3,304.9
814.9,1892,12.7,10.9,89,10.11,66,5.6,303.1,333.4,304.9
814.4,1897,12.7,10.9,89,10.12,65,5.6,303.1,333.4,304.9
813.9,1902,12.6,10.9,89,10.09,64,5.6,303.1,333.3,304.9
813.4,1908,12.6,10.8,89,10.05,62,5.6,303.1,333.2,304.9
813.0,1913,12.5,10.8,89,10.04,61,5.6,303.1,333.2,304.9
812.5,1917,12.5,10.8,89,10.06,60,5.6,303.1,333.2,304.9
812.0,1922,12.4,10.9,90,10.14,60,5.6,303.1,333.5,304.9
811.5,1927,12.4,11.0,91,10.24,59,5.6,303.1,333.8,305.0
811.1,1932,12.4,11.1,92,10.28,58,5.5,303.1,333.9,305.0
