PRES,HGHT,TEMP,DWPT,RELH,MIXR,DRCT,SPED,THTA,THTE,THTV
1012.5,31,24.5,22.0,86,16.68,67,4.9,296.6,344.9,299.6
1012.0,35,24.9,22.0,84,16.67,75,3.7,297.1,345.4,300.0
1011.4,40,25.2,22.0,82,16.64,79,3.6,297.4,345.7,300.3
1010.6,47,25.3,21.9,81,16.58,80,3.8,297.6,345.8,300.5
1009.8,54,25.3,21.7,81,16.43,80,4.1,297.6,345.4,300.5
1009.3,58,25.3,21.6,80,16.35,80,4.4,297.7,345.3,300.6
1008.8,63,25.4,21.6,79,16.29,80,4.8,297.8,345.2,300.7
1008.1,69,25.4,21.5,79,16.27,80,5.1,297.8,345.2,300.7
1007.5,75,25.3,21.6,80,16.30,80,5.5,297.8,345.3,300.7
1006.9,80,25.2,21.6,80,16.31,81,5.8,297.8,345.3,300.7
1006.3,85,25.2,21.5,80,16.30,81,6.1,297.8,345.3,300.7
1005.7,90,25.2,21.5,80,16.27,81,6.4,297.8,345.2,300.7
1005.1,95,25.1,21.5,80,16.24,81,6.7,297.8,345.1,300.7
1004.5,101,25.1,21.4,80,16.21,81,7.0,297.8,345.0,300.7
1003.9,106,25.0,21.4,80,16.19,81,7.3,297.8,345.0,300.7
1003.3,111,25.0,21.4,81,16.20,81,7.6,297.8,345.0,300.7
1002.6,117,24.9,21.5,81,16.29,81,7.9,297.8,345.3,300.7
1002.0,123,24.9,21.5,82,16.37,81,8.2,297.8,345.5,300.8
1001.3,128,24.8,21.5,82,16.35,81,8.4,297.8,345.4,300.7
1000.7,134,24.8,21.4,82,16.23,81,8.7,297.8,345.1,300.7
1000.0,140,24.7,21.2,81,16.10,81,9.1,297.9,344.7,300.7
999.4,146,24.7,21.1,81,16.00,81,9.1,297.9,344.5,300.7
998.7,151,24.6,21.0,80,15.90,81,9.3,297.9,344.2,300.7
998.1,157,24.6,20.9,80,15.81,81,9.5,297.9,343.9,300.7
997.5,162,24.5,20.9,80,15.77,81,9.6,297.9,343.8,300.7
996.9,167,24.5,20.9,80,15.76,80,9.8,297.9,343.8,300.7
996.3,172,24.4,20.9,80,15.76,80,9.9,297.9,343.8,300.7
995.8,177,24.4,20.9,81,15.78,80,10.0,297.9,343.9,300.7
995.2,183,24.4,20.9,81,15.81,79,10.1,297.9,344.0,300.7
994.6,188,24.3,20.9,81,15.86,79,10.2,297.9,344.2,300.8
994.0,193,24.3,21.0,82,15.92,79,10.3,297.9,344.3,300.8
993.4,199,24.2,21.0,82,15.97,79,10.3,297.9,344.5,300.8
992.8,204,24.1,21.0,83,15.98,78,10.4,297.9,344.5,300.8
992.1,209,24.1,21.0,83,15.97,78,10.4,297.9,344.4,300.7
991.5,215,24.0,21.0,83,15.97,78,10.4,297.9,344.4,300.8
991.0,220,24.0,20.9,83,15.94,77,10.4,297.9,344.3,300.7
990.4,225,23.9,20.9,83,15.87,77,10.5,297.9,344.1,300.7
989.9,229,23.9,20.8,83,15.81,77,10.5,297.9,344.0,300.7
989.4,234,23.9,20.8,83,15.83,77,10.4,297.9,344.1,300.8
988.9,239,23.9,20.8,83,15.87,77,10.4,297.9,344.2,300.8
988.3,243,23.8,20.8,84,15.89,76,10.4,297.9,344.2,300.8
987.8,248,23.7,20.8,84,15.87,76,10.4,297.9,344.2,300.8
987.2,253,23.7,20.8,84,15.89,76,10.4,297.9,344.2,300.8
986.6,258,23.6,20.9,84,15.93,76,10.4,297.9,344.4,300.8
986.0,264,23.6,20.8,85,15.92,76,10.3,297.9,344.3,300.8
985.4,269,23.5,20.8,85,15.87,76,10.3,297.9,344.2,300.8
984.9,274,23.5,20.7,85,15.84,76,10.3,297.9,344.1,300.8
984.3,279,23.5,20.7,85,15.84,76,10.2,297.9,344.1,300.8
983.7,285,23.4,20.7,85,15.83,76,10.2,297.9,344.1,300.8
983.1,290,23.4,20.7,85,15.78,77,10.2,297.9,343.9,300.8
982.5,295,23.3,20.6,85,15.71,77,10.1,298.0,343.7,300.8
981.8,301,23.3,20.5,85,15.68,77,10.1,298.0,343.7,300.8
981.2,306,23.2,20.5,85,15.70,77,10.1,298.0,343.7,300.8
980.6,312,23.2,20.6,85,15.74,78,10.0,298.0,343.9,300.8
980.0,317,23.1,20.6,86,15.76,78,10.0,298.0,343.9,300.8
979.4,323,23.1,20.6,86,15.79,78,10.0,298.0,344.0,300.8
978.8,328,23.0,20.6,87,15.83,78,10.0,298.0,344.1,300.8
978.2,333,22.9,20.6,87,15.83,79,9.9,298.0,344.1,300.8
977.7,338,22.9,20.6,87,15.81,79,9.9,297.9,344.0,300.8
977.1,343,22.8,20.6,87,15.78,79,9.9,297.9,343.9,300.8
976.6,348,22.8,20.5,87,15.75,79,9.9,297.9,343.8,300.8
976.0,353,22.8,20.4,87,15.69,80,9.9,298.0,343.7,300.8
975.5,358,22.7,20.4,87,15.67,80,9.8,298.0,343.6,300.8
974.9,363,22.7,20.4,87,15.67,80,9.8,298.0,343.6,300.8
974.4,367,22.6,20.4,87,15.67,80,9.8,298.0,343.6,300.8
973.9,372,22.6,20.4,87,15.68,81,9.8,298.0,343.7,300.8
973.4,376,22.6,20.5,88,15.74,81,9.8,298.0,343.9,300.8
972.9,381,22.5,20.5,88,15.81,81,9.8,298.0,344.1,300.8
972.4,385,22.5,20.5,89,15.82,81,9.7,298.0,344.1,300.8
971.9,390,22.4,20.5,89,15.77,81,9.7,298.0,343.9,300.8
971.5,394,22.4,20.4,89,15.75,82,9.7,298.0,343.9,300.8
971.0,398,22.3,20.5,89,15.82,82,9.7,298.0,344.1,300.8
970.5,403,22.3,20.6,90,15.94,82,9.7,298.0,344.4,300.8
970.0,407,22.2,20.7,91,16.02,82,9.7,297.9,344.6,300.8
969.5,411,22.2,20.7,91,16.02,82,9.7,297.9,344.6,300.8
969.0,416,22.1,20.6,91,15.99,83,9.7,297.9,344.5,300.8
968.5,421,22.1,20.6,91,15.98,83,9.7,297.9,344.5,300.8
968.0,425,22.0,20.6,92,16.00,83,9.7,297.9,344.6,300.8
967.5,430,22.0,20.6,92,16.02,83,9.7,297.9,344.6,300.8
966.9,435,21.9,20.6,92,16.04,84,9.7,297.9,344.7,300.8
966.4,439,21.9,20.7,93,16.06,84,9.7,297.9,344.7,300.8
965.9,444,21.8,20.7,93,16.07,84,9.7,297.9,344.7,300.8
965.3,449,21.8,20.6,93,16.04,84,9.7,297.9,344.6,300.8
964.8,454,21.7,20.6,93,16.02,85,9.7,297.9,344.6,300.8
964.2,459,21.7,20.6,93,16.02,85,9.7,297.9,344.6,300.8
963.7,464,21.6,20.6,94,16.04,85,9.7,297.9,344.6,300.8
963.1,469,21.6,20.6,94,16.07,85,9.7,297.9,344.7,300.8
962.5,475,21.5,20.6,94,16.08,85,9.7,297.9,344.7,300.8
961.9,480,21.5,20.6,95,16.06,86,9.8,297.9,344.7,300.8
961.3,485,21.4,20.5,95,16.04,86,9.8,297.9,344.6,300.8
960.7,491,21.4,20.5,95,16.02,86,9.8,297.9,344.6,300.8
960.1,496,21.3,20.5,95,16.01,86,9.8,297.9,344.5,300.8
959.5,502,21.3,20.5,95,16.01,86,9.8,297.9,344.5,300.8
958.9,507,21.2,20.5,96,16.01,87,9.9,297.9,344.5,300.8
958.4,512,21.2,20.5,96,16.03,87,9.9,297.9,344.6,300.8
957.8,517,21.1,20.5,96,16.03,87,9.9,297.9,344.6,300.8
957.2,523,21.1,20.4,96,15.97,87,10.0,297.9,344.5,300.8
956.6,528,21.1,20.3,96,15.90,87,10.0,298.0,344.3,300.8
956.1,533,21.0,20.3,96,15.85,87,10.0,297.9,344.1,300.8
955.5,538,21.0,20.3,96,15.84,87,10.1,298.0,344.1,300.8
954.9,544,20.9,20.2,96,15.82,87,10.1,298.0,344.1,300.8
954.3,549,20.9,20.1,95,15.72,87,10.2,298.0,343.8,300.8
953.7,555,20.9,19.9,94,15.54,87,10.2,298.0,343.3,300.8
953.1,560,20.9,19.9,94,15.49,87,10.2,298.1,343.2,300.8
952.5,566,20.8,20.0,95,15.64,87,10.3,298.1,343.7,300.9
951.9,571,20.7,20.2,97,15.80,87,10.3,298.0,344.1,300.9
951.2,577,20.6,20.2,98,15.89,87,10.4,298.0,344.3,300.8
950.6,583,20.6,20.2,98,15.87,87,10.4,298.0,344.2,300.8
950.0,588,20.5,20.1,97,15.77,87,10.4,298.0,343.9,300.8
949.4,594,20.5,20.0,97,15.67,87,10.5,298.0,343.6,300.8
948.7,600,20.4,19.8,96,15.51,87,10.5,298.0,343.2,300.8
948.1,605,20.4,19.4,94,15.14,87,10.6,298.0,342.2,300.7
947.5,611,20.4,19.0,92,14.76,87,10.6,298.1,341.1,300.8
946.9,616,20.5,18.9,91,14.63,87,10.6,298.2,340.9,300.8
946.4,622,20.5,18.9,91,14.70,87,10.6,298.3,341.1,300.9
945.8,627,20.4,19.0,92,14.77,87,10.7,298.3,341.4,300.9
945.2,632,20.3,19.0,92,14.82,87,10.7,298.3,341.5,300.9
944.7,637,20.3,19.1,93,14.87,87,10.7,298.2,341.6,300.9
944.1,642,20.3,19.1,93,14.89,87,10.7,298.3,341.7,300.9
943.5,648,20.2,19.1,93,14.90,87,10.7,298.3,341.7,300.9
943.0,653,20.2,19.0,93,14.87,87,10.7,298.3,341.7,300.9
942.4,658,20.1,19.0,93,14.79,86,10.7,298.3,341.5,300.9
941.9,663,20.1,18.8,92,14.69,86,10.7,298.3,341.2,300.9
941.3,668,20.1,18.7,92,14.61,86,10.7,298.4,341.0,301.0
940.7,673,20.1,18.7,92,14.59,86,10.7,298.4,341.0,301.0
940.2,678,20.0,18.7,92,14.59,86,10.7,298.4,341.0,301.0
939.6,683,20.0,18.7,92,14.56,86,10.7,298.4,340.9,301.0
939.1,688,19.9,18.6,92,14.51,86,10.7,298.4,340.7,301.0
938.5,693,19.9,18.5,92,14.46,86,10.7,298.4,340.6,301.0
938.0,699,19.8,18.5,92,14.44,85,10.7,298.4,340.6,301.0
937.4,704,19.8,18.5,92,14.46,85,10.6,298.4,340.6,301.0
936.9,709,19.8,18.5,93,14.48,85,10.6,298.4,340.7,301.0
936.3,714,19.7,18.5,93,14.47,85,10.6,298.4,340.7,301.0
935.7,720,19.7,18.5,93,14.44,85,10.6,298.4,340.6,301.0
935.1,726,19.6,18.4,93,14.38,85,10.6,298.4,340.5,301.0
934.5,731,19.6,18.3,92,14.26,85,10.5,298.5,340.1,301.0
933.9,737,19.6,18.0,91,14.06,85,10.5,298.5,339.6,301.0
933.3,742,19.6,17.7,89,13.80,85,10.5,298.6,339.0,301.1
932.7,748,19.7,17.5,87,13.60,85,10.5,298.7,338.5,301.1
932.1,753,19.7,17.4,86,13.51,84,10.4,298.8,338.3,301.2
931.6,758,19.7,17.3,86,13.50,84,10.4,298.8,338.3,301.2
931.1,763,19.7,17.4,86,13.51,84,10.4,298.9,338.4,301.3
930.5,767,19.7,17.4,87,13.56,84,10.4,298.9,338.6,301.4
930.0,772,19.7,17.4,87,13.60,84,10.4,298.9,338.8,301.4
929.5,777,19.6,17.4,87,13.57,84,10.4,298.9,338.7,301.4
929.1,781,19.6,17.4,87,13.55,84,10.4,299.0,338.6,301.4
928.6,786,19.6,17.4,87,13.57,84,10.3,299.0,338.7,301.4
928.1,790,19.5,17.4,88,13.61,84,10.3,299.0,338.8,301.4
927.6,795,19.5,17.4,88,13.63,84,10.3,299.0,338.9,301.4
927.1,800,19.4,17.4,88,13.63,84,10.3,299.0,338.9,301.4
926.5,805,19.4,17.4,88,13.63,84,10.3,299.0,338.9,301.4
926.0,810,19.3,17.4,88,13.61,84,10.3,299.0,338.9,301.4
925.5,815,19.3,17.4,89,13.60,84,10.4,299.0,338.8,301.4
925.0,819,19.3,17.3,88,13.56,84,10.4,299.0,338.7,301.4
924.9,820,19.3,17.3,88,13.55,84,10.4,299.0,338.7,301.4
924.3,825,19.2,17.2,88,13.50,84,10.4,299.0,338.6,301.4
923.8,831,19.2,17.1,88,13.44,84,10.4,299.0,338.4,301.4
923.2,836,19.2,17.0,88,13.36,85,10.4,299.1,338.2,301.4
922.6,841,19.1,16.9,87,13.28,85,10.4,299.1,338.0,301.5
922.0,847,19.1,16.9,87,13.23,85,10.5,299.1,337.9,301.5
921.5,852,19.0,16.9,87,13.24,85,10.5,299.1,337.9,301.5
920.9,857,19.0,16.9,88,13.26,85,10.5,299.1,338.0,301.5
920.3,863,19.0,16.9,88,13.28,85,10.6,299.1,338.0,301.5
919.8,868,18.9,16.9,88,13.31,85,10.6,299.1,338.2,301.5
919.2,873,18.9,16.9,89,13.33,85,10.6,299.1,338.2,301.5
918.7,878,18.8,16.9,89,13.31,85,10.7,299.1,338.1,301.5
918.1,884,18.8,16.9,89,13.30,85,10.7,299.1,338.1,301.5
917.5,889,18.7,16.9,89,13.31,85,10.7,299.1,338.1,301.5
916.9,895,18.7,16.9,89,13.31,85,10.8,299.1,338.2,301.5
916.3,901,18.6,16.9,90,13.31,85,10.8,299.1,338.2,301.5
915.7,906,18.5,16.9,90,13.31,85,10.8,299.1,338.1,301.5
915.1,912,18.5,16.8,90,13.30,85,10.9,299.1,338.1,301.5
914.4,918,18.4,16.8,90,13.27,85,10.9,299.1,338.1,301.5
913.8,924,18.4,16.7,90,13.19,85,10.9,299.2,337.8,301.5
913.2,930,18.4,16.5,88,13.02,85,10.9,299.2,337.4,301.6
912.5,936,18.5,16.2,87,12.78,85,10.9,299.3,336.9,301.6
911.9,942,18.5,15.9,85,12.59,85,10.9,299.5,336.5,301.7
911.2,948,18.6,15.8,84,12.50,85,11.0,299.6,336.3,301.8
910.6,954,18.6,15.8,84,12.47,85,11.0,299.6,336.3,301.9
910.0,960,18.5,15.7,84,12.43,85,11.0,299.6,336.2,301.9
909.5,965,18.5,15.7,84,12.42,85,11.0,299.6,336.1,301.9
908.9,970,18.4,15.7,84,12.44,85,11.0,299.7,336.2,301.9
908.4,975,18.4,15.7,84,12.47,85,11.0,299.7,336.4,301.9
907.8,980,18.4,15.8,85,12.53,85,11.0,299.7,336.6,302.0
907.3,985,18.3,15.9,86,12.60,85,11.0,299.7,336.7,302.0
906.8,990,18.2,15.9,86,12.66,85,11.0,299.6,336.8,301.9
906.2,995,18.1,15.9,87,12.68,85,11.0,299.6,336.9,301.9
905.7,1000,18.1,16.0,87,12.69,85,11.0,299.6,336.9,301.9
905.2,1005,18.1,16.0,88,12.72,85,10.9,299.6,337.0,301.9
904.7,1010,18.0,16.0,88,12.74,85,10.9,299.6,337.0,301.9
904.2,1015,17.9,15.9,88,12.69,85,10.9,299.5,336.8,301.8
903.7,1020,17.9,15.8,88,12.59,85,10.9,299.6,336.5,301.8
903.2,1024,17.9,15.7,87,12.51,85,10.9,299.6,336.4,301.8
902.7,1029,17.9,15.7,87,12.50,86,10.9,299.6,336.4,301.9
902.3,1033,17.8,15.7,87,12.52,86,10.9,299.7,336.5,301.9
901.8,1038,17.8,15.7,88,12.56,86,10.9,299.7,336.6,301.9
901.3,1042,17.8,15.7,88,12.58,86,10.9,299.7,336.7,301.9
900.8,1047,17.7,15.7,88,12.57,87,10.9,299.7,336.7,301.9
900.3,1051,17.7,15.7,88,12.53,87,10.9,299.7,336.5,301.9
899.9,1056,17.6,15.6,88,12.47,87,10.9,299.7,336.3,301.9
899.4,1061,17.6,15.5,88,12.43,87,10.9,299.7,336.2,301.9
898.9,1065,17.6,15.5,88,12.42,88,10.9,299.7,336.2,301.9
898.4,1070,17.5,15.5,88,12.43,88,10.9,299.7,336.3,301.9
897.9,1074,17.5,15.5,88,12.44,88,10.9,299.7,336.3,302.0
897.5,1079,17.5,15.5,88,12.44,88,10.9,299.8,336.4,302.0
896.9,1084,17.5,15.5,88,12.42,88,10.8,299.8,336.3,302.0
896.4,1089,17.4,15.4,88,12.39,89,10.8,299.8,336.3,302.0
895.9,1094,17.4,15.4,88,12.36,89,10.8,299.8,336.2,302.1
895.4,1099,17.4,15.3,88,12.34,89,10.8,299.8,336.1,302.0
894.8,1104,17.3,15.3,88,12.31,89,10.7,299.8,336.1,302.1
894.3,1109,17.3,15.2,88,12.26,89,10.7,299.8,335.9,302.0
893.8,1114,17.2,15.2,88,12.21,89,10.7,299.8,335.8,302.0
893.3,1119,17.2,15.1,87,12.15,89,10.6,299.8,335.6,302.0
892.8,1124,17.1,15.0,87,12.09,89,10.6,299.8,335.4,302.0
892.3,1129,17.1,14.9,87,12.01,89,10.5,299.9,335.3,302.1
891.8,1133,17.1,14.8,86,11.97,89,10.5,299.9,335.2,302.1
891.3,1138,17.1,14.8,86,11.94,89,10.4,300.0,335.1,302.1
890.9,1142,17.1,14.8,86,11.95,89,10.4,299.9,335.2,302.1
890.4,1146,17.0,14.8,87,11.97,89,10.3,300.0,335.2,302.1
890.0,1151,17.0,14.8,87,12.01,89,10.3,300.0,335.3,302.1
889.5,1155,16.9,14.9,88,12.05,89,10.2,300.0,335.5,302.1
889.1,1159,16.9,14.9,88,12.07,89,10.2,299.9,335.5,302.1
888.6,1164,16.9,14.9,88,12.06,89,10.1,300.0,335.5,302.1
888.2,1168,16.8,14.9,88,12.05,89,10.1,300.0,335.5,302.1
887.8,1172,16.8,14.9,88,12.07,88,10.1,300.0,335.5,302.1
887.3,1176,16.7,14.9,89,12.10,88,10.0,300.0,335.6,302.1
886.9,1181,16.7,14.9,89,12.13,88,10.0,300.0,335.7,302.1
886.4,1185,16.7,14.9,90,12.14,88,10.0,300.0,335.7,302.2
885.9,1190,16.6,14.9,90,12.12,88,10.0,300.0,335.7,302.1
885.4,1195,16.6,14.8,89,12.07,88,10.0,300.0,335.5,302.1
884.9,1200,16.5,14.7,89,12.00,89,10.0,300.0,335.3,302.1
884.4,1205,16.5,14.6,89,11.91,89,10.0,300.0,335.1,302.1
883.8,1210,16.5,14.5,88,11.84,89,10.0,300.0,334.9,302.1
883.2,1216,16.4,14.5,88,11.80,89,10.1,300.0,334.8,302.2
882.6,1222,16.4,14.5,88,11.82,89,10.1,300.1,334.9,302.2
882.0,1228,16.3,14.6,89,11.91,90,10.1,300.1,335.2,302.2
881.4,1234,16.3,14.7,91,12.03,90,10.1,300.0,335.5,302.2
880.8,1239,16.2,14.8,91,12.09,90,10.1,300.0,335.6,302.2
880.2,1245,16.1,14.7,91,12.05,91,10.1,300.0,335.5,302.2
879.6,1250,16.1,14.6,91,11.98,91,10.2,300.0,335.3,302.2
879.1,1256,16.0,14.5,91,11.93,91,10.2,300.0,335.2,302.2
878.6,1261,16.0,14.5,91,11.93,92,10.2,300.0,335.2,302.2
878.1,1265,16.0,14.6,91,11.95,92,10.2,300.0,335.3,302.2
877.6,1270,15.9,14.6,92,11.96,93,10.2,300.0,335.3,302.2
877.1,1275,15.9,14.6,92,11.96,93,10.2,300.1,335.3,302.2
876.7,1279,15.8,14.5,92,11.95,93,10.2,300.1,335.3,302.2
876.2,1284,15.8,14.5,92,11.90,94,10.2,300.1,335.1,302.2
875.7,1289,15.8,14.3,91,11.82,94,10.2,300.1,335.0,302.2
875.2,1293,15.8,14.2,90,11.75,95,10.2,300.2,334.8,302.3
874.8,1298,15.8,14.2,90,11.70,95,10.2,300.2,334.8,302.3
874.3,1302,15.8,14.1,90,11.68,95,10.2,300.3,334.8,302.4
873.8,1307,15.8,14.2,90,11.71,96,10.2,300.3,334.9,302.4
873.3,1312,15.7,14.2,91,11.75,96,10.1,300.3,335.0,302.4
872.9,1316,15.7,14.2,91,11.74,96,10.1,300.3,334.9,302.4
872.4,1321,15.6,14.2,91,11.72,96,10.1,300.3,334.8,302.4
871.9,1326,15.6,14.1,91,11.70,96,10.1,300.3,334.8,302.4
871.4,1331,15.6,14.1,91,11.68,96,10.1,300.3,334.8,302.4
870.9,1336,15.5,14.0,91,11.64,96,10.1,300.3,334.6,302.4
870.4,1340,15.5,13.9,91,11.57,96,10.1,300.3,334.5,302.4
869.9,1345,15.5,13.9,90,11.52,96,10.1,300.3,334.3,302.4
869.4,1350,15.4,13.8,90,11.50,96,10.1,300.4,334.3,302.4
868.9,1355,15.4,13.8,90,11.52,96,10.1,300.4,334.4,302.5
868.4,1360,15.4,13.9,91,11.56,96,10.1,300.4,334.5,302.5
867.9,1365,15.3,13.9,91,11.58,95,10.2,300.4,334.6,302.5
867.4,1370,15.3,13.9,91,11.58,95,10.2,300.4,334.6,302.5
866.9,1375,15.2,13.9,92,11.57,95,10.2,300.4,334.6,302.5
866.3,1380,15.2,13.8,92,11.55,95,10.2,300.4,334.5,302.5
865.8,1386,15.1,13.8,92,11.56,94,10.3,300.4,334.5,302.5
865.2,1391,15.1,13.8,92,11.58,94,10.3,300.4,334.6,302.5
864.7,1396,15.0,13.8,93,11.58,94,10.4,300.4,334.6,302.5
864.2,1402,15.0,13.9,93,11.60,94,10.4,300.4,334.6,302.5
863.6,1407,14.9,13.9,93,11.61,94,10.4,300.4,334.7,302.5
863.1,1412,14.9,13.9,94,11.64,93,10.5,300.4,334.8,302.5
862.5,1418,14.9,13.9,94,11.67,93,10.5,300.4,334.9,302.6
862.0,1423,14.8,14.0,95,11.71,93,10.5,300.5,335.0,302.6
861.4,1428,14.8,14.0,95,11.73,93,10.6,300.5,335.1,302.6
860.9,1434,14.7,14.0,95,11.74,93,10.6,300.5,335.1,302.6
860.4,1439,14.7,14.0,95,11.74,93,10.6,300.5,335.2,302.6
859.8,1444,14.6,14.0,96,11.75,93,10.6,300.5,335.2,302.6
859.3,1449,14.6,14.0,96,11.76,93,10.6,300.5,335.2,302.6
858.8,1454,14.6,14.0,96,11.76,93,10.6,300.5,335.2,302.6
858.3,1459,14.5,14.0,96,11.76,93,10.7,300.5,335.3,302.6
857.9,1464,14.5,14.0,97,11.79,93,10.7,300.5,335.3,302.6
857.4,1468,14.5,14.0,97,11.83,93,10.7,300.5,335.5,302.7
857.0,1472,14.4,14.1,98,11.85,93,10.7,300.5,335.6,302.7
856.6,1477,14.4,14.0,98,11.83,93,10.6,300.5,335.5,302.7
856.1,1481,14.4,14.0,98,11.81,93,10.6,300.6,335.4,302.7
855.7,1485,14.3,13.9,98,11.78,93,10.6,300.6,335.4,302.7
855.4,1488,14.3,13.9,98,11.76,93,10.6,300.6,335.3,302.7
855.0,1492,14.3,13.9,98,11.74,93,10.6,300.6,335.2,302.7
854.6,1496,14.2,13.9,98,11.74,93,10.6,300.6,335.2,302.7
854.2,1500,14.2,13.9,98,11.74,93,10.6,300.6,335.2,302.7
853.8,1504,14.2,13.9,98,11.74,93,10.5,300.6,335.3,302.7
853.4,1508,14.1,13.9,98,11.75,93,10.5,300.6,335.3,302.7
853.0,1512,14.1,13.9,99,11.76,92,10.5,300.6,335.3,302.7
852.5,1516,14.1,13.9,99,11.76,92,10.4,300.6,335.4,302.7
852.1,1521,14.0,13.9,99,11.76,92,10.4,300.6,335.4,302.7
851.7,1525,14.0,13.9,99,11.77,92,10.4,300.6,335.4,302.7
851.3,1529,14.0,13.8,99,11.75,92,10.3,300.6,335.3,302.7
850.9,1533,13.9,13.8,99,11.70,91,10.3,300.6,335.2,302.7
850.4,1537,13.9,13.7,99,11.67,91,10.2,300.6,335.1,302.8
850.0,1542,13.9,13.7,99,11.65,91,10.1,300.6,335.1,302.7
849.6,1546,13.8,13.6,99,11.63,91,10.1,300.6,335.0,302.7
849.2,1550,13.8,13.6,99,11.60,91,10.0,300.6,334.9,302.7
848.7,1554,13.8,13.5,99,11.57,90,9.9,300.7,334.9,302.8
848.3,1559,13.8,13.5,99,11.57,90,9.8,300.7,334.9,302.8
847.8,1563,13.8,13.5,98,11.56,90,9.8,300.8,335.0,302.9
847.4,1568,13.8,13.5,98,11.52,90,9.7,300.8,334.9,302.9
847.0,1572,13.8,13.4,97,11.46,90,9.6,300.8,334.7,302.9
846.5,1576,13.7,13.3,97,11.39,90,9.5,300.9,334.6,302.9
846.1,1580,13.7,13.2,97,11.34,90,9.4,300.9,334.5,303.0
845.7,1584,13.7,13.2,97,11.33,90,9.3,300.9,334.5,303.0
845.3,1589,13.7,13.2,97,11.34,90,9.2,301.0,334.5,303.0
844.9,1593,13.7,13.2,96,11.34,90,9.1,301.0,334.6,303.1
844.5,1597,13.7,13.1,96,11.33,90,9.0,301.0,334.6,303.1
844.1,1601,13.7,13.1,96,11.31,90,8.9,301.1,334.6,303.1
843.7,1605,13.7,13.1,96,11.28,90,8.8,301.1,334.5,303.1
843.2,1609,13.7,13.0,96,11.25,90,8.8,301.1,334.5,303.2
842.8,1613,13.7,13.0,96,11.23,90,8.7,301.2,334.5,303.2
842.4,1618,13.7,13.0,96,11.23,90,8.6,301.2,334.5,303.2
842.0,1622,13.6,13.0,96,11.23,90,8.6,301.2,334.5,303.3
841.6,1626,13.6,12.9,96,11.19,90,8.5,301.2,334.4,303.3
841.1,1630,13.6,12.8,95,11.13,90,8.5,301.3,334.3,303.3
840.7,1635,13.6,12.7,94,11.04,91,8.5,301.3,334.0,303.3
840.3,1639,13.6,12.6,94,10.95,91,8.4,301.3,333.8,303.3
839.9,1643,13.6,12.4,93,10.85,91,8.4,301.4,333.6,303.3
839.5,1647,13.6,12.3,92,10.75,91,8.4,301.4,333.4,303.4
839.1,1651,13.6,12.2,91,10.69,91,8.4,301.5,333.3,303.5
838.7,1655,13.7,12.2,91,10.68,92,8.5,301.6,333.3,303.5
838.3,1659,13.6,12.1,91,10.67,92,8.5,301.6,333.3,303.5
837.9,1663,13.6,12.1,91,10.63,92,8.5,301.6,333.2,303.5
837.5,1667,13.6,12.0,90,10.61,92,8.6,301.7,333.2,303.6
837.1,1671,13.6,12.0,90,10.61,92,8.6,301.7,333.3,303.6
836.8,1674,13.6,12.0,90,10.62,93,8.7,301.7,333.3,303.6
836.4,1678,13.6,12.0,91,10.62,93,8.7,301.7,333.3,303.6
836.0,1682,13.5,12.0,91,10.62,93,8.8,301.7,333.3,303.7
835.6,1686,13.5,12.0,91,10.62,93,8.9,301.7,333.3,303.7
835.2,1690,13.5,12.0,91,10.60,93,9.0,301.8,333.3,303.7
834.8,1694,13.5,11.9,91,10.58,94,9.0,301.8,333.3,303.7
834.3,1699,13.4,11.9,90,10.54,94,9.1,301.8,333.2,303.7
833.9,1704,13.4,11.8,90,10.51,94,9.2,301.8,333.1,303.7
833.4,1708,13.4,11.8,90,10.50,94,9.2,301.9,333.1,303.8
832.9,1713,13.4,11.8,90,10.48,94,9.3,301.9,333.1,303.8
832.5,1718,13.3,11.7,90,10.46,94,9.4,301.9,333.0,303.8
832.1,1722,13.3,11.7,90,10.44,95,9.4,301.9,333.0,303.8
831.6,1726,13.3,11.7,90,10.44,95,9.5,301.9,333.0,303.8
831.2,1730,13.2,11.7,90,10.43,95,9.6,301.9,333.0,303.8
830.8,1735,13.2,11.7,90,10.42,95,9.6,302.0,333.0,303.9
830.4,1739,13.2,11.6,90,10.42,95,9.6,302.0,333.1,303.9
830.0,1743,13.2,11.6,90,10.41,95,9.7,302.0,333.1,303.9
829.6,1747,13.2,11.6,90,10.38,95,9.7,302.1,333.0,304.0
829.2,1751,13.2,11.5,89,10.34,95,9.7,302.1,332.9,304.0
828.7,1756,13.2,11.5,89,10.31,95,9.7,302.2,332.9,304.0
828.3,1760,13.2,11.4,89,10.29,95,9.7,302.2,332.9,304.1
827.8,1765,13.2,11.4,89,10.27,95,9.7,302.2,332.9,304.1
827.4,1769,13.1,11.4,89,10.27,95,9.7,302.2,332.8,304.1
827.0,1774,13.1,11.4,89,10.27,95,9.7,302.2,332.9,304.1
826.5,1778,13.1,11.3,89,10.26,95,9.7,302.2,332.9,304.1
826.1,1782,13.1,11.3,89,10.26,95,9.6,302.3,332.9,304.1
825.7,1786,13.0,11.3,89,10.26,95,9.6,302.3,332.9,304.1
825.3,1790,13.0,11.3,89,10.24,95,9.6,302.3,332.9,304.2
