PRES,HGHT,TEMP,DWPT,RELH,MIXR,DRCT,SPED,THTA,THTE,THTV
1014.0,31,25.5,21.8,80,16.45,71,4.8,297.5,345.3,300.4
1013.2,38,25.8,21.9,79,16.51,77,4.0,297.8,345.9,300.8
1012.6,43,25.9,21.8,78,16.45,79,4.0,297.9,345.9,300.9
1012.0,48,25.8,21.7,78,16.36,80,4.2,298.0,345.6,300.9
1011.4,54,25.8,21.7,78,16.33,80,4.5,298.0,345.6,300.9
1010.7,59,25.8,21.6,78,16.31,80,4.8,298.0,345.5,300.9
1010.1,65,25.7,21.5,78,16.22,79,5.1,298.0,345.3,300.9
1009.5,70,25.7,21.5,78,16.24,79,5.3,298.0,345.3,300.9
1008.8,76,25.6,21.6,78,16.30,79,5.6,298.0,345.5,300.9
1008.2,81,25.5,21.6,79,16.30,79,5.8,298.0,345.5,300.9
1007.5,87,25.5,21.6,79,16.30,79,6.0,298.0,345.5,300.9
1006.8,93,25.4,21.5,79,16.29,79,6.2,298.0,345.5,300.9
1006.2,99,25.4,21.5,79,16.25,78,6.4,298.0,345.3,300.9
1005.5,105,25.3,21.5,79,16.25,78,6.6,298.0,345.4,300.9
1004.9,110,25.3,21.4,79,16.21,78,6.8,298.0,345.2,300.9
1004.2,116,25.2,21.3,79,16.13,78,7.0,298.0,345.0,300.9
1003.6,121,25.1,21.3,79,16.11,77,7.1,298.0,344.9,300.8
1003.0,127,25.1,21.3,80,16.15,77,7.2,298.0,345.0,300.9
1002.4,132,25.0,21.4,80,16.18,77,7.3,298.0,345.1,300.8
1001.7,138,25.0,21.4,81,16.22,76,7.4,298.0,345.2,300.9
1001.1,144,24.9,21.4,81,16.27,76,7.5,298.0,345.4,300.9
1000.4,150,24.9,21.4,81,16.29,76,7.6,298.0,345.5,300.9
1000.0,153,24.8,21.4,81,16.30,76,7.6,298.0,345.5,300.9
999.8,155,24.8,21.5,82,16.31,76,7.6,298.0,345.5,300.9
999.1,161,24.8,21.5,82,16.35,75,7.6,298.0,345.6,300.9
998.4,167,24.7,21.5,82,16.35,75,7.7,298.0,345.6,300.9
997.8,173,24.6,21.4,82,16.31,75,7.7,298.0,345.5,300.9
997.1,178,24.6,21.3,82,16.25,75,7.6,298.0,345.3,300.9
996.5,184,24.5,21.3,82,16.21,74,7.6,298.0,345.2,300.9
995.9,190,24.5,21.3,82,16.22,74,7.6,298.0,345.2,300.9
995.3,195,24.4,21.3,83,16.26,74,7.5,298.0,345.4,300.9
994.6,201,24.4,21.3,83,16.29,74,7.5,298.0,345.5,300.9
994.0,206,24.3,21.4,84,16.31,73,7.4,298.0,345.5,300.9
993.3,212,24.3,21.4,84,16.33,73,7.3,298.0,345.6,300.9
992.7,218,24.2,21.3,84,16.32,73,7.2,298.0,345.5,300.9
992.1,223,24.1,21.3,84,16.29,73,7.1,298.0,345.4,300.9
991.5,228,24.1,21.3,84,16.26,72,7.0,298.0,345.3,300.9
990.9,233,24.1,21.2,84,16.24,72,6.9,298.0,345.3,300.9
990.4,238,24.0,21.2,84,16.19,72,6.8,298.0,345.2,300.9
989.9,243,24.0,21.1,84,16.15,72,6.7,298.0,345.0,300.9
989.3,248,23.9,21.1,84,16.11,71,6.7,298.0,344.9,300.8
988.8,252,23.9,21.1,84,16.11,71,6.6,298.0,344.9,300.8
988.2,257,23.8,21.1,85,16.11,71,6.5,298.0,344.9,300.8
987.7,262,23.8,21.1,85,16.12,71,6.4,298.0,344.9,300.8
987.1,267,23.7,21.1,85,16.15,70,6.3,298.0,345.0,300.9
986.5,272,23.7,21.1,85,16.18,70,6.3,298.0,345.1,300.9
985.9,278,23.6,21.1,86,16.19,70,6.2,298.0,345.2,300.9
985.3,283,23.6,21.0,86,16.14,70,6.2,298.0,345.0,300.9
984.7,289,23.5,21.0,86,16.09,70,6.2,298.0,344.9,300.9
984.1,294,23.5,21.0,86,16.07,69,6.2,298.0,344.8,300.9
983.5,300,23.4,20.9,86,16.07,69,6.2,298.0,344.8,300.8
982.9,305,23.4,20.9,86,16.06,69,6.2,298.0,344.8,300.9
982.3,310,23.3,20.9,86,16.05,69,6.2,298.0,344.8,300.9
981.7,316,23.3,20.9,86,16.04,69,6.2,298.0,344.7,300.9
981.1,321,23.2,20.9,87,16.07,69,6.3,298.0,344.8,300.9
980.6,326,23.2,20.9,87,16.12,69,6.3,298.0,344.9,300.9
980.0,330,23.1,21.0,88,16.15,69,6.4,298.0,345.0,300.9
979.5,335,23.1,21.0,88,16.16,69,6.4,298.0,345.1,300.9
978.9,340,23.0,21.0,88,16.21,69,6.5,298.0,345.2,300.9
978.4,345,23.0,21.1,89,16.29,69,6.6,298.0,345.4,300.9
977.8,350,22.9,21.1,90,16.37,69,6.6,298.0,345.7,300.9
977.2,355,22.9,21.2,90,16.41,69,6.7,298.0,345.8,300.9
976.6,361,22.8,21.2,90,16.41,69,6.7,298.0,345.8,300.9
976.0,366,22.8,21.1,90,16.36,69,6.7,298.0,345.6,300.9
975.4,372,22.7,21.0,90,16.30,69,6.8,298.0,345.4,300.9
974.8,377,22.6,21.0,91,16.30,69,6.8,298.0,345.4,300.9
974.2,383,22.6,21.1,91,16.35,69,6.8,298.0,345.6,300.9
973.6,388,22.6,21.1,91,16.39,69,6.8,298.0,345.7,300.9
973.0,393,22.5,21.1,92,16.38,69,6.8,298.0,345.7,300.9
972.5,398,22.4,21.0,92,16.32,69,6.8,297.9,345.5,300.9
971.9,403,22.4,21.0,92,16.31,69,6.8,297.9,345.5,300.9
971.4,408,22.3,21.0,92,16.36,69,6.8,297.9,345.6,300.9
970.9,412,22.3,21.1,93,16.40,69,6.7,298.0,345.7,300.9
970.4,417,22.3,21.0,93,16.39,69,6.7,298.0,345.7,300.9
969.9,421,22.2,21.0,93,16.35,69,6.6,298.0,345.6,300.9
969.4,426,22.2,21.0,93,16.33,68,6.6,298.0,345.5,300.9
968.9,431,22.1,20.9,93,16.31,68,6.5,298.0,345.5,300.9
968.4,435,22.1,20.9,93,16.30,68,6.5,298.0,345.4,300.9
967.9,440,22.0,20.9,93,16.28,68,6.4,298.0,345.4,300.9
967.4,444,22.0,20.9,93,16.27,68,6.4,298.0,345.3,300.9
966.9,449,22.0,20.9,94,16.29,68,6.3,298.0,345.4,300.9
966.4,453,21.9,20.9,94,16.33,67,6.3,298.0,345.5,300.9
965.9,458,21.9,20.9,94,16.35,67,6.3,298.0,345.6,300.9
965.3,462,21.8,20.9,94,16.32,67,6.2,298.0,345.5,300.9
964.8,467,21.8,20.8,94,16.27,67,6.2,298.0,345.4,300.9
964.2,472,21.8,20.8,94,16.24,67,6.2,298.0,345.3,300.9
963.7,477,21.7,20.8,94,16.23,67,6.2,298.0,345.3,300.9
963.1,483,21.7,20.8,95,16.24,67,6.1,298.0,345.3,300.9
962.5,488,21.6,20.8,95,16.29,67,6.1,298.0,345.4,300.9
961.9,494,21.5,20.8,96,16.33,67,6.1,298.0,345.6,300.9
961.3,499,21.5,20.8,96,16.34,67,6.2,298.0,345.6,300.9
960.7,505,21.4,20.9,97,16.37,68,6.2,298.0,345.7,300.9
960.1,510,21.4,20.9,97,16.41,68,6.2,298.0,345.8,300.9
959.5,516,21.3,20.9,97,16.43,68,6.2,298.0,345.8,300.9
958.9,521,21.3,20.9,98,16.45,68,6.2,298.0,345.9,300.9
958.2,527,21.2,20.9,98,16.43,68,6.3,298.0,345.8,300.9
957.6,532,21.2,20.9,98,16.42,69,6.3,298.0,345.8,300.9
957.0,538,21.1,20.8,98,16.42,69,6.3,298.0,345.8,300.9
956.4,544,21.1,20.8,98,16.41,70,6.3,298.0,345.8,300.9
955.7,549,21.0,20.7,98,16.28,70,6.4,298.0,345.4,300.9
955.1,555,21.0,20.4,96,15.98,71,6.4,298.0,344.6,300.9
954.5,561,21.0,20.0,94,15.62,71,6.4,298.1,343.6,300.9
953.9,566,21.0,19.7,92,15.33,72,6.5,298.1,342.9,300.9
953.3,572,21.0,19.5,91,15.14,72,6.5,298.2,342.4,300.9
952.6,578,21.0,19.4,90,15.01,73,6.5,298.2,342.0,300.9
952.0,583,20.9,19.2,90,14.88,74,6.5,298.3,341.7,300.9
951.4,589,20.9,19.0,89,14.72,74,6.5,298.3,341.3,300.9
950.8,594,20.9,18.9,88,14.65,75,6.5,298.3,341.1,301.0
950.2,600,20.9,19.0,89,14.73,76,6.5,298.4,341.4,301.0
949.6,605,20.8,19.1,90,14.86,77,6.5,298.3,341.7,301.0
949.1,610,20.8,19.2,91,14.91,77,6.4,298.3,341.8,301.0
948.5,615,20.7,19.2,91,14.93,78,6.4,298.3,341.9,301.0
948.0,620,20.7,19.2,91,14.89,79,6.4,298.3,341.8,301.0
947.4,625,20.6,19.0,90,14.78,80,6.3,298.4,341.5,301.0
946.9,630,20.6,18.8,89,14.57,81,6.3,298.4,340.9,301.0
946.4,634,20.6,18.6,88,14.36,82,6.2,298.4,340.4,301.0
946.0,639,20.6,18.5,87,14.28,83,6.2,298.5,340.2,301.0
945.5,643,20.6,18.5,88,14.29,84,6.1,298.5,340.2,301.0
945.0,647,20.6,18.5,88,14.30,85,6.1,298.5,340.3,301.1
944.6,651,20.5,18.5,88,14.29,86,6.0,298.5,340.3,301.1
944.1,656,20.5,18.4,88,14.28,87,6.0,298.5,340.2,301.1
943.7,660,20.5,18.4,88,14.25,88,5.9,298.5,340.1,301.1
943.2,664,20.4,18.4,88,14.22,88,5.9,298.5,340.1,301.1
942.8,668,20.4,18.3,88,14.19,89,5.8,298.5,340.0,301.1
942.3,672,20.4,18.3,88,14.19,89,5.8,298.5,340.0,301.1
941.9,676,20.3,18.3,88,14.20,90,5.7,298.6,340.0,301.1
941.5,680,20.3,18.3,88,14.20,90,5.7,298.5,340.1,301.1
941.1,683,20.3,18.3,89,14.22,90,5.6,298.6,340.1,301.1
940.7,687,20.2,18.3,89,14.24,90,5.6,298.5,340.2,301.1
940.2,691,20.2,18.3,89,14.26,90,5.6,298.5,340.2,301.1
939.8,695,20.2,18.3,89,14.26,89,5.6,298.5,340.2,301.1
939.4,699,20.1,18.3,89,14.23,89,5.6,298.5,340.1,301.1
938.9,704,20.1,18.2,89,14.19,88,5.6,298.6,340.0,301.1
938.4,708,20.1,18.2,89,14.16,87,5.6,298.6,340.0,301.1
938.0,712,20.0,18.2,89,14.13,86,5.7,298.6,339.9,301.1
937.5,716,20.0,18.1,89,14.09,85,5.7,298.6,339.8,301.1
937.0,721,20.0,18.1,89,14.04,84,5.8,298.6,339.7,301.1
936.6,725,19.9,18.0,88,13.98,83,5.8,298.6,339.5,301.1
936.1,729,19.9,17.9,88,13.91,82,5.9,298.6,339.3,301.1
935.7,733,19.9,17.8,88,13.88,81,6.0,298.7,339.2,301.1
935.2,738,19.9,17.8,88,13.86,80,6.1,298.7,339.2,301.2
934.8,742,19.9,17.8,88,13.82,78,6.2,298.7,339.1,301.2
934.3,746,19.8,17.7,87,13.76,77,6.4,298.7,339.0,301.2
933.8,750,19.8,17.6,87,13.73,76,6.5,298.8,338.9,301.2
933.4,755,19.8,17.6,87,13.71,76,6.6,298.8,338.9,301.2
932.9,759,19.8,17.6,87,13.69,75,6.7,298.8,338.8,301.2
932.4,763,19.7,17.6,87,13.67,74,6.8,298.8,338.8,301.2
931.9,768,19.7,17.5,87,13.65,74,7.0,298.8,338.7,301.2
931.5,772,19.7,17.5,87,13.65,73,7.1,298.8,338.8,301.3
931.0,777,19.6,17.5,88,13.64,73,7.2,298.8,338.8,301.3
930.4,782,19.6,17.5,88,13.64,72,7.3,298.8,338.8,301.3
929.9,787,19.6,17.5,88,13.63,72,7.3,298.9,338.8,301.3
929.3,792,19.5,17.4,88,13.59,72,7.4,298.9,338.7,301.3
928.8,797,19.5,17.3,87,13.54,72,7.5,298.9,338.5,301.3
928.2,802,19.5,17.3,87,13.47,72,7.5,298.9,338.3,301.3
927.7,808,19.4,17.2,87,13.41,73,7.5,298.9,338.2,301.3
927.1,813,19.4,17.2,87,13.41,73,7.5,298.9,338.2,301.3
926.6,818,19.4,17.2,87,13.43,73,7.5,299.0,338.3,301.4
926.0,823,19.3,17.2,88,13.47,73,7.5,299.0,338.4,301.4
925.5,828,19.3,17.2,88,13.50,74,7.5,299.0,338.5,301.4
925.0,832,19.3,17.3,88,13.51,74,7.5,299.0,338.6,301.4
924.9,833,19.3,17.3,88,13.52,74,7.4,299.0,338.6,301.4
924.4,838,19.2,17.2,88,13.48,75,7.4,299.0,338.5,301.4
923.9,843,19.2,17.1,88,13.39,75,7.3,299.0,338.3,301.4
923.3,848,19.2,16.9,87,13.26,76,7.3,299.1,337.9,301.5
922.8,853,19.2,16.8,86,13.17,76,7.2,299.1,337.7,301.4
922.3,858,19.1,16.7,86,13.11,77,7.2,299.1,337.6,301.5
921.7,863,19.1,16.7,86,13.11,78,7.1,299.1,337.6,301.5
921.2,868,19.1,16.7,86,13.12,78,7.0,299.1,337.6,301.5
920.7,873,19.0,16.8,87,13.16,79,7.0,299.1,337.7,301.5
920.1,878,19.0,16.8,87,13.18,79,6.9,299.2,337.8,301.5
919.6,883,18.9,16.8,87,13.18,79,6.9,299.2,337.8,301.5
919.1,888,18.9,16.7,87,13.16,80,6.8,299.2,337.8,301.5
918.5,893,18.9,16.7,87,13.15,80,6.8,299.2,337.8,301.6
918.0,898,18.8,16.7,87,13.13,80,6.8,299.2,337.7,301.6
917.5,903,18.8,16.6,87,13.09,81,6.7,299.2,337.6,301.6
917.0,908,18.8,16.6,87,13.05,81,6.7,299.2,337.5,301.6
916.5,912,18.7,16.5,87,13.03,81,6.7,299.2,337.5,301.6
916.0,917,18.7,16.5,87,13.03,81,6.7,299.2,337.4,301.6
915.5,921,18.6,16.5,88,13.04,81,6.7,299.2,337.5,301.6
915.1,925,18.6,16.5,88,13.01,81,6.8,299.2,337.4,301.6
914.6,930,18.6,16.4,87,12.97,80,6.8,299.3,337.3,301.6
914.1,934,18.6,16.4,87,12.93,80,6.8,299.3,337.2,301.6
913.6,939,18.5,16.4,87,12.91,80,6.8,299.3,337.2,301.6
913.1,944,18.5,16.3,87,12.91,80,6.9,299.3,337.2,301.7
912.7,948,18.5,16.3,87,12.92,79,6.9,299.3,337.3,301.7
912.2,953,18.5,16.3,87,12.91,79,7.0,299.4,337.2,301.7
911.7,957,18.4,16.2,87,12.85,79,7.0,299.4,337.1,301.7
911.2,962,18.4,16.1,87,12.76,79,7.0,299.4,336.9,301.7
910.7,967,18.4,16.0,86,12.69,78,7.1,299.4,336.7,301.7
910.2,972,18.4,16.0,86,12.64,78,7.1,299.5,336.6,301.7
909.7,976,18.4,15.9,86,12.59,78,7.1,299.5,336.5,301.8
909.1,981,18.3,15.9,85,12.56,78,7.1,299.5,336.5,301.8
908.6,987,18.3,15.9,86,12.57,77,7.2,299.6,336.5,301.8
908.0,992,18.3,15.9,86,12.58,77,7.2,299.6,336.6,301.8
907.4,998,18.2,15.9,86,12.58,77,7.1,299.6,336.6,301.8
906.9,1003,18.2,15.8,86,12.56,77,7.1,299.6,336.5,301.9
906.3,1009,18.2,15.7,86,12.50,77,7.1,299.6,336.4,301.9
905.7,1014,18.2,15.6,85,12.44,77,7.1,299.7,336.2,301.9
905.1,1020,18.1,15.6,85,12.40,77,7.0,299.7,336.2,301.9
904.5,1026,18.1,15.5,85,12.37,77,7.0,299.7,336.1,301.9
903.9,1031,18.1,15.5,85,12.33,77,6.9,299.7,336.0,302.0
903.3,1037,18.0,15.4,85,12.27,77,6.9,299.7,335.8,302.0
902.7,1043,18.0,15.3,85,12.23,77,6.8,299.8,335.8,302.0
902.0,1049,17.9,15.3,84,12.20,77,6.8,299.8,335.7,302.0
901.4,1055,17.9,15.2,84,12.17,77,6.7,299.8,335.6,302.0
900.8,1061,17.9,15.2,84,12.14,77,6.6,299.8,335.6,302.0
900.1,1067,17.9,15.2,84,12.12,77,6.6,299.9,335.6,302.1
899.5,1073,17.8,15.1,84,12.10,77,6.5,299.9,335.5,302.1
898.9,1079,17.8,15.1,84,12.07,77,6.4,299.9,335.5,302.1
898.3,1084,17.7,15.0,84,12.05,77,6.4,299.9,335.4,302.1
897.8,1090,17.7,15.0,84,12.03,77,6.3,299.9,335.4,302.1
897.2,1095,17.6,15.0,84,12.01,78,6.3,299.9,335.3,302.1
896.7,1100,17.6,14.9,84,11.99,78,6.3,299.9,335.3,302.1
896.2,1105,17.6,14.9,84,11.96,78,6.2,299.9,335.2,302.1
895.7,1109,17.5,14.9,84,11.94,78,6.2,300.0,335.2,302.1
895.2,1114,17.5,14.9,85,11.96,78,6.2,300.0,335.2,302.1
894.7,1119,17.5,14.9,85,11.98,79,6.2,300.0,335.3,302.1
894.2,1123,17.4,14.9,85,12.00,79,6.2,300.0,335.4,302.2
893.8,1128,17.4,14.9,85,11.99,79,6.2,300.0,335.4,302.2
893.3,1132,17.4,14.9,85,11.98,79,6.2,300.0,335.3,302.2
892.8,1137,17.3,14.8,85,11.98,80,6.2,300.0,335.3,302.2
892.3,1142,17.3,14.8,85,11.94,80,6.2,300.0,335.2,302.2
891.8,1146,17.2,14.7,85,11.90,80,6.2,300.0,335.1,302.2
891.3,1151,17.2,14.7,85,11.85,81,6.2,300.0,335.0,302.2
890.9,1156,17.2,14.6,85,11.82,81,6.3,300.1,334.9,302.2
890.4,1160,17.1,14.6,85,11.80,81,6.3,300.1,334.8,302.2
889.9,1165,17.1,14.5,85,11.78,82,6.3,300.1,334.8,302.2
889.4,1170,17.0,14.5,85,11.76,82,6.3,300.1,334.7,302.2
888.8,1175,17.0,14.5,85,11.73,82,6.3,300.1,334.7,302.2
888.3,1180,17.0,14.4,85,11.71,82,6.3,300.1,334.6,302.2
887.7,1186,16.9,14.4,85,11.69,83,6.2,300.1,334.6,302.2
887.2,1191,16.9,14.4,85,11.69,83,6.2,300.2,334.6,302.3
886.6,1197,16.9,14.4,85,11.69,83,6.2,300.2,334.7,302.3
886.0,1202,16.8,14.4,85,11.69,84,6.1,300.2,334.7,302.3
885.5,1208,16.8,14.3,86,11.69,84,6.1,300.2,334.7,302.3
884.9,1213,16.7,14.3,86,11.66,84,6.0,300.2,334.6,302.3
884.3,1219,16.7,14.2,85,11.62,85,6.0,300.2,334.5,302.3
883.7,1224,16.7,14.2,85,11.57,85,5.9,300.2,334.4,302.3
883.1,1230,16.6,14.1,85,11.52,86,5.8,300.3,334.3,302.3
882.5,1236,16.6,14.0,85,11.47,86,5.8,300.3,334.2,302.4
881.9,1242,16.6,14.0,84,11.44,86,5.7,300.3,334.1,302.4
881.3,1248,16.6,13.9,84,11.43,87,5.6,300.4,334.1,302.4
880.7,1253,16.5,13.9,85,11.42,87,5.5,300.4,334.1,302.4
880.2,1259,16.5,13.9,85,11.43,88,5.4,300.4,334.1,302.4
879.6,1264,16.4,13.9,85,11.44,88,5.3,300.4,334.2,302.5
879.1,1269,16.4,13.9,85,11.45,88,5.3,300.4,334.2,302.5
878.6,1274,16.4,13.9,86,11.47,89,5.2,300.4,334.3,302.5
878.1,1279,16.3,14.0,86,11.49,89,5.1,300.4,334.4,302.5
877.7,1283,16.3,14.0,86,11.51,89,5.1,300.4,334.4,302.5
877.2,1288,16.2,14.0,86,11.50,90,5.0,300.4,334.4,302.5
876.7,1292,16.2,13.9,86,11.44,90,5.0,300.4,334.2,302.5
876.3,1297,16.1,13.8,86,11.37,90,5.0,300.4,334.0,302.5
875.8,1301,16.1,13.7,86,11.32,90,4.9,300.4,333.9,302.5
875.4,1306,16.1,13.7,85,11.30,90,4.9,300.5,333.9,302.5
874.9,1310,16.1,13.6,85,11.29,90,4.9,300.5,333.9,302.5
874.5,1314,16.1,13.6,85,11.29,90,4.9,300.5,333.9,302.5
874.1,1318,16.0,13.6,86,11.29,89,4.9,300.5,333.9,302.6
873.7,1322,16.0,13.6,86,11.30,89,4.9,300.5,333.9,302.6
873.2,1326,16.0,13.7,86,11.32,88,5.0,300.5,334.0,302.6
872.8,1331,15.9,13.7,86,11.35,88,5.0,300.5,334.1,302.6
872.3,1335,15.9,13.7,87,11.38,87,5.0,300.6,334.2,302.6
871.9,1340,15.9,13.7,87,11.39,86,5.1,300.6,334.3,302.6
871.4,1345,15.9,13.7,87,11.39,86,5.1,300.6,334.3,302.6
870.8,1350,15.8,13.7,87,11.38,85,5.2,300.6,334.3,302.7
870.3,1355,15.8,13.6,87,11.36,84,5.2,300.6,334.2,302.7
869.7,1361,15.7,13.6,87,11.30,83,5.3,300.6,334.1,302.7
869.1,1367,15.7,13.5,87,11.25,82,5.4,300.7,333.9,302.7
868.5,1373,15.7,13.4,87,11.22,82,5.4,300.7,333.9,302.7
867.9,1379,15.6,13.4,87,11.23,81,5.4,300.7,333.9,302.7
867.3,1385,15.6,13.5,87,11.25,80,5.5,300.7,334.0,302.7
866.7,1391,15.5,13.5,87,11.27,79,5.5,300.7,334.1,302.8
866.1,1396,15.5,13.4,88,11.25,79,5.5,300.7,334.0,302.8
865.6,1402,15.4,13.4,88,11.22,78,5.6,300.7,333.9,302.7
865.0,1407,15.4,13.3,88,11.20,77,5.6,300.7,333.9,302.8
864.5,1412,15.3,13.3,88,11.20,77,5.6,300.7,333.9,302.7
864.0,1417,15.3,13.3,88,11.21,77,5.6,300.7,333.9,302.7
863.5,1422,15.2,13.3,88,11.21,76,5.6,300.7,333.9,302.8
863.0,1427,15.2,13.3,88,11.19,76,5.5,300.7,333.8,302.7
862.4,1432,15.1,13.3,88,11.17,76,5.5,300.7,333.8,302.8
861.9,1437,15.1,13.3,89,11.18,75,5.5,300.8,333.9,302.8
861.4,1442,15.1,13.3,89,11.23,75,5.5,300.8,334.0,302.8
860.9,1447,15.0,13.4,90,11.28,75,5.4,300.8,334.1,302.8
860.4,1452,15.0,13.4,90,11.31,75,5.4,300.8,334.2,302.8
859.9,1458,14.9,13.4,91,11.32,75,5.3,300.8,334.3,302.8
859.3,1463,14.9,13.4,91,11.31,76,5.3,300.8,334.2,302.8
858.8,1468,14.8,13.3,91,11.26,76,5.2,300.8,334.1,302.8
858.3,1473,14.8,13.2,90,11.21,76,5.2,300.8,334.0,302.8
857.8,1478,14.8,13.2,90,11.16,76,5.1,300.8,333.9,302.8
857.3,1483,14.7,13.1,90,11.12,77,5.1,300.8,333.8,302.8
856.8,1488,14.7,13.1,90,11.09,77,5.1,300.8,333.7,302.8
856.3,1493,14.7,13.0,90,11.06,78,5.0,300.8,333.6,302.8
855.8,1497,14.6,13.0,90,11.03,78,5.0,300.8,333.5,302.8
855.3,1502,14.6,12.9,90,11.03,78,4.9,300.8,333.5,302.8
854.9,1507,14.5,12.9,90,11.02,79,4.9,300.9,333.5,302.9
854.3,1512,14.5,12.9,90,11.03,79,4.9,300.9,333.6,302.9
853.8,1517,14.5,12.9,90,11.00,80,4.8,300.9,333.5,302.9
853.2,1523,14.5,12.7,89,10.90,80,4.8,301.0,333.3,302.9
852.7,1529,14.5,12.5,88,10.75,81,4.8,301.0,332.9,303.0
852.1,1535,14.5,12.3,87,10.63,81,4.8,301.1,332.7,303.0
851.4,1541,14.5,12.2,86,10.58,82,4.7,301.2,332.6,303.1
850.8,1547,14.5,12.3,87,10.63,82,4.7,301.2,332.8,303.2
850.2,1553,14.5,12.5,88,10.76,83,4.7,301.2,333.2,303.2
850.0,1555,14.4,12.5,88,10.80,83,4.7,301.2,333.3,303.2
849.6,1559,14.4,12.6,89,10.87,83,4.7,301.2,333.5,303.2
849.1,1565,14.3,12.7,90,10.92,84,4.6,301.2,333.6,303.2
848.5,1570,14.3,12.7,90,10.97,84,4.6,301.3,333.8,303.3
848.0,1575,14.2,13.0,92,11.16,85,4.6,301.3,334.4,303.3
847.5,1580,14.2,13.2,94,11.36,85,4.6,301.2,334.9,303.3
847.0,1585,14.1,13.4,95,11.48,86,4.6,301.2,335.2,303.3
846.6,1590,14.1,13.4,96,11.53,86,4.5,301.2,335.4,303.3
846.1,1594,14.0,13.4,96,11.46,86,4.5,301.2,335.2,303.3
845.6,1599,14.0,13.1,94,11.30,87,4.5,301.3,334.8,303.3
845.1,1604,14.0,12.8,92,11.05,87,4.5,301.3,334.1,303.3
844.7,1609,14.0,12.4,90,10.77,88,4.5,301.3,333.3,303.3
844.2,1613,14.0,12.0,88,10.50,88,4.6,301.4,332.6,303.3
843.8,1618,14.0,11.7,86,10.28,88,4.6,301.4,332.0,303.3
843.3,1622,14.0,11.6,85,10.25,88,4.6,301.5,332.0,303.4
842.9,1627,14.0,11.7,86,10.33,89,4.7,301.5,332.3,303.4
842.4,1631,14.0,11.6,86,10.25,89,4.7,301.6,332.1,303.4
842.0,1636,14.0,11.1,83,9.90,89,4.8,301.6,331.1,303.4
841.5,1641,14.0,10.4,79,9.46,89,4.9,301.7,330.0,303.4
841.0,1646,14.1,9.9,76,9.12,90,4.9,301.8,329.1,303.5
840.4,1651,14.1,9.6,74,8.98,90,5.1,301.9,328.7,303.5
839.9,1657,14.1,9.5,74,8.93,90,5.2,301.9,328.6,303.5
839.3,1662,14.0,9.4,73,8.84,90,5.3,301.9,328.4,303.5
838.8,1668,14.0,9.1,72,8.67,90,5.4,302.0,328.0,303.5
838.2,1674,14.0,8.8,71,8.51,90,5.6,302.0,327.6,303.6
837.6,1680,14.0,8.6,70,8.42,91,5.7,302.1,327.4,303.6
837.0,1686,14.0,8.6,70,8.40,91,5.9,302.2,327.4,303.7
836.4,1692,14.0,8.6,70,8.44,91,6.0,302.2,327.5,303.7
835.8,1698,14.0,8.9,71,8.62,91,6.2,302.3,328.1,303.8
835.2,1704,14.0,9.6,75,9.04,91,6.4,302.3,329.4,304.0
834.6,1710,14.0,10.3,78,9.47,91,6.5,302.4,330.8,304.1
834.0,1716,14.1,10.4,79,9.55,91,6.7,302.5,331.1,304.2
833.4,1722,14.1,10.0,76,9.28,91,6.8,302.6,330.4,304.3
832.9,1727,14.1,9.3,73,8.85,92,7.0,302.6,329.2,304.3
832.3,1733,14.2,8.3,68,8.30,92,7.1,302.8,327.7,304.3
831.8,1739,14.3,7.2,62,7.70,92,7.3,303.0,326.2,304.4
831.2,1744,14.5,6.4,58,7.25,92,7.4,303.2,325.2,304.5
830.7,1749,14.6,6.1,57,7.11,92,7.5,303.4,325.0,304.7
830.2,1754,14.7,6.2,57,7.20,92,7.7,303.5,325.4,304.9
829.8,1759,14.7,6.4,58,7.31,92,7.7,303.6,325.8,304.9
829.3,1764,14.7,6.4,58,7.31,92,7.8,303.7,325.9,305.0
828.9,1768,14.8,6.2,56,7.17,92,7.9,303.8,325.5,305.1
828.4,1773,14.8,5.6,54,6.89,91,8.0,303.9,324.8,305.1
828.0,1777,14.9,4.7,50,6.46,91,8.0,304.0,323.7,305.2
827.6,1782,15.0,3.4,46,5.93,91,8.0,304.1,322.3,305.2
827.1,1786,15.1,2.1,41,5.41,91,8.0,304.3,321.0,305.3
826.7,1790,15.3,1.1,38,5.02,91,8.1,304.5,320.1,305.5
826.3,1795,15.4,0.4,36,4.78,91,8.0,304.7,319.5,305.6
825.9,1799,15.5,-0.1,35,4.61,91,8.0,304.8,319.2,305.7
825.4,1803,15.5,-0.4,34,4.49,90,8.0,304.9,318.9,305.8
825.0,1808,15.5,-0.7,33,4.41,90,8.0,305.0,318.7,305.8
824.5,1813,15.6,-1.0,32,4.32,90,7.9,305.1,318.5,305.9
824.1,1817,15.6,-1.4,31,4.19,90,7.8,305.1,318.2,305.9
823.6,1822,15.6,-1.9,30,4.05,90,7.8,305.2,317.9,305.9
823.1,1828,15.6,-2.5,29,3.88,89,7.7,305.2,317.4,306.0
822.6,1833,15.6,-3.2,27,3.67,89,7.6,305.3,316.9,306.0
822.1,1838,15.6,-3.9,26,3.47,89,7.5,305.4,316.4,306.0
821.5,1844,15.6,-4.5,25,3.34,89,7.4,305.5,316.0,306.1
821.0,1849,15.6,-4.6,24,3.31,89,7.3,305.5,316.0,306.1
820.6,1854,15.6,-4.3,25,3.40,88,7.2,305.6,316.3,306.2
820.1,1858,15.6,-3.7,26,3.55,88,7.1,305.6,316.8,306.3
819.7,1863,15.6,-3.1,27,3.71,88,7.1,305.7,317.3,306.3
819.3,1867,15.7,-2.8,28,3.80,88,7.0,305.7,317.7,306.4
818.8,1871,15.7,-2.7,28,3.83,87,6.9,305.8,317.9,306.5
