PRES,HGHT,TEMP,DWPT,RELH,MIXR,DRCT,SPED,THTA,THTE,THTV
1015.5,31,26.4,21.4,74,16.01,64,5.0,298.2,345.0,301.1
1014.9,36,26.3,22.2,78,16.87,46,2.8,298.2,347.4,301.2
1014.5,39,26.1,22.2,79,16.83,40,2.6,298.1,347.1,301.1
1013.7,46,26.0,22.1,79,16.71,39,2.7,298.0,346.7,300.9
1013.1,51,25.8,21.9,79,16.58,40,2.9,297.9,346.1,300.8
1012.5,57,25.7,21.8,79,16.42,41,3.2,297.8,345.6,300.7
1012.0,61,25.5,21.6,79,16.26,42,3.4,297.6,345.0,300.5
1011.4,66,25.4,21.5,79,16.13,43,3.6,297.6,344.5,300.4
1010.9,71,25.3,21.4,79,16.03,44,3.8,297.5,344.1,300.3
1010.3,76,25.1,21.2,79,15.91,44,4.0,297.4,343.7,300.2
1009.7,81,25.0,21.1,79,15.75,45,4.2,297.3,343.0,300.1
1009.1,86,24.7,20.9,80,15.60,46,4.4,297.0,342.3,299.8
1008.5,92,24.6,21.0,80,15.67,47,4.5,297.0,342.5,299.8
1007.8,98,24.5,20.9,81,15.67,47,4.7,297.0,342.4,299.8
1007.1,104,24.5,20.9,81,15.67,48,4.9,297.0,342.5,299.8
1006.4,110,24.5,21.0,81,15.78,49,5.0,297.1,343.0,300.0
1005.6,116,24.7,21.1,81,15.89,49,5.2,297.4,343.6,300.2
1004.9,123,24.6,21.0,80,15.74,50,5.3,297.3,343.1,300.1
1004.2,129,24.3,20.7,80,15.50,50,5.4,297.1,342.1,299.9
1003.5,135,24.0,20.5,81,15.35,51,5.5,296.9,341.4,299.6
1002.8,141,23.9,20.5,82,15.33,51,5.6,296.8,341.2,299.5
1002.2,147,23.8,20.6,82,15.41,52,5.7,296.7,341.4,299.5
1001.6,152,23.7,20.6,83,15.46,52,5.8,296.7,341.6,299.5
1000.9,158,23.7,20.6,83,15.44,53,5.9,296.7,341.5,299.5
1000.3,163,23.6,20.6,83,15.45,53,5.9,296.7,341.5,299.5
1000.0,166,23.6,20.6,83,15.47,54,6.0,296.8,341.6,299.5
999.7,169,23.6,20.6,83,15.47,54,6.0,296.7,341.6,299.5
999.0,175,23.5,20.6,84,15.46,54,6.0,296.7,341.5,299.5
998.4,180,23.5,20.6,84,15.45,54,6.1,296.7,341.5,299.5
997.7,186,23.4,20.6,84,15.47,54,6.1,296.7,341.6,299.5
997.1,192,23.3,20.5,84,15.45,55,6.1,296.7,341.5,299.5
996.4,197,23.3,20.5,84,15.41,55,6.1,296.7,341.4,299.5
995.8,203,23.2,20.5,85,15.41,55,6.1,296.7,341.4,299.5
995.1,209,23.2,20.5,85,15.42,55,6.1,296.7,341.4,299.5
994.5,214,23.1,20.5,85,15.43,55,6.2,296.7,341.4,299.5
993.9,220,23.1,20.4,85,15.40,55,6.2,296.7,341.4,299.5
993.2,226,23.0,20.4,85,15.39,55,6.1,296.7,341.3,299.5
992.6,231,22.9,20.4,86,15.40,55,6.1,296.7,341.4,299.5
992.0,237,22.9,20.4,86,15.40,55,6.1,296.7,341.4,299.5
991.3,242,22.8,20.4,86,15.42,55,6.1,296.7,341.4,299.5
990.7,248,22.8,20.5,87,15.46,54,6.1,296.7,341.5,299.5
990.1,253,22.7,20.5,87,15.47,54,6.1,296.7,341.6,299.5
989.5,258,22.7,20.4,87,15.41,54,6.1,296.7,341.4,299.5
988.9,264,22.6,20.3,87,15.38,54,6.1,296.7,341.3,299.4
988.3,269,22.6,20.4,87,15.42,54,6.1,296.7,341.4,299.5
987.7,274,22.5,20.5,88,15.51,53,6.1,296.7,341.7,299.5
987.1,280,22.5,20.5,89,15.61,53,6.1,296.7,341.9,299.5
986.5,285,22.4,20.6,90,15.69,53,6.0,296.7,342.1,299.5
985.9,290,22.4,20.6,90,15.69,52,6.0,296.7,342.1,299.5
985.3,295,22.3,20.5,90,15.64,52,6.0,296.7,342.0,299.5
984.8,300,22.3,20.5,90,15.61,52,6.0,296.7,341.9,299.5
984.2,306,22.2,20.5,90,15.60,51,6.0,296.7,341.9,299.5
983.6,311,22.2,20.5,90,15.60,51,6.0,296.7,341.9,299.5
983.0,316,22.1,20.4,90,15.56,51,5.9,296.7,341.8,299.5
982.4,322,22.1,20.4,90,15.54,51,5.9,296.7,341.7,299.5
981.8,327,22.0,20.4,90,15.53,50,5.9,296.7,341.7,299.5
981.1,332,22.0,20.3,91,15.51,50,5.9,296.7,341.6,299.5
980.5,338,21.9,20.3,91,15.48,50,5.9,296.7,341.6,299.5
979.9,343,21.9,20.3,91,15.47,50,5.8,296.7,341.5,299.5
979.3,349,21.8,20.3,91,15.50,50,5.8,296.7,341.6,299.5
978.7,354,21.8,20.4,92,15.56,49,5.8,296.7,341.8,299.5
978.1,360,21.7,20.4,92,15.59,49,5.7,296.7,341.9,299.5
977.5,365,21.6,20.3,92,15.57,49,5.7,296.7,341.8,299.5
976.9,371,21.6,20.3,92,15.53,49,5.7,296.7,341.7,299.5
976.3,376,21.5,20.2,92,15.49,49,5.6,296.7,341.6,299.4
975.7,381,21.5,20.2,92,15.46,49,5.6,296.7,341.5,299.4
975.1,386,21.4,20.2,93,15.44,49,5.6,296.7,341.4,299.4
974.5,392,21.4,20.2,93,15.47,48,5.6,296.7,341.5,299.5
973.9,397,21.3,20.3,94,15.55,48,5.5,296.7,341.8,299.5
973.3,402,21.3,20.3,94,15.63,48,5.5,296.7,342.0,299.5
972.7,407,21.2,20.4,95,15.66,48,5.5,296.7,342.1,299.5
972.2,412,21.2,20.3,95,15.65,48,5.5,296.7,342.0,299.5
971.6,418,21.1,20.3,95,15.63,48,5.5,296.7,342.0,299.5
971.0,423,21.1,20.3,95,15.58,48,5.5,296.7,341.9,299.5
970.4,428,21.0,20.2,95,15.53,48,5.5,296.7,341.7,299.5
969.8,433,21.0,20.2,95,15.51,48,5.5,296.7,341.7,299.5
969.2,439,20.9,20.2,95,15.51,48,5.5,296.7,341.7,299.5
968.6,445,20.9,20.2,96,15.52,49,5.6,296.7,341.7,299.5
967.9,450,20.8,20.1,96,15.53,49,5.6,296.7,341.7,299.5
967.3,456,20.8,20.1,96,15.51,49,5.6,296.7,341.7,299.5
966.6,462,20.7,20.1,96,15.49,49,5.6,296.7,341.6,299.5
966.0,468,20.7,20.1,96,15.48,49,5.7,296.7,341.6,299.5
965.3,474,20.6,20.0,97,15.47,49,5.7,296.7,341.6,299.5
964.7,480,20.6,20.0,97,15.45,49,5.7,296.7,341.5,299.5
964.0,485,20.5,20.0,97,15.44,49,5.8,296.7,341.5,299.5
963.4,491,20.4,20.0,97,15.45,50,5.8,296.7,341.5,299.5
962.7,497,20.4,20.0,98,15.45,50,5.8,296.7,341.5,299.5
962.1,503,20.3,20.0,98,15.45,50,5.8,296.7,341.5,299.5
961.4,509,20.3,20.0,98,15.46,50,5.9,296.7,341.5,299.5
960.8,515,20.2,20.0,98,15.48,50,5.9,296.7,341.6,299.5
960.2,520,20.2,20.0,99,15.51,50,5.9,296.7,341.7,299.5
959.5,526,20.1,20.0,99,15.55,50,5.9,296.8,341.8,299.5
958.9,532,20.1,20.0,100,15.58,50,5.9,296.8,341.9,299.5
958.2,538,20.0,20.0,100,15.54,50,5.9,296.8,341.8,299.5
957.5,544,20.0,19.9,99,15.43,50,5.9,296.8,341.5,299.5
956.9,550,19.9,19.7,99,15.30,50,5.9,296.8,341.1,299.5
956.2,556,19.9,19.7,99,15.25,50,5.9,296.8,341.0,299.5
955.5,562,19.8,19.7,99,15.27,50,5.9,296.8,341.0,299.5
954.8,569,19.8,19.7,100,15.28,50,6.0,296.8,341.1,299.5
954.1,575,19.7,19.7,100,15.28,50,6.0,296.8,341.1,299.5
953.4,581,19.7,19.7,100,15.28,50,6.0,296.8,341.2,299.6
952.7,587,19.7,19.6,100,15.26,50,6.0,296.9,341.1,299.6
952.1,594,19.7,19.6,99,15.22,51,6.0,296.9,341.1,299.6
951.4,600,19.6,19.5,99,15.20,51,6.0,297.0,341.1,299.7
950.7,606,19.6,19.5,99,15.21,51,6.0,297.0,341.2,299.7
950.0,612,19.6,19.5,100,15.23,51,6.1,297.1,341.3,299.8
949.3,619,19.6,19.5,100,15.23,52,6.1,297.1,341.3,299.8
948.6,625,19.6,19.5,99,15.20,52,6.2,297.2,341.3,299.9
947.9,631,19.6,19.5,100,15.23,53,6.2,297.2,341.4,299.9
947.2,637,19.6,19.6,100,15.30,53,6.3,297.3,341.8,300.0
946.5,644,19.6,19.6,100,15.35,54,6.3,297.4,342.0,300.1
945.8,650,19.6,19.6,100,15.34,55,6.4,297.4,342.0,300.2
945.1,657,19.6,19.5,100,15.28,55,6.5,297.5,341.9,300.2
944.4,663,19.5,19.4,99,15.14,56,6.6,297.4,341.4,300.1
943.8,669,19.4,19.2,99,14.97,57,6.7,297.4,340.9,300.0
943.1,676,19.3,19.1,99,14.92,58,6.8,297.4,340.7,300.0
942.4,682,19.2,19.1,99,14.93,59,6.9,297.4,340.7,300.0
941.8,687,19.2,19.1,99,14.90,60,7.0,297.4,340.6,300.0
941.2,693,19.1,18.9,99,14.80,61,7.1,297.4,340.4,300.0
940.6,699,19.1,18.8,98,14.69,62,7.3,297.4,340.1,300.0
940.0,704,19.0,18.7,98,14.62,64,7.4,297.4,339.9,300.0
939.4,709,19.0,18.7,98,14.62,65,7.5,297.4,339.9,300.0
938.8,715,19.0,18.8,99,14.69,66,7.6,297.4,340.2,300.1
938.2,720,19.0,18.9,99,14.78,67,7.7,297.5,340.5,300.1
937.6,725,18.9,18.8,99,14.71,68,7.8,297.5,340.3,300.1
937.0,731,18.8,18.4,98,14.37,69,7.9,297.4,339.2,300.0
936.4,737,18.6,17.9,96,13.91,70,8.0,297.3,337.7,299.8
935.8,742,18.5,17.4,93,13.45,71,8.1,297.3,336.4,299.7
935.2,748,18.5,16.8,90,13.01,71,8.1,297.3,335.2,299.6
934.5,754,18.6,15.8,84,12.16,72,8.2,297.5,332.9,299.7
933.9,760,18.7,14.9,79,11.51,73,8.2,297.6,331.3,299.7
933.2,766,18.8,14.7,77,11.35,74,8.3,297.8,330.9,299.8
932.6,772,18.8,14.7,77,11.37,75,8.3,297.8,331.0,299.8
932.0,777,18.8,14.7,77,11.37,75,8.3,297.9,331.1,299.9
931.4,783,18.8,14.7,77,11.34,76,8.3,297.9,331.1,299.9
930.8,789,18.8,14.6,77,11.31,77,8.3,298.0,331.1,300.0
930.2,794,18.8,14.7,77,11.36,78,8.3,298.1,331.3,300.1
929.6,800,18.8,14.7,77,11.37,78,8.3,298.1,331.4,300.2
929.0,805,18.9,14.7,77,11.36,79,8.2,298.2,331.5,300.2
928.4,810,18.8,14.8,77,11.49,80,8.2,298.2,331.9,300.3
927.9,816,18.8,15.1,79,11.74,80,8.2,298.2,332.6,300.3
927.3,821,18.7,15.4,81,11.91,81,8.1,298.2,333.1,300.4
926.7,826,18.7,15.4,81,11.99,81,8.1,298.3,333.3,300.4
926.2,831,18.6,15.5,82,12.03,82,8.0,298.3,333.4,300.4
925.7,836,18.6,15.5,82,12.05,83,8.0,298.2,333.5,300.4
925.1,841,18.5,15.5,82,12.03,83,8.0,298.3,333.4,300.4
925.0,842,18.5,15.4,82,12.01,84,8.0,298.2,333.4,300.4
924.6,846,18.5,15.4,82,11.96,84,8.0,298.3,333.2,300.4
924.1,851,18.5,15.2,81,11.82,84,8.0,298.3,332.9,300.4
923.6,855,18.5,14.9,80,11.61,85,7.9,298.3,332.3,300.4
923.1,860,18.5,14.5,78,11.34,85,7.9,298.4,331.6,300.4
922.5,865,18.5,14.3,76,11.14,86,7.9,298.4,331.1,300.4
922.0,870,18.5,14.2,76,11.13,86,8.0,298.5,331.2,300.5
921.5,875,18.5,14.5,78,11.36,87,8.0,298.6,331.9,300.6
920.9,880,18.5,14.8,79,11.53,87,8.0,298.6,332.5,300.7
920.4,886,18.5,14.7,78,11.47,88,8.0,298.7,332.3,300.7
919.8,891,18.6,14.4,77,11.30,88,8.1,298.8,331.9,300.8
919.3,896,18.6,14.2,76,11.17,89,8.1,298.8,331.6,300.8
918.7,901,18.6,14.1,75,11.07,89,8.2,298.9,331.4,300.9
918.2,906,18.6,13.9,74,10.90,89,8.2,298.9,331.0,300.9
917.6,911,18.6,13.5,72,10.64,90,8.3,299.0,330.3,300.9
917.1,916,18.6,13.3,71,10.51,90,8.4,299.0,330.0,300.9
916.5,922,18.6,13.4,72,10.57,90,8.4,299.1,330.2,301.0
915.9,927,18.5,13.5,72,10.65,91,8.5,299.1,330.4,301.0
915.4,932,18.5,13.5,73,10.66,91,8.5,299.1,330.4,301.0
914.8,937,18.4,13.4,73,10.62,91,8.6,299.1,330.3,301.0
914.3,942,18.4,13.3,72,10.54,91,8.7,299.1,330.1,301.0
913.8,947,18.3,13.2,72,10.47,92,8.7,299.1,329.9,301.0
913.3,952,18.3,13.1,72,10.43,92,8.8,299.1,329.8,301.0
912.7,957,18.3,13.1,72,10.43,92,8.8,299.1,329.8,301.0
912.2,962,18.2,13.1,72,10.42,92,8.9,299.1,329.8,301.0
911.7,967,18.2,13.0,72,10.37,93,8.9,299.1,329.7,301.0
911.2,972,18.2,12.9,71,10.30,93,8.9,299.1,329.5,301.0
910.6,977,18.2,12.6,70,10.14,93,9.0,299.2,329.1,301.0
910.1,982,18.2,12.4,69,10.01,93,9.0,299.3,328.9,301.1
909.5,987,18.2,12.4,69,9.98,94,9.0,299.4,328.8,301.2
909.0,992,18.2,12.4,69,9.98,94,9.0,299.4,328.8,301.2
908.5,997,18.1,12.3,69,9.96,94,9.1,299.4,328.8,301.2
907.9,1002,18.1,12.3,69,9.98,94,9.1,299.4,328.9,301.2
907.4,1007,18.1,12.4,69,10.03,95,9.1,299.4,329.0,301.2
906.9,1012,18.0,12.5,70,10.07,95,9.1,299.4,329.2,301.2
906.3,1017,18.0,12.5,70,10.07,95,9.1,299.5,329.2,301.3
905.8,1022,18.0,12.4,70,10.07,95,9.1,299.5,329.2,301.3
905.3,1028,18.0,12.4,70,10.05,96,9.1,299.5,329.2,301.3
904.7,1033,18.0,12.3,70,10.01,96,9.1,299.6,329.1,301.4
904.2,1038,18.0,12.2,69,9.94,96,9.1,299.6,329.0,301.4
903.6,1043,17.9,12.1,69,9.89,96,9.0,299.6,328.9,301.4
903.1,1048,17.9,12.1,69,9.89,96,9.0,299.7,328.9,301.4
902.5,1054,17.9,12.2,69,9.94,97,9.0,299.7,329.1,301.5
902.0,1059,17.9,12.3,70,10.04,97,9.0,299.8,329.4,301.6
901.4,1064,17.9,12.5,70,10.12,97,9.0,299.8,329.7,301.6
900.9,1069,17.9,12.6,71,10.20,97,9.0,299.8,330.0,301.7
900.3,1074,17.9,12.6,71,10.24,97,9.0,299.9,330.1,301.7
899.8,1080,17.8,12.6,71,10.24,98,9.0,299.9,330.2,301.7
899.2,1085,17.8,12.6,71,10.22,98,9.0,299.9,330.1,301.7
898.7,1090,17.8,12.5,71,10.17,98,8.9,299.9,330.0,301.8
898.1,1096,17.7,12.4,71,10.13,98,8.9,300.0,329.9,301.8
897.5,1101,17.7,12.3,71,10.08,98,8.9,300.0,329.8,301.8
897.0,1106,17.7,12.3,70,10.04,98,8.9,300.0,329.7,301.8
896.4,1112,17.7,12.2,70,10.03,98,8.9,300.0,329.7,301.9
895.8,1117,17.6,12.2,71,10.03,98,8.9,300.1,329.8,301.9
895.3,1123,17.6,12.2,71,10.04,98,8.9,300.1,329.8,301.9
894.7,1128,17.6,12.2,71,10.05,98,8.9,300.1,329.9,301.9
894.1,1133,17.5,12.3,71,10.08,98,8.9,300.1,330.0,301.9
893.6,1139,17.5,12.3,72,10.10,98,8.9,300.1,330.0,301.9
893.0,1144,17.4,12.3,72,10.11,98,8.9,300.1,330.1,302.0
892.5,1149,17.4,12.3,72,10.12,98,8.9,300.1,330.1,302.0
891.9,1155,17.4,12.3,72,10.13,97,8.9,300.2,330.2,302.0
891.4,1160,17.4,12.3,72,10.14,97,8.9,300.2,330.2,302.0
890.8,1165,17.3,12.3,72,10.17,97,8.9,300.2,330.4,302.1
890.3,1170,17.3,12.4,73,10.18,97,8.9,300.3,330.4,302.1
889.7,1176,17.3,12.3,73,10.18,97,8.9,300.3,330.4,302.1
889.2,1181,17.3,12.3,73,10.19,97,9.0,300.3,330.5,302.2
888.6,1187,17.2,12.4,73,10.21,96,9.0,300.3,330.6,302.2
888.0,1193,17.2,12.4,73,10.23,96,9.0,300.3,330.6,302.2
887.4,1198,17.1,12.4,74,10.24,96,9.0,300.4,330.7,302.2
886.8,1204,17.1,12.4,74,10.24,96,9.0,300.4,330.7,302.2
886.2,1210,17.0,12.4,74,10.25,96,9.0,300.4,330.7,302.2
885.5,1216,17.0,12.4,74,10.25,96,9.0,300.4,330.8,302.2
884.9,1222,16.9,12.4,74,10.25,96,9.0,300.4,330.8,302.2
884.4,1227,16.9,12.4,75,10.25,95,9.0,300.4,330.8,302.3
883.8,1233,16.9,12.3,75,10.25,95,9.0,300.4,330.8,302.3
883.2,1238,16.8,12.4,75,10.27,95,9.0,300.4,330.9,302.3
882.7,1243,16.8,12.3,75,10.25,95,9.0,300.5,330.8,302.3
882.2,1249,16.7,12.3,75,10.23,95,9.0,300.5,330.8,302.3
881.7,1254,16.7,12.3,75,10.22,95,9.0,300.5,330.8,302.3
881.1,1259,16.7,12.3,75,10.23,95,9.0,300.5,330.8,302.3
880.6,1264,16.6,12.3,76,10.26,96,9.0,300.5,330.9,302.4
880.1,1269,16.6,12.3,76,10.28,96,9.0,300.5,331.0,302.4
879.5,1274,16.6,12.3,76,10.28,96,9.0,300.5,331.0,302.4
879.0,1279,16.5,12.2,76,10.24,96,9.0,300.5,330.9,302.4
878.5,1284,16.5,12.1,75,10.16,96,9.1,300.6,330.7,302.4
877.9,1290,16.5,12.1,75,10.12,96,9.1,300.6,330.6,302.5
877.4,1295,16.5,12.1,75,10.16,96,9.1,300.6,330.8,302.5
876.9,1300,16.4,12.2,76,10.20,97,9.1,300.7,330.9,302.5
876.3,1306,16.4,12.2,76,10.24,97,9.1,300.7,331.0,302.5
875.7,1311,16.4,12.2,76,10.25,97,9.2,300.7,331.1,302.5
875.2,1317,16.3,12.2,77,10.24,97,9.2,300.7,331.1,302.5
874.6,1322,16.3,12.1,77,10.22,97,9.2,300.7,331.0,302.6
874.0,1328,16.2,12.0,76,10.16,98,9.3,300.7,330.9,302.6
873.4,1333,16.2,11.9,76,10.06,98,9.3,300.8,330.6,302.6
872.9,1339,16.2,11.8,75,10.03,98,9.4,300.8,330.5,302.6
872.3,1345,16.1,11.8,76,10.03,98,9.4,300.8,330.6,302.6
871.7,1350,16.1,11.8,76,10.02,98,9.5,300.8,330.6,302.6
871.1,1356,16.0,11.8,76,10.01,99,9.5,300.8,330.5,302.6
870.5,1362,16.0,11.7,76,9.98,99,9.6,300.8,330.5,302.6
870.0,1368,15.9,11.7,76,9.96,99,9.6,300.8,330.4,302.6
869.4,1373,15.9,11.7,76,9.95,99,9.7,300.8,330.4,302.6
868.8,1379,15.9,11.6,76,9.95,99,9.8,300.9,330.4,302.7
868.2,1385,15.8,11.7,76,9.97,99,9.8,300.9,330.5,302.7
867.6,1391,15.8,11.7,77,10.02,99,9.9,300.9,330.7,302.7
867.0,1397,15.8,11.8,77,10.06,99,9.9,300.9,330.8,302.8
866.4,1403,15.7,11.8,77,10.08,100,10.0,301.0,330.9,302.8
865.7,1409,15.7,11.8,78,10.09,100,10.0,301.0,331.0,302.8
865.1,1415,15.7,11.8,77,10.07,100,10.1,301.0,331.0,302.9
864.6,1421,15.7,11.7,77,10.04,100,10.1,301.1,330.9,302.9
864.0,1426,15.7,11.7,77,10.04,100,10.1,301.1,331.0,303.0
863.4,1432,15.7,11.7,77,10.04,99,10.2,301.2,331.0,303.0
862.8,1438,15.6,11.6,77,10.02,99,10.2,301.2,331.0,303.0
862.2,1443,15.6,11.6,77,10.02,99,10.2,301.2,331.0,303.1
861.7,1449,15.6,11.6,77,10.01,99,10.2,301.2,331.0,303.1
861.1,1454,15.5,11.6,77,10.00,99,10.2,301.3,331.0,303.1
860.6,1460,15.5,11.6,77,9.99,99,10.2,301.3,331.0,303.1
860.1,1465,15.5,11.6,78,10.00,99,10.2,301.3,331.1,303.1
859.5,1470,15.4,11.6,78,10.02,99,10.2,301.3,331.2,303.2
859.0,1475,15.4,11.6,78,10.01,99,10.2,301.4,331.2,303.2
858.5,1480,15.4,11.5,77,9.97,99,10.1,301.4,331.1,303.2
858.0,1485,15.4,11.4,77,9.93,98,10.1,301.5,331.0,303.3
857.4,1491,15.4,11.4,77,9.91,98,10.1,301.5,331.0,303.3
856.9,1496,15.3,11.3,77,9.89,98,10.1,301.5,331.0,303.3
856.4,1501,15.3,11.3,77,9.89,98,10.0,301.5,331.0,303.3
855.8,1507,15.3,11.3,77,9.90,98,10.0,301.6,331.0,303.3
855.3,1512,15.3,11.3,77,9.91,98,10.0,301.6,331.1,303.4
854.7,1518,15.2,11.3,77,9.89,98,9.9,301.6,331.1,303.4
854.2,1523,15.2,11.3,77,9.87,97,9.9,301.6,331.0,303.4
853.6,1529,15.2,11.2,77,9.85,97,9.9,301.6,331.0,303.4
853.1,1534,15.1,11.2,77,9.82,97,9.9,301.7,330.9,303.4
852.5,1540,15.1,11.1,77,9.80,97,9.9,301.7,330.9,303.5
852.0,1545,15.1,11.1,77,9.77,97,9.9,301.7,330.8,303.5
851.4,1551,15.0,11.0,77,9.72,97,9.9,301.7,330.7,303.5
850.8,1556,15.0,10.9,76,9.64,97,9.9,301.8,330.6,303.6
850.3,1562,15.1,10.7,75,9.53,97,9.9,301.9,330.3,303.6
850.0,1565,15.1,10.6,75,9.48,97,9.9,301.9,330.2,303.6
849.7,1568,15.1,10.5,74,9.40,97,9.9,301.9,330.0,303.6
849.1,1574,15.1,10.2,72,9.23,97,9.9,302.0,329.6,303.7
848.5,1579,15.1,9.9,71,9.07,97,9.9,302.1,329.2,303.8
848.0,1585,15.1,9.7,70,8.95,96,9.9,302.2,329.0,303.8
847.4,1591,15.1,9.7,70,8.93,96,10.0,302.2,329.0,303.8
846.8,1597,15.0,9.7,70,8.96,96,10.0,302.2,329.0,303.8
846.2,1603,15.0,9.8,71,9.01,96,10.0,302.2,329.2,303.9
845.6,1609,14.9,9.8,72,9.05,96,10.1,302.2,329.3,303.9
845.0,1615,14.9,9.9,72,9.11,96,10.1,302.2,329.5,303.9
844.4,1621,14.8,10.0,73,9.15,96,10.1,302.2,329.6,303.9
843.8,1627,14.8,9.9,73,9.14,96,10.2,302.3,329.6,303.9
843.2,1633,14.8,9.9,73,9.12,96,10.2,302.3,329.6,303.9
842.6,1639,14.7,9.9,73,9.15,96,10.3,302.3,329.7,304.0
842.0,1645,14.7,10.0,74,9.22,96,10.3,302.3,329.9,304.0
841.5,1650,14.6,10.1,74,9.29,96,10.3,302.3,330.1,304.0
841.0,1655,14.6,10.2,75,9.34,96,10.4,302.3,330.3,304.0
840.4,1661,14.5,10.3,75,9.37,96,10.4,302.3,330.4,304.0
839.9,1666,14.5,10.3,76,9.40,95,10.4,302.4,330.5,304.1
839.4,1671,14.5,10.3,76,9.44,95,10.5,302.4,330.6,304.1
838.9,1677,14.4,10.4,77,9.49,95,10.5,302.4,330.8,304.1
838.3,1682,14.4,10.5,77,9.53,95,10.5,302.4,330.9,304.1
837.8,1687,14.4,10.5,77,9.54,95,10.6,302.4,331.0,304.1
837.2,1693,14.3,10.4,77,9.52,95,10.6,302.4,330.9,304.2
836.7,1699,14.3,10.4,77,9.50,95,10.6,302.5,330.9,304.2
836.1,1704,14.2,10.3,77,9.48,95,10.7,302.5,330.9,304.2
835.6,1710,14.2,10.3,77,9.47,95,10.7,302.5,330.8,304.2
835.0,1716,14.2,10.3,78,9.47,95,10.7,302.5,330.9,304.2
834.5,1721,14.1,10.3,78,9.49,95,10.8,302.5,331.0,304.3
833.9,1726,14.1,10.4,78,9.51,95,10.8,302.6,331.1,304.3
833.4,1732,14.1,10.4,78,9.52,95,10.8,302.6,331.1,304.3
832.9,1737,14.1,10.4,78,9.54,95,10.9,302.6,331.2,304.4
832.4,1741,14.0,10.4,79,9.56,95,10.9,302.6,331.3,304.4
832.0,1746,14.0,10.4,79,9.59,95,11.0,302.7,331.4,304.4
831.5,1751,14.0,10.5,79,9.64,95,11.0,302.7,331.6,304.5
831.1,1755,14.0,10.5,80,9.66,95,11.1,302.7,331.7,304.5
830.6,1760,14.0,10.5,79,9.64,95,11.2,302.8,331.7,304.5
830.2,1764,14.0,10.4,79,9.56,95,11.2,302.8,331.5,304.6
829.7,1769,14.0,10.1,77,9.42,95,11.3,302.9,331.2,304.6
829.3,1774,14.1,9.8,76,9.23,95,11.4,303.0,330.7,304.7
828.8,1779,14.1,9.5,74,9.05,95,11.4,303.1,330.3,304.7
828.3,1784,14.2,9.5,73,9.02,95,11.5,303.2,330.3,304.8
827.7,1789,14.2,9.6,74,9.13,95,11.6,303.2,330.7,304.9
827.2,1795,14.1,9.8,75,9.22,95,11.6,303.3,331.0,305.0
826.7,1800,14.1,9.9,76,9.28,96,11.7,303.3,331.1,305.0
826.1,1806,14.0,9.9,76,9.32,96,11.8,303.3,331.3,305.0
825.6,1812,14.0,10.0,77,9.37,96,11.9,303.3,331.4,305.0
825.0,1817,13.9,10.0,78,9.42,96,11.9,303.3,331.6,305.0
824.5,1823,13.8,10.1,78,9.46,96,12.0,303.3,331.7,305.0
823.9,1829,13.8,10.2,79,9.51,96,12.1,303.3,331.8,305.0
823.3,1834,13.7,10.2,79,9.56,96,12.1,303.3,332.0,305.0
822.8,1840,13.7,10.3,80,9.62,96,12.2,303.3,332.1,305.0
822.2,1846,13.6,10.4,81,9.68,96,12.2,303.3,332.4,305.1
821.7,1851,13.6,10.5,81,9.75,96,12.3,303.3,332.6,305.1
821.1,1857,13.6,10.6,82,9.81,96,12.3,303.3,332.8,305.1
820.6,1863,13.6,10.6,82,9.83,96,12.3,303.4,332.9,305.2
820.1,1868,13.5,10.6,82,9.81,96,12.4,303.4,332.8,305.2
819.6,1873,13.5,10.5,82,9.79,96,12.4,303.4,332.8,305.2
819.0,1879,13.4,10.5,82,9.79,96,12.4,303.4,332.8,305.2
818.5,1884,13.4,10.6,83,9.83,96,12.4,303.4,332.9,305.2
818.0,1889,13.3,10.6,83,9.85,96,12.4,303.4,333.0,305.2
817.5,1895,13.3,10.6,84,9.87,96,12.4,303.4,333.0,305.2
817.0,1900,13.3,10.6,84,9.86,96,12.4,303.4,333.0,305.2
816.5,1905,13.2,10.5,84,9.84,96,12.4,303.4,333.0,305.2
816.0,1910,13.2,10.5,84,9.82,96,12.4,303.4,332.9,305.2
815.6,1915,13.1,10.5,84,9.82,96,12.4,303.4,332.9,305.2
815.1,1919,13.1,10.5,84,9.83,96,12.4,303.4,333.0,305.2
814.6,1925,13.0,10.5,85,9.86,96,12.4,303.5,333.1,305.3
814.1,1930,13.0,10.6,85,9.90,96,12.4,303.5,333.2,305.3
813.6,1935,13.0,10.6,86,9.93,96,12.4,303.5,333.3,305.3
813.1,1940,12.9,10.6,86,9.91,96,12.4,303.5,333.3,305.3
812.5,1946,12.9,10.5,86,9.88,96,12.4,303.5,333.2,305.3
812.0,1951,12.8,10.5,86,9.86,96,12.3,303.5,333.1,305.3
811.5,1957,12.8,10.4,86,9.84,96,12.3,303.5,333.1,305.3
811.0,1962,12.7,10.4,86,9.81,96,12.3,303.5,333.0,305.3
810.4,1968,12.7,10.3,86,9.77,96,12.3,303.5,332.9,305.3
809.9,1973,12.6,10.3,85,9.75,97,12.3,303.5,332.8,305.3
809.4,1978,12.6,10.2,85,9.73,97,12.3,303.6,332.8,305.3
808.9,1983,12.6,10.2,86,9.72,97,12.3,303.6,332.8,305.3
808.5,1988,12.5,10.2,86,9.74,97,12.3,303.6,332.9,305.4
808.0,1993,12.5,10.3,86,9.78,97,12.3,303.6,333.0,305.4
807.5,1998,12.5,10.3,87,9.80,97,12.3,303.6,333.1,305.4
807.1,2003,12.5,10.3,87,9.80,97,12.3,303.6,333.1,305.4
