PRES,HGHT,TEMP,DWPT,RELH,MIXR,DRCT,SPED,THTA,THTE,THTV
1010.2,31,19.5,19.0,97,13.83,255,2.3,291.8,331.0,294.2
1009.7,35,20.0,19.1,95,13.93,257,1.1,292.4,332.0,294.8
1009.1,40,20.3,19.2,94,14.05,262,0.5,292.7,332.7,295.1
1008.5,45,21.1,19.6,92,14.41,269,0.4,293.5,334.7,296.0
1007.9,50,21.7,19.6,88,14.42,272,0.4,294.1,335.5,296.7
1007.1,57,22.1,19.5,85,14.28,271,0.4,294.6,335.6,297.1
1006.5,62,22.3,19.4,84,14.19,270,0.5,294.9,335.7,297.4
1005.8,68,22.3,19.3,83,14.17,271,0.5,295.0,335.8,297.5
1005.1,74,22.3,19.3,83,14.19,272,0.6,295.0,335.9,297.5
1004.5,80,22.3,19.4,83,14.22,273,0.6,295.1,336.0,297.6
1003.8,86,22.3,19.4,84,14.26,275,0.6,295.1,336.2,297.7
1003.1,92,22.3,19.4,84,14.31,276,0.6,295.2,336.4,297.7
1002.5,97,22.3,19.5,84,14.33,277,0.6,295.2,336.5,297.7
1001.9,103,22.2,19.4,84,14.33,278,0.6,295.2,336.5,297.7
1001.3,108,22.2,19.4,85,14.32,279,0.6,295.2,336.4,297.7
1000.6,113,22.1,19.4,85,14.34,279,0.6,295.2,336.5,297.7
1000.1,118,22.1,19.4,85,14.33,280,0.5,295.2,336.5,297.7
1000.0,119,22.1,19.4,85,14.33,281,0.5,295.2,336.5,297.7
999.5,124,22.0,19.4,85,14.35,281,0.5,295.2,336.5,297.7
998.9,129,22.0,19.4,85,14.35,282,0.5,295.2,336.5,297.7
998.3,134,21.9,19.4,86,14.34,283,0.4,295.2,336.5,297.7
997.7,139,21.9,19.4,86,14.35,283,0.4,295.2,336.5,297.7
997.0,145,21.8,19.4,86,14.35,284,0.3,295.2,336.5,297.7
996.4,150,21.8,19.4,86,14.34,284,0.3,295.2,336.5,297.7
995.8,156,21.7,19.4,87,14.36,285,0.2,295.2,336.6,297.8
995.2,161,21.7,19.4,87,14.36,287,0.1,295.2,336.6,297.8
994.6,166,21.6,19.3,87,14.33,291,0.1,295.2,336.5,297.7
994.0,172,21.5,19.3,87,14.32,0,0.0,295.2,336.4,297.7
993.4,177,21.5,19.3,88,14.37,100,0.1,295.2,336.6,297.7
992.8,182,21.5,19.4,88,14.39,104,0.2,295.2,336.6,297.8
992.2,187,21.4,19.4,88,14.39,106,0.3,295.2,336.7,297.8
991.7,192,21.4,19.4,88,14.42,107,0.3,295.2,336.8,297.8
991.1,197,21.3,19.3,89,14.40,108,0.4,295.2,336.7,297.8
990.5,202,21.3,19.3,89,14.38,109,0.5,295.2,336.6,297.8
989.9,207,21.2,19.3,89,14.40,110,0.6,295.2,336.7,297.8
989.3,213,21.2,19.3,89,14.40,111,0.7,295.2,336.7,297.8
988.7,218,21.1,19.3,89,14.39,112,0.8,295.2,336.7,297.8
988.0,224,21.1,19.3,90,14.41,113,0.9,295.2,336.7,297.8
987.4,229,21.0,19.3,90,14.41,114,0.9,295.2,336.8,297.8
986.8,234,21.0,19.3,90,14.41,115,1.0,295.2,336.8,297.8
986.2,240,20.9,19.3,90,14.44,117,1.1,295.3,336.8,297.8
985.6,245,20.9,19.3,91,14.47,118,1.2,295.3,336.9,297.8
985.0,250,20.9,19.3,91,14.46,119,1.2,295.3,336.9,297.8
984.4,256,20.8,19.3,91,14.43,120,1.3,295.3,336.8,297.8
983.8,261,20.8,19.2,91,14.42,122,1.3,295.3,336.8,297.8
983.2,266,20.8,19.2,91,14.43,123,1.4,295.3,336.9,297.9
982.6,272,20.7,19.2,91,14.41,125,1.5,295.4,336.9,297.9
981.9,277,20.7,19.2,91,14.38,126,1.5,295.4,336.8,297.9
981.3,283,20.6,19.1,91,14.35,128,1.5,295.4,336.7,297.9
980.7,288,20.6,19.1,91,14.34,130,1.6,295.4,336.7,297.9
980.1,294,20.6,19.1,91,14.36,131,1.6,295.4,336.8,298.0
979.5,299,20.6,19.1,92,14.38,133,1.7,295.4,336.9,298.0
978.9,304,20.5,19.1,92,14.38,134,1.7,295.4,336.9,298.0
978.3,310,20.4,19.1,92,14.38,136,1.7,295.4,336.9,298.0
977.7,315,20.4,19.1,92,14.36,137,1.8,295.5,336.9,298.0
977.1,320,20.4,19.1,92,14.38,138,1.8,295.5,336.9,298.0
976.5,325,20.3,19.1,93,14.36,139,1.8,295.5,336.9,298.0
976.0,330,20.3,18.9,92,14.26,140,1.8,295.5,336.6,298.0
975.4,335,20.2,18.8,92,14.16,141,1.9,295.5,336.3,298.0
974.9,339,20.2,18.8,92,14.15,142,1.9,295.5,336.3,298.0
974.4,344,20.2,18.8,92,14.19,143,1.9,295.5,336.4,298.0
974.0,348,20.1,18.8,92,14.20,143,1.9,295.5,336.4,298.0
973.5,352,20.1,18.8,93,14.21,144,1.9,295.5,336.5,298.0
973.0,356,20.1,18.8,93,14.19,144,1.9,295.5,336.4,298.0
972.6,360,20.0,18.8,93,14.18,144,1.9,295.5,336.4,298.0
972.1,364,20.0,18.8,93,14.17,144,1.9,295.5,336.3,298.0
971.6,369,19.9,18.8,93,14.18,143,1.9,295.5,336.4,298.0
971.2,373,19.9,18.8,93,14.21,143,1.9,295.5,336.5,298.0
970.7,377,19.9,18.8,94,14.20,143,2.0,295.5,336.5,298.0
970.2,382,19.8,18.8,94,14.19,142,2.0,295.5,336.4,298.0
969.7,386,19.8,18.8,94,14.20,141,2.0,295.5,336.5,298.0
969.2,390,19.7,18.8,94,14.21,140,2.0,295.5,336.5,298.0
968.7,395,19.7,18.8,94,14.20,140,2.0,295.5,336.5,298.0
968.2,399,19.7,18.8,94,14.21,139,2.0,295.5,336.5,298.1
967.7,404,19.6,18.7,95,14.20,138,2.0,295.5,336.5,298.0
967.2,409,19.6,18.7,95,14.17,137,2.1,295.5,336.4,298.0
966.7,413,19.5,18.7,95,14.16,136,2.1,295.5,336.4,298.0
966.2,417,19.5,18.7,95,14.15,136,2.1,295.5,336.4,298.0
965.7,422,19.5,18.6,95,14.14,135,2.2,295.6,336.3,298.1
965.2,426,19.4,18.6,95,14.11,134,2.2,295.6,336.2,298.1
964.8,430,19.4,18.5,95,14.06,134,2.2,295.6,336.1,298.0
964.3,434,19.4,18.5,94,14.00,134,2.2,295.6,336.0,298.1
963.9,438,19.4,18.4,94,13.94,133,2.3,295.6,335.8,298.1
963.4,442,19.3,18.3,94,13.90,133,2.3,295.6,335.7,298.1
962.9,446,19.3,18.3,94,13.85,134,2.4,295.7,335.6,298.1
962.5,451,19.3,18.2,93,13.81,134,2.4,295.7,335.5,298.1
961.9,455,19.3,18.2,93,13.78,134,2.4,295.7,335.5,298.2
961.4,460,19.3,18.1,93,13.74,135,2.5,295.7,335.4,298.2
960.9,465,19.2,18.1,93,13.69,135,2.5,295.7,335.3,298.2
960.3,470,19.2,17.9,92,13.60,136,2.6,295.8,335.0,298.2
959.8,474,19.2,17.8,92,13.49,137,2.6,295.8,334.8,298.2
959.3,479,19.2,17.7,91,13.41,139,2.6,295.8,334.6,298.2
958.8,483,19.2,17.6,91,13.34,140,2.7,295.8,334.4,298.2
958.3,488,19.1,17.5,90,13.27,141,2.7,295.9,334.2,298.2
957.8,492,19.1,17.4,90,13.15,143,2.8,295.9,333.9,298.2
957.4,497,19.2,17.2,88,13.00,144,2.8,296.0,333.6,298.3
956.9,501,19.2,17.0,87,12.80,146,2.9,296.1,333.1,298.3
956.4,505,19.3,16.7,85,12.63,148,2.9,296.2,332.8,298.5
955.9,510,19.4,16.7,84,12.57,150,3.0,296.3,332.8,298.6
955.4,514,19.4,16.7,84,12.60,151,3.1,296.4,332.9,298.6
954.8,519,19.3,16.7,85,12.62,153,3.1,296.4,333.0,298.6
954.3,524,19.3,16.7,85,12.60,155,3.2,296.4,332.9,298.6
953.7,530,19.3,16.6,85,12.58,157,3.2,296.4,332.9,298.7
953.1,535,19.3,16.6,85,12.56,158,3.3,296.4,332.9,298.7
952.4,541,19.2,16.6,85,12.55,160,3.4,296.5,332.9,298.7
951.8,547,19.1,16.6,85,12.54,161,3.5,296.4,332.8,298.7
951.1,553,19.1,16.5,85,12.52,162,3.6,296.5,332.8,298.7
950.5,559,19.0,16.5,85,12.51,163,3.6,296.5,332.7,298.7
949.8,565,19.0,16.5,85,12.50,164,3.7,296.5,332.7,298.7
949.2,570,18.9,16.4,85,12.48,165,3.8,296.5,332.7,298.7
948.7,575,18.9,16.4,86,12.47,166,3.9,296.5,332.6,298.7
948.1,580,18.9,16.4,86,12.47,166,3.9,296.5,332.7,298.7
947.6,585,18.8,16.4,86,12.45,167,4.0,296.5,332.6,298.7
947.1,590,18.8,16.4,86,12.45,167,4.1,296.5,332.6,298.7
946.6,594,18.7,16.4,86,12.48,167,4.1,296.5,332.7,298.7
946.1,599,18.7,16.4,86,12.49,167,4.2,296.5,332.7,298.7
945.5,604,18.6,16.4,87,12.47,167,4.2,296.5,332.7,298.7
945.0,609,18.6,16.3,87,12.46,167,4.3,296.5,332.6,298.7
944.5,613,18.6,16.3,87,12.46,167,4.4,296.5,332.6,298.7
943.9,618,18.5,16.3,87,12.46,166,4.4,296.5,332.7,298.7
943.4,623,18.5,16.3,87,12.44,166,4.4,296.5,332.6,298.7
942.8,628,18.5,16.2,87,12.41,165,4.5,296.6,332.7,298.8
942.3,633,18.6,16.2,86,12.40,165,4.5,296.7,332.7,298.9
941.9,637,18.5,16.2,86,12.39,164,4.6,296.7,332.7,298.9
941.4,641,18.5,16.2,86,12.38,163,4.6,296.8,332.7,299.0
941.0,645,18.5,16.2,86,12.37,162,4.6,296.8,332.7,299.0
940.6,649,18.5,16.2,86,12.37,161,4.7,296.8,332.8,299.0
940.1,653,18.5,16.1,86,12.37,160,4.7,296.8,332.8,299.0
939.7,657,18.5,16.1,86,12.34,160,4.7,296.8,332.7,299.0
939.3,661,18.5,16.1,86,12.32,159,4.8,296.9,332.7,299.1
938.8,665,18.4,16.0,86,12.30,158,4.8,296.9,332.6,299.1
938.4,669,18.4,16.0,86,12.29,157,4.8,296.9,332.6,299.1
937.9,673,18.4,16.0,86,12.30,156,4.8,296.9,332.7,299.1
937.4,678,18.3,16.0,87,12.33,155,4.9,296.9,332.7,299.1
936.9,683,18.3,16.0,87,12.33,154,4.9,296.9,332.7,299.1
936.4,687,18.2,16.0,87,12.33,154,4.9,296.9,332.7,299.1
935.9,692,18.2,16.0,87,12.30,153,4.9,296.9,332.7,299.1
935.4,697,18.2,15.9,87,12.26,152,4.9,296.9,332.5,299.1
934.9,701,18.1,15.9,87,12.21,152,5.0,296.9,332.4,299.1
934.4,706,18.1,15.8,87,12.20,151,5.0,296.9,332.4,299.1
933.9,710,18.0,15.9,87,12.22,150,5.0,296.9,332.5,299.1
933.4,715,18.0,15.9,87,12.24,150,5.0,296.9,332.5,299.1
932.9,719,18.0,15.9,88,12.24,149,5.0,296.9,332.5,299.1
932.4,724,17.9,15.9,88,12.26,149,5.0,296.9,332.6,299.1
931.9,728,17.9,15.9,88,12.28,149,5.1,296.9,332.6,299.1
931.5,732,17.8,15.9,88,12.29,148,5.1,296.9,332.7,299.1
931.0,737,17.8,15.9,89,12.30,148,5.1,296.9,332.7,299.1
930.5,741,17.8,15.9,89,12.28,148,5.1,296.9,332.7,299.1
930.0,746,17.7,15.8,89,12.26,147,5.2,297.0,332.6,299.2
929.5,751,17.7,15.8,89,12.26,147,5.2,297.0,332.6,299.2
929.0,755,17.6,15.8,89,12.26,147,5.2,297.0,332.6,299.2
928.5,760,17.6,15.8,89,12.23,147,5.3,297.0,332.5,299.1
927.9,765,17.6,15.7,89,12.17,146,5.3,297.0,332.4,299.2
927.4,770,17.5,15.6,89,12.12,146,5.4,297.0,332.3,299.2
926.9,775,17.5,15.6,89,12.12,146,5.4,297.0,332.3,299.2
926.4,780,17.5,15.6,89,12.11,146,5.5,297.0,332.3,299.2
925.9,784,17.4,15.6,89,12.09,146,5.5,297.0,332.2,299.2
925.3,789,17.4,15.5,89,12.06,145,5.6,297.1,332.2,299.2
925.0,792,17.4,15.5,89,12.05,145,5.6,297.1,332.2,299.2
924.8,794,17.4,15.5,89,12.05,145,5.7,297.1,332.2,299.2
924.3,799,17.4,15.5,89,12.05,145,5.7,297.1,332.2,299.3
923.8,803,17.3,15.5,89,12.05,145,5.8,297.1,332.2,299.3
923.3,808,17.3,15.5,89,12.10,145,5.9,297.1,332.3,299.3
922.8,812,17.2,15.6,90,12.16,145,6.0,297.1,332.5,299.3
922.3,817,17.2,15.6,91,12.19,144,6.0,297.1,332.6,299.3
921.8,822,17.2,15.6,90,12.16,144,6.1,297.1,332.5,299.3
921.2,827,17.1,15.4,90,12.06,144,6.2,297.2,332.3,299.3
920.7,832,17.1,15.2,89,11.90,144,6.2,297.2,331.8,299.3
920.1,837,17.1,15.0,88,11.74,144,6.3,297.2,331.4,299.3
919.6,843,17.1,14.9,87,11.63,144,6.4,297.3,331.2,299.3
919.0,848,17.1,14.8,86,11.60,144,6.4,297.3,331.1,299.4
918.5,853,17.1,14.8,87,11.61,143,6.5,297.3,331.2,299.4
917.9,858,17.0,14.8,87,11.63,143,6.6,297.4,331.3,299.4
917.4,863,17.0,14.8,87,11.63,143,6.6,297.4,331.3,299.4
916.9,867,16.9,14.8,87,11.62,143,6.6,297.4,331.2,299.4
916.4,872,16.9,14.8,87,11.60,143,6.7,297.4,331.2,299.5
915.9,877,16.9,14.7,87,11.58,142,6.7,297.4,331.2,299.5
915.4,881,16.9,14.7,87,11.57,142,6.7,297.4,331.2,299.5
914.9,886,16.8,14.7,87,11.55,142,6.8,297.4,331.1,299.5
914.4,891,16.8,14.7,87,11.54,142,6.8,297.4,331.1,299.5
913.9,895,16.7,14.6,87,11.53,142,6.8,297.4,331.1,299.5
913.4,900,16.7,14.6,87,11.50,142,6.8,297.5,331.0,299.5
912.9,905,16.7,14.5,87,11.47,142,6.8,297.5,330.9,299.5
912.4,909,16.7,14.5,87,11.43,141,6.8,297.5,330.9,299.5
911.9,914,16.6,14.4,87,11.38,141,6.8,297.5,330.7,299.6
911.5,918,16.6,14.3,86,11.34,141,6.7,297.6,330.7,299.6
911.0,923,16.6,14.3,86,11.31,141,6.7,297.6,330.6,299.6
910.5,927,16.6,14.3,86,11.31,141,6.7,297.6,330.7,299.7
910.1,931,16.6,14.3,86,11.31,141,6.7,297.7,330.7,299.7
909.6,936,16.6,14.3,86,11.30,141,6.6,297.7,330.7,299.7
909.1,941,16.6,14.2,86,11.30,141,6.6,297.7,330.7,299.7
908.6,945,16.6,14.2,86,11.28,141,6.6,297.8,330.7,299.8
908.0,950,16.6,14.1,85,11.22,140,6.6,297.8,330.6,299.8
907.5,955,16.6,14.0,85,11.14,140,6.6,297.9,330.4,299.9
907.0,960,16.6,13.9,84,11.08,140,6.6,297.9,330.3,299.9
906.5,965,16.5,13.9,84,11.07,140,6.6,297.9,330.3,299.9
906.0,970,16.5,13.9,85,11.08,140,6.6,297.9,330.3,299.9
905.5,975,16.5,13.9,85,11.12,140,6.6,298.0,330.5,299.9
905.0,979,16.5,14.0,85,11.15,140,6.6,298.0,330.6,300.0
904.5,984,16.4,14.0,85,11.16,140,6.7,298.0,330.6,300.0
904.0,989,16.4,13.9,85,11.13,140,6.7,298.0,330.6,300.0
903.5,993,16.4,13.8,85,11.08,140,6.8,298.0,330.4,300.0
903.0,998,16.3,13.8,85,11.03,139,6.8,298.1,330.3,300.0
902.5,1003,16.3,13.8,85,11.05,139,6.9,298.1,330.5,300.1
902.0,1008,16.3,13.9,86,11.14,139,7.0,298.1,330.7,300.1
901.5,1012,16.3,14.0,86,11.22,139,7.1,298.1,331.0,300.1
901.0,1017,16.3,14.1,87,11.27,139,7.2,298.1,331.1,300.2
900.5,1022,16.2,14.1,87,11.32,139,7.3,298.2,331.3,300.2
900.0,1027,16.2,14.1,88,11.34,138,7.4,298.2,331.4,300.2
899.4,1032,16.1,14.1,88,11.34,138,7.5,298.2,331.4,300.2
898.9,1037,16.1,14.1,88,11.35,138,7.6,298.2,331.4,300.2
898.4,1042,16.0,14.2,89,11.39,138,7.7,298.2,331.5,300.2
897.8,1047,16.0,14.2,89,11.42,138,7.8,298.2,331.6,300.2
897.2,1053,15.9,14.2,89,11.42,137,7.9,298.2,331.6,300.2
896.7,1058,15.9,14.1,89,11.39,137,8.0,298.2,331.5,300.2
896.1,1063,15.8,14.0,89,11.32,137,8.1,298.2,331.3,300.2
895.6,1068,15.8,13.9,88,11.23,137,8.2,298.2,331.1,300.2
895.1,1072,15.8,13.8,88,11.17,137,8.2,298.2,331.0,300.2
894.7,1077,15.8,13.8,88,11.16,136,8.3,298.3,330.9,300.3
894.3,1081,15.8,13.8,88,11.18,136,8.3,298.3,331.0,300.3
893.8,1085,15.7,13.9,89,11.21,136,8.3,298.3,331.2,300.3
893.4,1089,15.8,13.9,89,11.22,136,8.3,298.4,331.2,300.4
893.0,1093,15.8,13.8,88,11.19,135,8.3,298.4,331.2,300.4
892.5,1097,15.8,13.8,88,11.15,135,8.3,298.4,331.1,300.4
892.1,1102,15.7,13.7,88,11.15,135,8.3,298.5,331.1,300.5
891.6,1106,15.7,13.8,88,11.17,135,8.3,298.5,331.2,300.5
891.1,1111,15.7,13.8,89,11.21,135,8.2,298.5,331.4,300.5
890.6,1116,15.7,13.9,89,11.27,134,8.2,298.5,331.6,300.5
890.0,1122,15.6,13.9,90,11.32,134,8.1,298.5,331.7,300.5
889.4,1127,15.5,13.9,90,11.33,134,8.1,298.5,331.7,300.5
888.8,1133,15.4,13.9,91,11.34,134,8.0,298.5,331.7,300.5
888.2,1139,15.4,13.9,91,11.32,133,7.9,298.5,331.7,300.5
887.6,1144,15.3,13.8,91,11.28,133,7.9,298.5,331.5,300.5
887.0,1150,15.3,13.8,91,11.26,133,7.8,298.5,331.5,300.5
886.4,1156,15.2,13.8,91,11.26,133,7.7,298.5,331.5,300.5
885.8,1161,15.2,13.9,92,11.31,133,7.7,298.5,331.7,300.5
885.3,1167,15.1,13.9,92,11.36,133,7.6,298.5,331.8,300.5
884.7,1172,15.1,13.9,93,11.36,132,7.6,298.5,331.8,300.5
884.2,1177,15.0,13.9,93,11.33,132,7.6,298.5,331.7,300.5
883.7,1182,15.0,13.8,93,11.30,132,7.5,298.5,331.6,300.5
883.3,1186,14.9,13.8,93,11.27,132,7.5,298.5,331.5,300.5
882.8,1190,14.9,13.7,93,11.27,133,7.5,298.5,331.5,300.5
882.4,1194,14.9,13.7,93,11.26,133,7.5,298.5,331.5,300.5
882.0,1198,14.8,13.7,93,11.27,133,7.5,298.5,331.5,300.5
881.6,1202,14.8,13.7,93,11.28,133,7.5,298.5,331.6,300.5
881.1,1207,14.8,13.8,94,11.31,134,7.6,298.5,331.7,300.6
880.6,1211,14.7,13.8,94,11.33,134,7.6,298.5,331.8,300.6
880.1,1216,14.7,13.8,94,11.35,134,7.6,298.5,331.8,300.6
879.6,1222,14.6,13.8,95,11.38,135,7.7,298.5,331.9,300.6
879.0,1227,14.6,13.8,95,11.37,135,7.7,298.5,331.8,300.6
878.4,1233,14.5,13.8,95,11.34,136,7.7,298.5,331.7,300.6
877.8,1239,14.5,13.7,95,11.29,136,7.8,298.5,331.6,300.5
877.2,1244,14.4,13.6,95,11.26,137,7.8,298.5,331.5,300.5
876.7,1250,14.4,13.6,95,11.23,137,7.8,298.5,331.5,300.6
876.1,1255,14.3,13.6,95,11.23,138,7.9,298.5,331.5,300.6
875.6,1260,14.3,13.6,95,11.23,138,7.9,298.5,331.5,300.6
875.1,1265,14.2,13.5,95,11.20,139,7.9,298.5,331.4,300.6
874.5,1270,14.2,13.5,95,11.16,139,7.9,298.6,331.3,300.6
874.0,1275,14.2,13.4,95,11.14,140,7.9,298.6,331.2,300.6
873.5,1280,14.1,13.4,96,11.15,140,7.9,298.6,331.3,300.6
873.0,1286,14.1,13.4,96,11.14,141,7.9,298.6,331.3,300.6
872.4,1291,14.1,13.4,96,11.13,141,7.8,298.6,331.3,300.6
871.9,1296,14.0,13.4,96,11.14,142,7.8,298.6,331.3,300.6
871.3,1302,14.0,13.4,96,11.14,142,7.8,298.6,331.3,300.6
870.7,1307,13.9,13.4,97,11.15,142,7.7,298.6,331.3,300.6
870.1,1313,13.9,13.4,97,11.15,142,7.7,298.7,331.4,300.7
869.5,1319,13.8,13.3,97,11.12,143,7.6,298.6,331.3,300.6
868.9,1325,13.8,13.3,97,11.09,143,7.5,298.7,331.2,300.6
868.3,1331,13.7,13.2,97,11.05,143,7.5,298.7,331.1,300.6
867.7,1337,13.6,13.1,97,11.01,143,7.4,298.6,331.0,300.6
867.1,1343,13.6,13.1,97,10.98,143,7.3,298.7,330.9,300.6
866.4,1349,13.5,13.0,97,10.96,143,7.2,298.7,330.9,300.6
865.8,1355,13.5,13.0,97,10.95,143,7.1,298.7,330.9,300.7
865.2,1361,13.5,13.0,97,10.94,143,7.1,298.7,330.9,300.7
864.6,1367,13.5,13.0,97,10.93,143,7.0,298.8,330.9,300.7
864.0,1373,13.4,12.9,97,10.89,143,6.9,298.8,330.8,300.8
863.4,1379,13.4,12.8,96,10.82,143,6.8,298.8,330.6,300.8
862.9,1384,13.4,12.7,95,10.75,142,6.8,298.9,330.5,300.8
862.3,1389,13.4,12.6,95,10.72,142,6.7,298.9,330.4,300.9
861.8,1394,13.4,12.6,95,10.72,142,6.6,299.0,330.5,300.9
861.3,1399,13.4,12.6,95,10.74,142,6.6,299.0,330.6,300.9
860.9,1403,13.4,12.6,95,10.73,142,6.6,299.0,330.6,301.0
860.4,1408,13.3,12.6,95,10.71,142,6.5,299.1,330.6,301.0
860.0,1412,13.3,12.6,95,10.71,142,6.5,299.1,330.6,301.0
859.5,1417,13.3,12.6,95,10.72,143,6.4,299.1,330.6,301.0
859.1,1421,13.3,12.6,96,10.73,143,6.4,299.1,330.7,301.1
858.6,1426,13.2,12.6,96,10.72,143,6.4,299.1,330.7,301.0
858.1,1431,13.2,12.5,96,10.69,143,6.4,299.1,330.6,301.0
857.5,1436,13.1,12.5,96,10.65,143,6.3,299.1,330.5,301.1
857.0,1441,13.1,12.4,96,10.62,144,6.3,299.2,330.4,301.1
856.4,1447,13.1,12.3,95,10.59,144,6.3,299.2,330.3,301.1
855.9,1452,13.0,12.3,95,10.53,144,6.3,299.2,330.2,301.1
855.3,1458,13.0,12.2,95,10.47,144,6.3,299.2,330.0,301.1
854.7,1464,13.0,12.1,94,10.40,144,6.2,299.2,329.9,301.1
854.1,1470,12.9,11.9,93,10.29,145,6.2,299.3,329.6,301.1
853.5,1476,13.0,11.7,92,10.15,145,6.1,299.4,329.3,301.2
852.9,1482,13.0,11.5,90,10.03,145,6.1,299.5,329.1,301.3
852.3,1488,13.0,11.3,89,9.93,145,6.1,299.5,328.9,301.3
851.7,1494,13.1,11.2,88,9.83,145,6.0,299.6,328.7,301.4
851.1,1499,13.1,11.1,88,9.77,145,5.9,299.7,328.6,301.5
850.6,1505,13.0,11.0,88,9.76,145,5.9,299.7,328.6,301.5
850.0,1511,13.0,11.0,88,9.78,146,5.8,299.8,328.7,301.5
849.5,1516,13.0,11.1,88,9.83,146,5.8,299.8,328.9,301.6
848.9,1521,13.0,11.2,89,9.89,146,5.7,299.8,329.1,301.6
848.4,1527,12.9,11.2,90,9.92,146,5.6,299.8,329.1,301.6
847.9,1532,12.8,11.2,90,9.92,145,5.6,299.8,329.1,301.6
847.3,1537,12.8,11.3,90,9.95,145,5.5,299.8,329.2,301.6
846.9,1542,12.8,11.3,91,9.98,145,5.4,299.8,329.3,301.6
846.4,1546,12.8,11.3,91,10.00,145,5.4,299.9,329.4,301.7
846.0,1551,12.7,11.3,91,10.00,145,5.3,299.9,329.4,301.7
845.6,1555,12.7,11.3,91,10.01,146,5.3,299.9,329.5,301.7
845.2,1559,12.7,11.3,91,9.99,146,5.2,299.9,329.5,301.7
844.7,1563,12.7,11.2,91,9.96,146,5.2,300.0,329.4,301.7
844.3,1567,12.7,11.2,91,9.95,146,5.1,300.0,329.4,301.8
843.9,1571,12.6,11.2,91,9.93,146,5.1,300.0,329.4,301.8
843.5,1576,12.6,11.2,91,9.93,147,5.1,300.0,329.4,301.8
843.0,1580,12.6,11.1,91,9.91,147,5.0,300.0,329.3,301.8
842.5,1585,12.5,11.1,91,9.90,148,5.0,300.0,329.3,301.8
842.0,1590,12.5,11.1,91,9.89,148,5.0,300.1,329.3,301.8
841.5,1595,12.5,11.0,91,9.86,149,5.0,300.1,329.3,301.9
841.0,1600,12.5,11.0,90,9.83,150,5.0,300.1,329.2,301.9
840.5,1605,12.5,10.9,90,9.81,150,5.0,300.1,329.2,301.9
840.0,1610,12.4,10.9,90,9.79,151,5.0,300.2,329.2,301.9
839.5,1616,12.4,10.8,90,9.77,152,5.0,300.2,329.1,301.9
839.0,1621,12.4,10.8,90,9.72,152,4.9,300.2,329.0,302.0
838.5,1626,12.4,10.6,89,9.65,153,4.9,300.2,328.8,302.0
838.0,1630,12.3,10.6,89,9.59,153,4.9,300.3,328.7,302.0
837.5,1635,12.3,10.5,89,9.56,154,4.9,300.3,328.6,302.0
837.0,1640,12.3,10.5,89,9.54,154,4.9,300.3,328.6,302.0
836.5,1645,12.3,10.4,88,9.52,155,4.8,300.3,328.6,302.1
836.1,1650,12.2,10.4,88,9.51,155,4.8,300.4,328.6,302.1
835.6,1654,12.2,10.4,88,9.49,155,4.7,300.4,328.5,302.1
835.1,1659,12.2,10.3,88,9.47,156,4.7,300.4,328.5,302.1
834.7,1664,12.1,10.3,88,9.46,156,4.6,300.4,328.5,302.1
834.2,1668,12.1,10.3,88,9.45,156,4.6,300.4,328.4,302.1
833.7,1673,12.1,10.2,89,9.44,156,4.5,300.4,328.4,302.1
833.3,1678,12.0,10.2,89,9.43,155,4.4,300.4,328.4,302.1
832.8,1682,12.0,10.2,88,9.41,155,4.4,300.5,328.4,302.2
832.3,1687,12.0,10.1,88,9.36,155,4.3,300.5,328.3,302.2
831.8,1692,12.0,10.0,88,9.31,154,4.2,300.5,328.2,302.2
831.3,1697,11.9,10.0,88,9.30,154,4.2,300.5,328.2,302.2
830.9,1702,11.9,10.0,88,9.29,153,4.1,300.5,328.1,302.2
830.4,1707,11.8,9.9,88,9.29,153,4.1,300.5,328.1,302.2
829.9,1712,11.8,10.0,88,9.30,152,4.0,300.5,328.2,302.2
829.5,1716,11.7,10.0,89,9.31,152,4.0,300.5,328.2,302.2
829.0,1721,11.7,9.9,89,9.29,151,3.9,300.5,328.1,302.2
828.6,1725,11.7,9.9,89,9.29,150,3.9,300.5,328.1,302.2
828.2,1729,11.6,9.9,89,9.30,150,3.9,300.5,328.2,302.2
827.7,1734,11.6,9.9,90,9.32,149,3.9,300.5,328.2,302.2
827.3,1738,11.6,10.0,90,9.36,149,3.9,300.6,328.4,302.3
826.9,1743,11.5,10.0,90,9.38,148,3.9,300.6,328.4,302.3
826.4,1747,11.5,10.0,90,9.36,148,3.9,300.6,328.4,302.3
825.9,1752,11.4,9.9,90,9.32,148,3.9,300.6,328.3,302.3
825.5,1757,11.4,9.8,90,9.27,148,3.9,300.6,328.1,302.3
825.0,1761,11.4,9.7,89,9.20,147,4.0,300.6,328.0,302.3
824.5,1766,11.4,9.5,88,9.10,147,4.0,300.6,327.7,302.3
824.1,1771,11.4,9.4,87,8.99,147,4.0,300.7,327.5,302.4
823.6,1775,11.4,9.3,87,8.95,147,4.1,300.8,327.5,302.4
823.2,1780,11.4,9.3,87,8.94,147,4.1,300.8,327.4,302.4
822.7,1784,11.4,9.3,87,8.97,147,4.2,300.8,327.5,302.5
822.3,1789,11.3,9.3,87,9.01,147,4.3,300.8,327.7,302.5
