PRES,HGHT,TEMP,DWPT,RELH,MIXR,DRCT,SPED,THTA,THTE,THTV
1006.2,31,24.5,21.6,84,16.39,60,3.3,297.1,344.7,300.0
1005.5,36,24.7,21.8,84,16.58,48,2.6,297.4,345.6,300.4
1004.8,43,24.1,21.7,86,16.49,42,2.5,296.9,344.7,299.8
1004.2,48,23.8,21.6,87,16.37,41,2.5,296.6,344.0,299.5
1003.4,55,23.7,21.6,88,16.36,42,2.7,296.6,344.0,299.5
1002.6,62,23.7,21.5,87,16.29,43,2.9,296.6,343.8,299.5
1002.0,68,23.7,21.4,87,16.21,45,3.1,296.7,343.6,299.6
1001.5,71,23.5,21.1,86,15.95,46,3.2,296.5,342.7,299.4
1000.9,77,23.3,20.9,86,15.78,47,3.4,296.4,342.1,299.2
1000.3,82,23.3,20.9,87,15.79,48,3.5,296.4,342.1,299.2
1000.0,85,23.3,21.0,87,15.80,48,3.5,296.4,342.1,299.2
999.7,87,23.3,21.0,87,15.82,49,3.6,296.4,342.2,299.2
999.1,93,23.3,21.0,87,15.83,50,3.8,296.5,342.3,299.3
998.5,98,23.3,21.0,87,15.89,51,3.9,296.5,342.5,299.4
997.8,104,23.2,21.0,87,15.86,52,4.0,296.5,342.4,299.3
997.2,110,23.0,20.9,88,15.76,53,4.1,296.4,342.0,299.2
996.5,115,23.0,20.8,88,15.73,54,4.2,296.4,341.9,299.2
995.8,121,22.9,20.8,88,15.76,54,4.2,296.4,342.0,299.2
995.2,127,22.9,20.9,88,15.80,55,4.3,296.4,342.2,299.3
994.5,133,22.8,20.9,89,15.79,56,4.4,296.5,342.2,299.3
993.8,139,22.8,20.8,89,15.78,57,4.4,296.4,342.1,299.2
993.2,145,22.7,20.8,89,15.79,58,4.5,296.4,342.1,299.2
992.5,151,22.6,20.8,90,15.81,58,4.5,296.4,342.2,299.2
991.8,157,22.6,20.8,90,15.81,59,4.5,296.4,342.2,299.2
991.1,163,22.5,20.8,90,15.82,60,4.6,296.4,342.2,299.2
990.3,170,22.5,20.9,91,15.87,60,4.6,296.5,342.4,299.3
989.6,176,22.5,20.9,91,15.91,61,4.6,296.5,342.5,299.3
988.9,182,22.4,20.9,91,15.93,61,4.7,296.5,342.6,299.3
988.2,189,22.3,20.9,91,15.90,61,4.7,296.5,342.5,299.3
987.5,195,22.2,20.8,92,15.87,62,4.7,296.5,342.4,299.3
986.8,201,22.2,20.8,92,15.88,62,4.7,296.5,342.4,299.3
986.1,207,22.1,20.8,92,15.92,62,4.7,296.5,342.5,299.3
985.4,213,22.0,20.8,93,15.91,62,4.7,296.4,342.5,299.3
984.7,220,22.0,20.8,93,15.95,62,4.7,296.4,342.6,299.3
984.0,226,21.9,20.8,94,15.96,62,4.8,296.4,342.6,299.3
983.3,232,21.9,20.8,94,15.91,62,4.8,296.4,342.5,299.2
982.6,238,21.8,20.8,94,15.90,61,4.8,296.4,342.4,299.2
981.9,245,21.7,20.8,94,15.92,61,4.8,296.4,342.5,299.3
981.2,251,21.7,20.8,95,15.92,61,4.8,296.4,342.5,299.2
980.4,257,21.6,20.7,95,15.90,61,4.8,296.4,342.4,299.2
979.7,264,21.5,20.7,95,15.84,60,4.9,296.4,342.2,299.2
979.0,270,21.5,20.6,95,15.76,60,4.9,296.4,342.0,299.2
978.4,276,21.4,20.4,94,15.62,60,4.9,296.4,341.6,299.2
977.8,281,21.4,20.3,94,15.51,59,4.9,296.4,341.3,299.2
977.2,286,21.4,20.3,93,15.49,59,4.9,296.5,341.3,299.2
976.7,291,21.3,20.3,94,15.53,59,4.9,296.5,341.4,299.2
976.1,296,21.3,20.3,94,15.58,59,4.9,296.5,341.5,299.2
975.6,300,21.2,20.4,95,15.63,59,4.9,296.4,341.7,299.2
975.1,305,21.2,20.4,95,15.66,59,4.9,296.4,341.8,299.2
974.6,309,21.1,20.4,96,15.70,59,4.9,296.4,341.9,299.2
974.1,314,21.1,20.5,96,15.73,59,4.9,296.5,342.0,299.2
973.6,318,21.0,20.4,96,15.72,59,4.8,296.4,341.9,299.2
973.0,323,21.0,20.4,96,15.69,59,4.8,296.4,341.8,299.2
972.5,328,20.9,20.4,96,15.67,59,4.8,296.4,341.8,299.2
972.0,333,20.9,20.3,97,15.66,60,4.7,296.4,341.7,299.2
971.4,338,20.9,20.3,97,15.62,60,4.7,296.4,341.6,299.2
970.8,343,20.8,20.2,97,15.57,60,4.7,296.4,341.5,299.2
970.3,348,20.8,20.2,97,15.58,61,4.6,296.5,341.5,299.2
969.7,353,20.7,20.3,97,15.61,61,4.6,296.5,341.7,299.2
969.1,358,20.7,20.3,97,15.62,62,4.5,296.5,341.7,299.2
968.6,363,20.7,20.2,97,15.60,62,4.5,296.5,341.6,299.3
968.0,368,20.6,20.1,97,15.47,63,4.4,296.5,341.3,299.2
967.4,374,20.6,20.0,97,15.42,64,4.3,296.5,341.1,299.2
966.8,379,20.5,20.1,97,15.48,64,4.3,296.5,341.4,299.3
966.2,385,20.5,20.1,97,15.48,65,4.2,296.5,341.4,299.3
965.6,390,20.4,20.1,98,15.55,66,4.1,296.5,341.6,299.3
964.9,396,20.4,20.3,100,15.77,66,4.1,296.6,342.2,299.4
964.3,402,20.4,20.4,100,15.80,67,4.0,296.6,342.3,299.4
963.6,408,20.3,20.3,100,15.77,68,3.9,296.6,342.2,299.4
962.9,414,20.3,20.3,100,15.77,68,3.9,296.6,342.3,299.4
962.2,420,20.3,20.3,100,15.75,69,3.8,296.7,342.3,299.5
961.5,427,20.2,20.2,100,15.72,70,3.7,296.7,342.2,299.5
960.8,434,20.2,20.2,100,15.69,70,3.7,296.7,342.2,299.5
960.0,440,20.2,20.2,100,15.67,71,3.6,296.7,342.1,299.5
959.3,447,20.1,20.1,100,15.64,71,3.5,296.8,342.1,299.5
958.6,453,20.1,20.1,100,15.60,72,3.5,296.8,342.0,299.5
957.9,459,20.0,20.0,100,15.58,72,3.4,296.8,342.0,299.6
957.2,465,20.0,20.0,100,15.56,72,3.3,296.8,342.0,299.6
956.6,471,20.0,20.0,100,15.55,73,3.2,296.9,342.0,299.6
956.0,477,19.9,19.9,100,15.50,73,3.2,296.9,341.8,299.6
955.4,482,19.9,19.9,100,15.46,73,3.1,296.9,341.7,299.6
954.8,487,19.8,19.8,100,15.42,74,3.0,296.9,341.5,299.6
954.3,492,19.8,19.8,100,15.45,74,2.9,296.9,341.7,299.7
953.7,497,19.9,19.9,100,15.48,74,2.8,297.0,341.9,299.7
953.1,502,19.9,19.9,100,15.49,74,2.8,297.0,342.0,299.8
952.6,507,19.8,19.8,100,15.48,73,2.7,297.1,342.0,299.8
952.0,513,19.8,19.8,100,15.44,73,2.6,297.1,341.9,299.8
951.5,518,19.8,19.8,100,15.42,73,2.5,297.1,341.9,299.8
950.9,523,19.7,19.7,100,15.35,72,2.4,297.1,341.6,299.8
950.4,528,19.6,19.6,100,15.28,72,2.3,297.0,341.4,299.8
949.8,533,19.5,19.4,100,15.13,71,2.2,296.9,340.8,299.6
949.3,538,19.2,18.7,97,14.46,70,2.2,296.7,338.7,299.3
948.7,543,19.1,17.9,93,13.77,69,2.1,296.6,336.5,299.1
948.2,548,19.0,17.4,91,13.29,67,2.0,296.6,335.1,298.9
947.6,553,18.9,17.2,90,13.14,66,1.9,296.5,334.7,298.9
947.1,558,18.8,17.3,91,13.21,64,1.9,296.5,334.8,298.9
946.5,563,18.7,17.4,92,13.29,63,1.8,296.5,335.0,298.9
945.9,568,18.6,17.4,93,13.34,61,1.8,296.5,335.1,298.8
945.3,574,18.6,17.4,93,13.36,59,1.8,296.4,335.2,298.8
944.7,579,18.5,17.4,93,13.39,57,1.7,296.4,335.2,298.8
944.1,585,18.5,17.4,93,13.40,55,1.7,296.5,335.3,298.9
943.5,590,18.5,17.4,93,13.40,53,1.7,296.5,335.4,298.9
943.0,595,18.5,17.4,93,13.38,51,1.7,296.6,335.4,299.0
942.4,600,18.5,17.4,93,13.38,50,1.7,296.6,335.4,299.0
941.9,605,18.5,17.4,93,13.37,48,1.7,296.7,335.5,299.1
941.4,610,18.5,17.3,93,13.29,47,1.7,296.7,335.3,299.1
940.8,615,18.5,17.1,92,13.15,46,1.7,296.8,335.0,299.1
940.3,619,18.5,16.9,90,13.00,45,1.7,296.8,334.6,299.2
939.8,624,18.5,16.8,90,12.94,45,1.8,296.9,334.5,299.2
939.2,629,18.5,16.8,90,12.95,44,1.8,296.9,334.6,299.2
938.7,634,18.5,16.8,90,12.95,44,1.8,297.0,334.6,299.3
938.1,639,18.5,16.8,90,12.92,44,1.8,297.0,334.6,299.3
937.5,645,18.5,16.7,90,12.90,44,1.8,297.1,334.6,299.4
937.0,650,18.5,16.7,89,12.89,44,1.8,297.1,334.6,299.4
936.4,655,18.5,16.7,89,12.90,44,1.8,297.2,334.7,299.5
935.7,661,18.5,16.7,89,12.92,45,1.8,297.3,334.8,299.6
935.1,667,18.5,16.7,89,12.88,45,1.8,297.3,334.8,299.6
934.4,673,18.5,16.5,88,12.76,45,1.8,297.3,334.5,299.6
933.7,680,18.5,16.3,87,12.61,46,1.7,297.4,334.1,299.7
933.0,687,18.5,16.2,86,12.48,46,1.7,297.5,333.9,299.7
932.3,693,18.6,16.1,86,12.43,46,1.7,297.6,333.9,299.8
931.5,700,18.6,16.1,85,12.45,46,1.6,297.7,334.0,299.9
930.8,707,18.6,16.1,85,12.46,46,1.6,297.8,334.1,300.0
930.1,713,18.6,16.0,85,12.42,46,1.5,297.8,334.0,300.0
929.4,720,18.6,15.9,85,12.34,46,1.5,297.9,333.9,300.1
928.8,726,18.6,15.8,84,12.22,46,1.5,297.9,333.6,300.1
928.1,732,18.6,15.5,82,12.05,45,1.4,298.1,333.3,300.2
927.5,737,18.8,15.3,80,11.90,45,1.3,298.3,333.1,300.4
926.9,743,19.0,15.4,80,11.93,44,1.3,298.5,333.5,300.7
926.3,748,19.1,15.5,80,12.06,43,1.2,298.7,334.1,300.9
925.8,753,19.2,15.6,79,12.09,42,1.2,298.9,334.4,301.1
925.2,758,19.4,15.4,78,11.99,41,1.1,299.1,334.3,301.2
925.0,761,19.4,15.3,77,11.94,39,1.1,299.1,334.2,301.3
924.7,763,19.5,15.3,77,11.87,39,1.1,299.2,334.1,301.4
924.2,768,19.6,15.2,76,11.81,38,1.1,299.4,334.1,301.5
923.7,772,19.6,15.2,76,11.81,36,1.0,299.5,334.2,301.6
923.2,777,19.6,15.2,76,11.84,34,1.0,299.5,334.4,301.6
922.7,782,19.6,15.2,76,11.86,31,1.0,299.5,334.4,301.7
922.2,786,19.6,15.2,76,11.85,29,0.9,299.6,334.4,301.7
921.7,791,19.6,15.2,76,11.85,26,0.9,299.6,334.5,301.7
921.2,796,19.5,15.2,76,11.85,24,0.9,299.6,334.5,301.8
920.7,801,19.5,15.2,76,11.85,21,0.8,299.6,334.5,301.8
920.2,806,19.5,15.2,76,11.87,17,0.8,299.6,334.6,301.8
919.6,811,19.4,15.2,77,11.91,14,0.8,299.7,334.7,301.8
919.1,816,19.4,15.2,77,11.92,10,0.8,299.7,334.7,301.8
918.5,821,19.3,15.2,77,11.92,7,0.8,299.7,334.8,301.8
918.0,826,19.3,15.2,77,11.93,2,0.7,299.7,334.8,301.8
917.4,832,19.2,15.2,78,11.95,358,0.7,299.7,334.8,301.8
916.8,837,19.2,15.2,78,11.97,353,0.7,299.7,334.9,301.8
916.2,843,19.1,15.2,78,11.97,347,0.7,299.7,334.9,301.8
915.7,848,19.1,15.3,79,12.01,341,0.6,299.7,335.0,301.8
915.1,853,19.1,15.4,79,12.09,334,0.6,299.7,335.3,301.9
914.5,859,19.1,15.4,79,12.13,326,0.6,299.8,335.5,301.9
914.0,864,19.1,15.4,79,12.13,319,0.6,299.8,335.5,302.0
913.5,869,19.0,15.4,79,12.13,311,0.6,299.8,335.6,302.0
912.9,874,19.0,15.4,80,12.14,303,0.6,299.9,335.6,302.1
912.4,879,19.0,15.4,80,12.14,296,0.7,299.9,335.6,302.1
911.9,884,18.9,15.4,80,12.12,288,0.7,299.9,335.6,302.0
911.4,889,18.9,15.4,80,12.13,281,0.8,299.8,335.6,302.0
910.8,894,18.8,15.4,81,12.17,275,0.8,299.8,335.7,302.0
910.3,899,18.7,15.4,81,12.18,269,0.9,299.8,335.7,302.0
909.7,904,18.7,15.4,81,12.21,264,0.9,299.8,335.8,302.0
909.1,910,18.7,15.5,82,12.26,259,1.0,299.9,336.0,302.1
908.5,915,18.6,15.6,82,12.36,254,1.1,299.9,336.3,302.1
908.0,921,18.7,15.7,83,12.45,250,1.1,300.0,336.6,302.2
907.4,926,18.6,15.7,83,12.45,246,1.2,300.0,336.7,302.2
906.8,932,18.6,15.6,82,12.37,243,1.3,300.0,336.5,302.3
906.3,937,18.6,15.5,82,12.32,239,1.4,300.0,336.4,302.3
905.7,942,18.5,15.5,83,12.33,236,1.5,300.1,336.4,302.3
905.1,948,18.5,15.5,83,12.35,234,1.5,300.1,336.4,302.3
904.6,953,18.4,15.6,83,12.38,231,1.6,300.1,336.5,302.3
904.0,958,18.4,15.6,83,12.40,229,1.7,300.1,336.6,302.3
903.5,963,18.4,15.4,83,12.25,226,1.8,300.1,336.2,302.3
902.9,969,18.4,15.0,80,11.92,224,2.0,300.2,335.4,302.4
902.4,973,18.5,14.4,77,11.48,223,2.1,300.4,334.3,302.4
901.9,978,18.6,14.0,75,11.24,221,2.2,300.5,333.8,302.6
901.5,982,18.7,14.0,74,11.23,220,2.3,300.6,333.8,302.6
901.1,986,18.6,14.1,75,11.26,219,2.4,300.6,333.9,302.6
900.6,990,18.6,14.0,75,11.25,218,2.6,300.6,333.9,302.7
900.2,994,18.6,13.8,74,11.09,217,2.7,300.6,333.5,302.6
899.8,998,18.6,13.4,71,10.78,217,2.8,300.7,332.7,302.7
899.4,1002,18.7,13.0,69,10.50,216,3.0,300.8,332.0,302.7
899.0,1006,18.8,12.8,68,10.38,216,3.1,300.9,331.7,302.8
898.6,1010,18.8,12.7,68,10.31,216,3.3,301.0,331.6,302.9
898.1,1015,18.8,12.4,66,10.11,216,3.4,301.1,331.1,302.9
897.6,1019,18.9,12.0,65,9.89,216,3.6,301.2,330.6,303.0
897.1,1024,18.9,11.9,64,9.82,216,3.7,301.2,330.5,303.0
896.7,1029,18.9,11.9,64,9.82,216,3.8,301.3,330.5,303.0
896.2,1033,18.8,11.9,64,9.82,216,4.0,301.3,330.5,303.0
895.7,1038,18.8,11.9,64,9.79,217,4.1,301.3,330.4,303.1
895.2,1042,18.8,11.7,64,9.72,217,4.2,301.3,330.3,303.1
894.8,1047,18.8,11.6,63,9.65,217,4.4,301.3,330.1,303.1
894.3,1051,18.7,11.6,63,9.62,217,4.5,301.3,330.0,303.1
893.9,1055,18.7,11.5,63,9.61,217,4.6,301.4,330.0,303.1
893.5,1059,18.7,11.5,63,9.61,217,4.8,301.4,330.0,303.1
893.1,1063,18.6,11.6,63,9.63,217,4.9,301.4,330.1,303.1
892.6,1067,18.6,11.6,64,9.65,217,5.0,301.4,330.1,303.1
892.2,1071,18.6,11.6,64,9.69,216,5.1,301.4,330.2,303.1
891.7,1076,18.5,11.7,64,9.71,216,5.2,301.4,330.3,303.1
891.3,1080,18.5,11.6,64,9.70,216,5.3,301.4,330.3,303.1
890.8,1085,18.4,11.6,64,9.69,215,5.5,301.4,330.2,303.1
890.3,1090,18.4,11.6,64,9.66,215,5.6,301.4,330.2,303.1
889.8,1094,18.4,11.5,64,9.64,214,5.7,301.4,330.1,303.1
889.3,1099,18.3,11.5,64,9.60,214,5.8,301.4,330.1,303.2
888.8,1104,18.4,11.4,64,9.55,213,5.9,301.5,330.0,303.2
888.2,1110,18.4,11.3,63,9.48,213,6.1,301.6,329.9,303.3
887.7,1115,18.4,11.1,63,9.42,212,6.2,301.7,329.8,303.4
887.1,1120,18.4,11.1,62,9.39,212,6.3,301.7,329.8,303.4
886.6,1125,18.4,11.1,62,9.39,211,6.4,301.7,329.8,303.4
886.0,1131,18.3,11.1,63,9.40,211,6.6,301.7,329.8,303.4
885.5,1136,18.3,11.1,63,9.42,210,6.7,301.8,329.9,303.5
884.9,1141,18.3,11.2,63,9.46,210,6.9,301.8,330.0,303.5
884.4,1147,18.3,11.2,63,9.49,209,7.0,301.8,330.2,303.5
883.8,1152,18.2,11.2,64,9.49,209,7.2,301.8,330.2,303.6
883.3,1158,18.2,11.2,64,9.48,209,7.3,301.8,330.2,303.6
882.8,1163,18.1,11.1,64,9.47,208,7.5,301.8,330.1,303.6
882.2,1168,18.1,11.1,64,9.47,208,7.6,301.9,330.2,303.6
881.7,1172,18.1,11.1,64,9.48,208,7.8,301.9,330.2,303.6
881.3,1177,18.0,11.2,64,9.49,208,7.9,301.9,330.3,303.6
880.8,1182,18.0,11.1,64,9.49,208,8.0,301.9,330.3,303.6
880.4,1186,18.0,11.1,64,9.45,208,8.1,302.0,330.2,303.7
879.9,1190,18.0,11.0,64,9.43,208,8.3,302.0,330.2,303.7
879.5,1194,18.1,11.0,64,9.44,208,8.4,302.1,330.3,303.8
879.0,1199,18.1,11.1,64,9.47,208,8.5,302.1,330.4,303.9
878.6,1203,18.0,11.1,64,9.51,208,8.6,302.1,330.6,303.9
878.1,1208,18.0,11.2,64,9.55,208,8.7,302.2,330.8,303.9
877.7,1212,18.0,11.2,64,9.56,208,8.8,302.2,330.8,304.0
877.2,1217,18.0,11.2,64,9.55,209,8.8,302.3,330.8,304.0
876.7,1222,18.0,11.2,64,9.57,209,8.9,302.3,330.9,304.0
876.2,1226,18.0,11.2,65,9.59,209,9.0,302.3,331.0,304.1
875.7,1231,18.0,11.2,64,9.58,209,9.0,302.4,331.1,304.1
875.2,1236,18.0,11.1,64,9.52,210,9.1,302.4,331.0,304.2
874.8,1241,18.0,10.9,63,9.42,210,9.1,302.5,330.7,304.2
874.3,1245,18.0,10.7,62,9.26,210,9.2,302.6,330.3,304.3
873.8,1250,18.1,10.4,61,9.08,211,9.2,302.7,329.9,304.3
873.3,1255,18.2,10.3,60,9.04,211,9.2,302.8,330.0,304.5
872.9,1259,18.2,10.5,60,9.14,212,9.3,302.9,330.4,304.6
872.4,1264,18.3,10.6,61,9.25,212,9.3,303.0,330.8,304.7
871.9,1269,18.3,10.7,61,9.33,213,9.4,303.1,331.1,304.8
871.4,1274,18.3,10.7,61,9.33,213,9.4,303.2,331.2,304.9
870.9,1279,18.4,10.6,60,9.23,214,9.4,303.3,331.0,304.9
870.4,1284,18.4,10.3,59,9.09,214,9.5,303.3,330.7,305.0
869.9,1289,18.4,10.0,58,8.92,215,9.5,303.4,330.3,305.0
869.4,1294,18.5,9.7,57,8.72,215,9.6,303.5,329.8,305.1
868.9,1298,18.5,9.4,55,8.55,216,9.6,303.6,329.4,305.1
868.4,1303,18.5,9.3,55,8.47,216,9.7,303.6,329.2,305.2
868.0,1307,18.5,9.1,55,8.41,217,9.7,303.7,329.1,305.2
867.6,1312,18.5,8.9,54,8.29,218,9.8,303.7,328.7,305.2
867.1,1316,18.5,8.7,53,8.17,218,9.9,303.7,328.5,305.2
866.6,1321,18.5,8.6,53,8.12,219,9.9,303.8,328.4,305.3
866.1,1326,18.4,8.6,53,8.14,220,10.0,303.8,328.4,305.3
865.6,1331,18.4,8.6,53,8.15,220,10.0,303.8,328.5,305.3
865.1,1336,18.3,8.6,53,8.12,221,10.1,303.8,328.4,305.3
864.5,1342,18.3,8.5,53,8.10,222,10.2,303.8,328.3,305.3
864.0,1347,18.2,8.5,53,8.08,223,10.2,303.8,328.3,305.3
863.4,1353,18.2,8.5,53,8.07,223,10.3,303.8,328.3,305.3
862.9,1358,18.1,8.4,53,8.04,224,10.4,303.8,328.2,305.3
862.3,1364,18.1,8.3,53,8.01,225,10.4,303.8,328.1,305.3
861.8,1369,18.1,8.2,52,7.93,226,10.5,303.9,327.9,305.3
861.3,1374,18.1,7.9,51,7.80,227,10.5,303.9,327.6,305.4
860.7,1379,18.1,7.7,50,7.66,228,10.5,304.0,327.3,305.4
860.2,1384,18.2,7.5,50,7.61,229,10.6,304.1,327.2,305.5
859.7,1389,18.2,7.5,50,7.60,230,10.6,304.2,327.3,305.6
859.2,1394,18.2,7.5,49,7.57,231,10.7,304.2,327.3,305.6
858.7,1399,18.2,7.3,49,7.51,232,10.7,304.4,327.2,305.7
858.2,1405,18.3,7.2,48,7.46,234,10.7,304.4,327.2,305.8
857.7,1410,18.3,7.2,48,7.45,235,10.7,304.5,327.2,305.9
857.2,1415,18.3,7.2,48,7.44,236,10.8,304.5,327.2,305.9
856.7,1420,18.2,7.2,49,7.45,237,10.8,304.5,327.2,305.9
856.2,1425,18.2,7.2,49,7.44,238,10.8,304.5,327.2,305.9
855.7,1430,18.1,7.0,48,7.38,239,10.8,304.5,327.0,305.9
855.2,1435,18.1,6.8,47,7.24,241,10.9,304.6,326.7,305.9
854.6,1440,18.2,6.4,46,7.08,242,10.9,304.7,326.3,306.0
854.1,1445,18.2,6.2,45,6.99,243,10.9,304.8,326.2,306.1
853.6,1450,18.2,6.2,45,6.99,244,11.0,304.8,326.2,306.1
853.1,1456,18.2,6.3,46,7.02,245,11.0,304.9,326.3,306.2
852.6,1460,18.1,6.3,46,7.05,246,11.0,304.9,326.4,306.2
852.1,1465,18.1,6.3,46,7.05,247,11.1,304.9,326.4,306.2
851.7,1470,18.0,6.3,46,7.02,247,11.1,304.8,326.3,306.1
851.2,1475,18.0,6.1,46,6.97,248,11.2,304.9,326.2,306.1
850.8,1479,18.0,6.0,45,6.92,249,11.2,304.9,326.0,306.1
850.3,1484,18.0,5.9,45,6.88,249,11.3,304.9,326.0,306.2
850.0,1487,17.9,5.9,45,6.87,249,11.3,304.9,325.9,306.2
849.9,1488,17.9,5.9,45,6.86,250,11.3,304.9,325.9,306.2
849.5,1492,17.9,5.9,45,6.85,250,11.4,304.9,325.9,306.2
849.0,1496,17.9,5.8,45,6.81,250,11.5,304.9,325.8,306.2
848.6,1501,17.8,5.7,45,6.77,250,11.5,305.0,325.7,306.2
848.2,1505,17.8,5.6,45,6.74,250,11.6,305.0,325.6,306.2
847.7,1510,17.8,5.6,45,6.73,251,11.7,305.0,325.6,306.2
847.3,1514,17.8,5.6,45,6.74,250,11.7,305.0,325.6,306.2
846.8,1519,17.7,5.6,45,6.73,250,11.8,305.0,325.6,306.3
846.3,1524,17.7,5.6,45,6.74,250,11.9,305.0,325.6,306.3
845.7,1530,17.6,5.5,45,6.70,250,12.0,305.0,325.6,306.3
845.2,1535,17.6,5.4,45,6.67,250,12.0,305.0,325.5,306.3
844.7,1540,17.5,5.4,45,6.68,250,12.1,305.0,325.5,306.3
844.2,1545,17.5,5.4,45,6.67,249,12.2,305.0,325.5,306.3
843.7,1550,17.4,5.3,45,6.64,249,12.3,305.0,325.4,306.3
843.2,1555,17.4,5.2,45,6.59,249,12.3,305.1,325.3,306.3
842.8,1560,17.4,5.2,44,6.57,248,12.4,305.1,325.2,306.3
842.3,1565,17.3,5.2,45,6.60,248,12.4,305.1,325.3,306.3
841.8,1569,17.3,5.2,45,6.61,248,12.5,305.1,325.3,306.3
841.4,1574,17.3,5.2,45,6.59,247,12.6,305.1,325.3,306.3
840.9,1578,17.3,5.1,45,6.57,247,12.6,305.2,325.3,306.4
840.5,1583,17.3,5.1,45,6.58,247,12.6,305.2,325.4,306.4
840.0,1588,17.3,5.1,45,6.59,246,12.7,305.2,325.4,306.4
839.6,1592,17.2,5.1,45,6.59,246,12.7,305.2,325.4,306.4
839.1,1597,17.2,5.2,45,6.60,246,12.7,305.2,325.5,306.4
838.6,1602,17.1,5.2,45,6.62,245,12.7,305.2,325.5,306.5
838.1,1607,17.1,5.2,45,6.62,245,12.7,305.2,325.5,306.5
837.6,1612,17.0,5.2,46,6.62,245,12.7,305.2,325.5,306.5
837.1,1617,17.0,5.2,46,6.62,245,12.7,305.2,325.5,306.5
836.6,1622,16.9,5.1,46,6.61,244,12.7,305.2,325.5,306.5
836.1,1627,16.9,5.1,46,6.62,244,12.6,305.2,325.5,306.5
835.6,1633,16.8,5.1,46,6.61,244,12.6,305.2,325.5,306.5
835.1,1638,16.8,5.1,46,6.60,244,12.6,305.2,325.5,306.4
834.5,1643,16.7,5.0,46,6.59,244,12.6,305.2,325.5,306.5
834.0,1649,16.7,5.0,46,6.57,244,12.6,305.2,325.4,306.5
833.5,1654,16.6,5.0,46,6.59,243,12.6,305.2,325.5,306.5
833.0,1659,16.6,5.1,47,6.61,243,12.6,305.2,325.5,306.5
832.5,1665,16.5,5.1,47,6.62,243,12.6,305.2,325.5,306.5
832.0,1670,16.5,5.1,47,6.62,243,12.6,305.2,325.6,306.5
831.5,1674,16.4,5.1,47,6.64,243,12.6,305.3,325.6,306.5
831.1,1679,16.4,5.2,47,6.67,243,12.6,305.2,325.7,306.5
830.6,1683,16.3,5.2,48,6.71,243,12.6,305.3,325.8,306.5
830.2,1688,16.3,5.3,48,6.75,243,12.7,305.3,326.0,306.5
829.8,1692,16.3,5.4,48,6.78,243,12.7,305.3,326.1,306.5
829.4,1696,16.3,5.4,49,6.79,243,12.7,305.3,326.1,306.6
829.0,1700,16.2,5.5,49,6.83,243,12.8,305.3,326.2,306.6
828.6,1704,16.2,5.5,49,6.84,243,12.9,305.3,326.2,306.5
828.2,1709,16.1,5.4,49,6.82,243,12.9,305.3,326.2,306.5
827.7,1713,16.1,5.4,49,6.81,243,13.0,305.3,326.1,306.5
827.2,1718,16.0,5.4,49,6.80,243,13.0,305.3,326.1,306.6
826.8,1723,16.0,5.4,49,6.80,243,13.1,305.3,326.1,306.5
826.3,1728,15.9,5.4,49,6.81,243,13.2,305.3,326.2,306.5
825.8,1733,15.9,5.4,50,6.82,243,13.2,305.3,326.2,306.5
825.3,1738,15.8,5.4,50,6.82,243,13.3,305.3,326.2,306.5
824.8,1743,15.8,5.3,50,6.79,243,13.3,305.3,326.1,306.5
824.3,1748,15.7,5.3,50,6.78,243,13.4,305.3,326.0,306.5
823.8,1753,15.7,5.3,50,6.78,243,13.4,305.3,326.1,306.5
823.3,1758,15.6,5.3,50,6.78,243,13.5,305.3,326.1,306.5
822.9,1763,15.6,5.3,50,6.82,243,13.5,305.3,326.2,306.5
822.4,1768,15.6,5.5,51,6.89,243,13.6,305.3,326.4,306.6
821.9,1773,15.5,5.6,52,6.95,243,13.6,305.3,326.6,306.6
821.5,1778,15.5,5.6,52,6.96,243,13.6,305.3,326.6,306.6
821.0,1783,15.5,5.6,52,6.95,243,13.6,305.3,326.6,306.6
820.5,1787,15.4,5.5,52,6.94,243,13.7,305.4,326.6,306.6
820.1,1792,15.4,5.5,52,6.94,243,13.7,305.4,326.6,306.6
819.6,1797,15.3,5.6,52,6.96,243,13.7,305.4,326.7,306.6
819.1,1802,15.3,5.5,52,6.95,243,13.7,305.4,326.7,306.6
818.7,1807,15.3,5.5,52,6.93,243,13.7,305.4,326.6,306.6
818.2,1811,15.2,5.5,52,6.92,243,13.7,305.4,326.6,306.6
817.8,1816,15.2,5.5,52,6.92,243,13.7,305.4,326.6,306.7
817.3,1821,15.1,5.5,53,6.94,243,13.7,305.4,326.7,306.7
816.8,1826,15.1,5.6,53,6.98,243,13.7,305.4,326.8,306.7
816.4,1830,15.0,5.6,53,6.99,243,13.7,305.4,326.8,306.7
815.9,1835,15.0,5.5,53,6.98,242,13.7,305.4,326.8,306.7
815.4,1840,15.0,5.5,53,6.96,242,13.7,305.4,326.7,306.7
815.0,1845,14.9,5.5,53,6.95,242,13.7,305.4,326.7,306.7
814.5,1850,14.9,5.5,53,6.95,242,13.7,305.4,326.7,306.7
814.0,1855,14.8,5.4,53,6.93,242,13.7,305.4,326.7,306.7
813.5,1860,14.8,5.4,53,6.92,242,13.7,305.4,326.6,306.7
813.0,1866,14.7,5.4,53,6.93,242,13.7,305.4,326.6,306.7
812.4,1871,14.7,5.4,54,6.92,242,13.7,305.4,326.6,306.7
811.9,1877,14.6,5.3,54,6.92,242,13.7,305.4,326.6,306.7
811.3,1883,14.6,5.3,54,6.90,241,13.7,305.4,326.6,306.7
