PRES,HGHT,TEMP,DWPT,RELH,MIXR,DRCT,SPED,THTA,THTE,THTV
1014.7,31,28.1,21.9,69,16.53,66,5.5,300.0,348.6,303.0
1014.2,35,28.0,22.2,71,16.84,56,3.6,299.9,349.4,302.9
1013.6,40,26.8,22.2,76,16.82,50,3.1,298.8,348.0,301.8
1012.9,46,26.3,22.1,78,16.79,47,3.1,298.4,347.4,301.3
1012.4,51,26.2,22.0,78,16.69,47,3.3,298.3,347.0,301.3
1011.8,56,26.2,21.9,77,16.55,48,3.6,298.3,346.6,301.3
1011.3,60,26.1,21.7,77,16.38,49,3.9,298.3,346.1,301.2
1010.6,67,25.8,21.5,77,16.16,49,4.1,298.0,345.1,300.9
1009.9,72,25.5,21.3,78,16.02,50,4.3,297.8,344.5,300.7
1009.3,78,25.4,21.3,78,16.00,50,4.4,297.8,344.4,300.6
1008.7,83,25.4,21.3,78,15.99,50,4.6,297.8,344.4,300.7
1008.1,88,25.4,21.2,78,15.94,50,4.8,297.9,344.3,300.7
1007.5,93,25.4,21.2,77,15.90,51,4.9,297.9,344.3,300.8
1007.0,98,25.5,21.2,77,15.91,51,5.1,298.0,344.4,300.9
1006.4,103,25.5,21.1,77,15.89,51,5.2,298.1,344.4,300.9
1005.9,108,25.4,21.1,77,15.86,52,5.3,298.0,344.2,300.8
1005.4,112,25.2,21.1,78,15.83,52,5.4,297.9,344.0,300.7
1004.8,117,25.1,21.0,78,15.82,52,5.5,297.8,343.9,300.7
1004.3,121,25.0,21.1,79,15.84,53,5.6,297.8,343.9,300.6
1003.8,126,24.9,21.1,79,15.86,53,5.7,297.8,343.9,300.6
1003.3,130,24.9,21.1,79,15.86,53,5.7,297.8,343.9,300.6
1002.8,134,24.9,21.1,79,15.86,53,5.8,297.8,344.0,300.6
1002.3,139,24.8,21.1,80,15.87,54,5.8,297.8,344.0,300.6
1001.8,144,24.7,21.0,80,15.86,54,5.9,297.7,343.9,300.6
1001.2,149,24.7,21.0,80,15.86,54,5.9,297.7,343.9,300.6
1000.7,154,24.6,21.1,81,15.92,54,5.9,297.7,344.1,300.6
1000.1,159,24.6,21.1,81,15.98,55,5.9,297.7,344.2,300.6
1000.0,159,24.6,21.1,81,15.98,55,5.9,297.7,344.3,300.6
999.5,164,24.5,21.1,81,15.98,55,5.9,297.7,344.2,300.6
998.9,169,24.5,21.1,82,16.01,55,5.9,297.7,344.3,300.6
998.3,175,24.4,21.2,82,16.03,55,5.9,297.7,344.4,300.6
997.7,180,24.4,21.1,82,15.99,55,5.9,297.7,344.3,300.6
997.1,185,24.3,21.1,82,15.96,55,5.9,297.7,344.2,300.6
996.5,190,24.3,21.1,82,15.99,55,5.9,297.7,344.3,300.6
995.9,195,24.2,21.1,82,15.98,55,5.9,297.7,344.3,300.6
995.4,200,24.2,21.0,82,15.93,55,5.9,297.7,344.1,300.6
994.8,205,24.1,21.0,82,15.89,55,5.9,297.7,344.0,300.6
994.2,210,24.1,21.0,83,15.91,55,5.9,297.7,344.0,300.6
993.7,215,24.1,21.0,83,15.94,55,5.9,297.7,344.1,300.6
993.1,220,24.0,21.0,83,15.98,55,5.9,297.7,344.2,300.6
992.6,225,23.9,21.0,84,16.02,55,5.9,297.7,344.3,300.6
992.0,230,23.9,21.1,84,16.04,55,5.8,297.7,344.4,300.6
991.4,235,23.8,21.0,84,16.02,55,5.8,297.7,344.3,300.6
990.9,240,23.8,20.9,84,15.94,55,5.8,297.7,344.1,300.6
990.3,245,23.8,20.9,84,15.91,55,5.8,297.7,344.0,300.6
989.8,250,23.7,20.9,84,15.95,56,5.8,297.7,344.2,300.6
989.2,255,23.7,20.9,85,15.97,56,5.7,297.7,344.2,300.6
988.6,260,23.6,21.0,85,15.99,56,5.7,297.7,344.3,300.6
988.1,265,23.6,21.0,86,16.04,56,5.7,297.7,344.4,300.6
987.5,270,23.5,21.0,86,16.06,57,5.7,297.7,344.5,300.6
986.9,275,23.4,20.9,86,16.01,57,5.7,297.7,344.3,300.6
986.3,280,23.4,20.9,86,15.99,58,5.6,297.7,344.2,300.5
985.7,286,23.3,20.9,86,16.02,58,5.6,297.7,344.3,300.6
985.2,291,23.3,21.0,87,16.05,59,5.6,297.7,344.4,300.6
984.6,296,23.3,21.0,87,16.06,59,5.6,297.7,344.5,300.6
984.0,301,23.2,21.0,87,16.07,60,5.5,297.7,344.5,300.6
983.4,306,23.1,20.9,87,16.06,61,5.5,297.7,344.4,300.6
982.9,311,23.1,20.9,88,16.07,61,5.5,297.7,344.5,300.6
982.3,316,23.0,20.9,88,16.07,62,5.5,297.7,344.5,300.6
981.7,321,23.0,20.9,88,16.07,62,5.5,297.7,344.5,300.6
981.1,326,22.9,20.9,88,16.03,63,5.5,297.7,344.3,300.6
980.6,331,22.9,20.8,88,15.97,64,5.5,297.7,344.2,300.5
980.1,336,22.9,20.8,88,15.94,64,5.5,297.7,344.1,300.5
979.5,341,22.8,20.8,88,15.95,65,5.5,297.7,344.1,300.5
979.0,345,22.8,20.8,89,16.00,65,5.5,297.7,344.3,300.6
978.6,349,22.7,20.8,89,16.04,65,5.5,297.7,344.4,300.6
978.1,354,22.7,20.8,89,16.06,66,5.5,297.7,344.4,300.6
977.6,358,22.7,20.8,89,16.05,66,5.5,297.7,344.4,300.6
977.2,362,22.6,20.8,90,16.05,66,5.5,297.7,344.4,300.6
976.7,366,22.6,20.8,90,16.03,66,5.5,297.7,344.4,300.6
976.3,370,22.5,20.8,90,16.00,66,5.6,297.7,344.3,300.6
975.8,374,22.5,20.7,90,15.97,66,5.6,297.7,344.2,300.6
975.3,378,22.5,20.7,90,15.98,66,5.6,297.7,344.3,300.6
974.9,383,22.4,20.7,90,15.99,66,5.6,297.7,344.3,300.6
974.4,387,22.4,20.7,90,16.02,66,5.7,297.7,344.4,300.6
973.8,392,22.3,20.8,91,16.05,66,5.7,297.7,344.4,300.6
973.3,396,22.3,20.8,91,16.06,66,5.7,297.7,344.5,300.6
972.8,401,22.2,20.7,91,16.02,65,5.7,297.7,344.4,300.6
972.2,406,22.2,20.7,91,16.01,65,5.8,297.7,344.3,300.6
971.7,411,22.1,20.7,91,16.01,65,5.8,297.7,344.3,300.6
971.1,416,22.1,20.7,92,16.01,64,5.8,297.7,344.3,300.6
970.6,421,22.1,20.7,92,16.02,64,5.9,297.7,344.3,300.6
970.0,426,22.0,20.7,92,16.01,64,5.9,297.7,344.3,300.6
969.4,431,22.0,20.7,92,16.01,63,5.9,297.8,344.3,300.6
968.8,437,21.9,20.7,93,16.03,63,5.9,297.8,344.4,300.6
968.2,442,21.9,20.7,93,16.03,63,6.0,297.7,344.4,300.6
967.6,448,21.8,20.6,93,16.01,63,6.0,297.7,344.3,300.6
966.9,454,21.8,20.6,93,16.01,62,6.0,297.7,344.3,300.6
966.3,460,21.7,20.6,94,16.05,62,6.1,297.7,344.5,300.6
965.6,466,21.6,20.7,94,16.07,62,6.1,297.7,344.5,300.6
964.9,472,21.6,20.6,95,16.08,62,6.1,297.7,344.5,300.6
964.3,477,21.5,20.6,95,16.03,61,6.2,297.7,344.4,300.6
963.7,483,21.5,20.5,94,15.94,61,6.2,297.7,344.1,300.6
963.2,488,21.4,20.4,94,15.90,61,6.2,297.7,344.0,300.6
962.6,493,21.4,20.5,95,15.93,61,6.3,297.7,344.1,300.6
962.1,497,21.3,20.5,95,16.00,61,6.3,297.7,344.3,300.6
961.6,502,21.3,20.6,96,16.05,60,6.3,297.7,344.5,300.6
961.2,506,21.2,20.6,96,16.06,60,6.4,297.7,344.5,300.6
960.7,510,21.2,20.6,96,16.06,60,6.4,297.7,344.5,300.6
960.2,515,21.2,20.6,96,16.07,60,6.5,297.7,344.5,300.6
959.7,519,21.1,20.5,97,16.06,60,6.5,297.7,344.5,300.6
959.2,523,21.1,20.5,97,16.05,60,6.5,297.7,344.4,300.6
958.7,528,21.0,20.5,97,16.01,60,6.6,297.7,344.3,300.6
958.2,532,21.0,20.4,96,15.96,60,6.6,297.8,344.2,300.6
957.8,537,21.0,20.3,96,15.89,60,6.7,297.8,344.0,300.6
957.2,541,20.9,20.3,96,15.85,60,6.7,297.8,343.9,300.6
956.7,546,20.9,20.3,96,15.86,60,6.7,297.8,344.0,300.6
956.2,551,20.8,20.3,97,15.86,60,6.8,297.8,343.9,300.6
955.7,556,20.8,20.2,96,15.81,60,6.8,297.8,343.8,300.6
955.2,560,20.8,20.2,97,15.81,60,6.8,297.8,343.8,300.6
954.6,565,20.7,20.3,98,15.91,61,6.9,297.8,344.1,300.6
954.1,570,20.7,20.4,98,16.01,61,6.9,297.8,344.4,300.6
953.6,575,20.6,20.5,99,16.08,61,6.9,297.8,344.5,300.6
953.0,580,20.5,20.5,100,16.11,61,6.9,297.8,344.6,300.6
952.5,584,20.5,20.4,100,16.09,61,7.0,297.8,344.6,300.6
952.0,589,20.5,20.4,100,16.04,62,7.0,297.8,344.4,300.6
951.5,594,20.4,20.4,100,16.01,62,7.0,297.8,344.4,300.6
951.0,598,20.4,20.3,100,15.98,62,7.0,297.8,344.3,300.6
950.6,602,20.4,20.3,99,15.95,62,7.0,297.8,344.2,300.7
950.1,607,20.4,20.3,99,15.94,63,7.0,297.8,344.2,300.7
949.6,611,20.3,20.2,99,15.92,63,7.0,297.8,344.2,300.7
949.2,615,20.3,20.1,99,15.84,63,7.0,297.8,343.9,300.7
948.7,619,20.2,20.0,99,15.71,64,7.0,297.8,343.5,300.6
948.3,623,20.2,19.9,98,15.60,64,7.0,297.8,343.2,300.6
947.8,627,20.1,19.8,98,15.48,64,7.0,297.8,342.9,300.6
947.4,631,20.1,19.6,97,15.35,64,7.0,297.9,342.6,300.6
947.0,635,20.2,19.5,96,15.20,65,7.0,297.9,342.2,300.6
946.6,638,20.2,19.2,94,14.91,65,7.0,298.0,341.4,300.6
946.3,641,20.2,19.0,93,14.76,65,7.0,298.0,341.0,300.6
945.9,645,20.2,19.0,93,14.74,65,7.0,298.0,341.0,300.7
945.5,648,20.2,18.8,92,14.62,65,7.0,298.1,340.7,300.7
945.2,652,20.2,18.5,90,14.34,66,7.0,298.1,339.9,300.7
944.8,655,20.2,18.2,88,14.06,66,7.0,298.2,339.2,300.7
944.4,659,20.3,18.0,87,13.91,66,7.0,298.3,338.9,300.7
943.9,663,20.3,18.1,87,13.98,66,7.0,298.3,339.1,300.8
943.5,667,20.2,18.4,89,14.24,66,7.0,298.3,339.9,300.8
943.1,671,20.1,18.8,93,14.67,66,7.0,298.2,341.0,300.8
942.6,675,20.0,19.1,95,14.96,66,7.0,298.1,341.7,300.8
942.2,679,19.9,19.1,95,14.94,66,7.0,298.1,341.6,300.7
941.8,683,19.9,18.9,94,14.71,66,7.0,298.1,341.0,300.7
941.3,687,19.9,18.6,92,14.49,66,7.1,298.1,340.4,300.7
940.9,691,19.9,18.8,93,14.63,67,7.1,298.2,340.8,300.8
940.5,695,19.8,19.0,95,14.84,67,7.1,298.2,341.4,300.8
940.0,699,19.8,19.1,96,14.99,67,7.1,298.1,341.8,300.8
939.6,703,19.7,18.9,95,14.82,67,7.1,298.2,341.4,300.8
939.1,707,19.8,18.4,92,14.28,67,7.1,298.2,339.9,300.8
938.6,712,19.8,17.9,89,13.87,67,7.1,298.3,338.8,300.8
938.2,716,19.8,17.8,88,13.80,67,7.1,298.3,338.7,300.8
937.7,720,19.8,17.9,89,13.93,66,7.1,298.4,339.1,300.9
937.2,725,19.8,18.2,90,14.14,66,7.1,298.4,339.7,300.9
936.7,729,19.7,18.5,92,14.41,66,7.1,298.4,340.5,301.0
936.2,734,19.6,18.8,95,14.73,66,7.1,298.3,341.3,301.0
935.7,738,19.6,18.7,95,14.62,66,7.1,298.3,341.0,300.9
935.3,743,19.6,18.2,92,14.24,66,7.1,298.4,340.0,300.9
934.8,747,19.6,18.1,91,14.08,66,7.1,298.5,339.6,301.0
934.3,751,19.6,18.3,92,14.31,66,7.1,298.5,340.3,301.1
933.9,756,19.5,18.8,96,14.74,65,7.1,298.4,341.4,301.0
933.4,760,19.3,18.8,97,14.77,65,7.1,298.3,341.4,300.9
932.9,764,19.2,18.7,97,14.66,65,7.1,298.2,341.0,300.8
932.5,769,19.2,18.5,96,14.53,65,7.1,298.2,340.6,300.8
932.0,773,19.2,18.2,94,14.29,65,7.1,298.3,340.0,300.8
931.5,777,19.2,18.1,93,14.13,64,7.1,298.3,339.6,300.9
931.0,782,19.3,17.9,92,13.98,64,7.0,298.4,339.3,300.9
930.5,786,19.3,17.6,90,13.77,64,7.0,298.5,338.8,301.0
930.0,791,19.4,17.5,89,13.66,63,7.0,298.6,338.6,301.1
929.5,796,19.3,17.6,90,13.79,63,7.0,298.6,339.0,301.1
929.0,801,19.2,17.9,92,14.07,63,7.0,298.6,339.7,301.1
928.5,806,19.1,18.1,94,14.18,62,7.0,298.5,339.9,301.0
927.9,811,19.0,17.7,92,13.89,62,7.0,298.5,339.1,301.0
927.4,816,19.1,17.1,88,13.36,62,6.9,298.6,337.7,301.0
926.8,821,19.2,16.8,86,13.08,61,6.9,298.8,337.1,301.1
926.3,826,19.2,16.8,86,13.09,61,6.9,298.8,337.2,301.2
925.7,831,19.2,16.9,87,13.20,60,6.9,298.9,337.5,301.2
925.2,837,19.1,17.0,87,13.28,60,6.9,298.8,337.7,301.2
925.0,838,19.1,17.0,87,13.26,60,6.9,298.9,337.7,301.2
924.6,842,19.1,16.9,87,13.20,60,6.9,298.9,337.5,301.2
924.0,847,19.1,16.5,85,12.92,59,6.9,298.9,336.8,301.3
923.4,852,19.2,16.1,82,12.56,59,6.9,299.1,335.9,301.3
922.9,858,19.3,15.7,80,12.26,59,6.9,299.2,335.2,301.4
922.3,863,19.3,15.6,79,12.14,58,6.9,299.3,334.9,301.4
921.7,869,19.3,15.5,79,12.10,58,6.9,299.3,334.9,301.5
921.1,874,19.3,15.4,78,12.05,58,6.9,299.3,334.8,301.5
920.5,880,19.2,15.3,78,11.99,57,6.9,299.4,334.6,301.5
920.0,885,19.2,15.2,78,11.87,57,6.9,299.4,334.3,301.5
919.4,891,19.2,15.0,77,11.73,57,6.9,299.4,333.9,301.5
918.8,896,19.2,14.8,75,11.56,57,7.0,299.5,333.5,301.6
918.3,901,19.2,14.6,75,11.47,57,7.0,299.5,333.3,301.6
917.7,906,19.2,14.6,75,11.47,57,7.0,299.6,333.4,301.6
917.2,911,19.1,14.7,75,11.51,56,7.0,299.6,333.5,301.6
916.7,916,19.1,14.8,76,11.60,56,7.0,299.6,333.7,301.7
916.2,920,19.0,14.9,77,11.72,56,7.0,299.6,334.1,301.7
915.7,925,19.0,15.0,78,11.80,56,7.0,299.6,334.3,301.7
915.3,929,19.0,15.0,78,11.81,56,7.0,299.6,334.4,301.8
914.8,933,19.0,15.0,77,11.80,56,7.0,299.7,334.4,301.8
914.4,938,19.0,15.0,77,11.80,56,7.0,299.7,334.5,301.9
913.9,942,19.0,15.0,77,11.80,55,7.0,299.8,334.5,301.9
913.4,946,19.0,15.0,78,11.82,55,7.0,299.8,334.6,301.9
913.0,951,19.0,15.0,78,11.83,55,6.9,299.8,334.7,302.0
912.5,955,19.0,15.0,77,11.80,55,6.9,299.9,334.7,302.0
912.0,960,19.0,14.9,77,11.73,54,6.8,299.9,334.5,302.1
911.5,965,19.0,14.8,76,11.66,54,6.8,300.0,334.4,302.1
911.0,969,19.0,14.7,76,11.64,54,6.7,300.0,334.3,302.1
910.5,975,19.0,14.7,76,11.62,53,6.6,300.0,334.3,302.1
909.9,980,18.9,14.6,76,11.59,53,6.5,300.0,334.2,302.1
909.3,985,18.9,14.5,76,11.50,52,6.4,300.1,334.0,302.2
908.8,991,18.9,14.3,75,11.37,52,6.3,300.1,333.7,302.2
908.2,996,18.9,14.1,74,11.23,51,6.2,300.2,333.4,302.2
907.6,1001,18.9,14.0,73,11.11,51,6.1,300.2,333.1,302.2
907.1,1006,18.9,13.8,72,10.99,50,6.0,300.3,332.8,302.3
906.6,1011,18.9,13.6,71,10.86,50,5.9,300.4,332.5,302.3
906.1,1016,19.0,13.6,71,10.83,49,5.8,300.4,332.5,302.4
905.6,1021,19.0,13.6,71,10.88,49,5.7,300.5,332.7,302.5
905.0,1026,19.0,13.7,71,10.92,48,5.6,300.6,332.9,302.5
904.5,1031,19.0,13.6,71,10.90,48,5.4,300.6,332.9,302.6
904.0,1036,19.0,13.4,70,10.75,48,5.3,300.7,332.5,302.6
903.4,1041,19.1,13.0,68,10.48,47,5.2,300.8,331.9,302.7
902.9,1047,19.1,12.6,66,10.19,47,5.1,300.9,331.2,302.8
902.3,1052,19.1,12.2,64,9.91,47,5.0,301.0,330.5,302.8
901.8,1057,19.2,11.5,61,9.50,47,4.9,301.1,329.4,302.8
901.3,1062,19.2,10.6,57,8.93,47,4.8,301.2,327.8,302.8
900.7,1067,19.3,10.0,55,8.59,47,4.7,301.3,327.0,302.9
900.2,1072,19.3,9.9,54,8.53,47,4.7,301.4,326.9,302.9
899.7,1077,19.3,9.9,55,8.54,47,4.6,301.4,327.0,302.9
899.2,1082,19.3,9.9,55,8.53,47,4.5,301.4,326.9,303.0
898.7,1087,19.2,9.8,54,8.52,47,4.5,301.5,326.9,303.0
898.2,1091,19.2,9.9,55,8.57,48,4.4,301.5,327.1,303.0
897.7,1096,19.2,10.1,55,8.67,48,4.3,301.5,327.5,303.1
897.3,1100,19.2,10.1,56,8.68,48,4.3,301.5,327.5,303.1
896.8,1105,19.2,9.8,55,8.54,49,4.3,301.6,327.1,303.1
896.3,1109,19.2,9.5,53,8.33,49,4.2,301.7,326.7,303.2
895.9,1113,19.3,9.4,53,8.30,49,4.2,301.8,326.7,303.3
895.4,1118,19.3,9.6,53,8.40,50,4.2,301.9,327.1,303.4
894.9,1123,19.3,9.7,54,8.47,50,4.1,301.9,327.3,303.5
894.4,1127,19.3,9.8,54,8.55,50,4.1,301.9,327.6,303.5
894.0,1132,19.3,10.0,55,8.64,50,4.1,301.9,327.8,303.5
893.5,1137,19.3,10.1,55,8.71,50,4.1,302.0,328.1,303.5
892.9,1142,19.2,10.1,55,8.73,50,4.0,302.0,328.2,303.6
892.4,1147,19.2,10.0,55,8.67,50,4.0,302.0,328.0,303.6
891.9,1152,19.2,9.8,54,8.54,50,4.0,302.1,327.7,303.6
891.3,1158,19.2,9.6,53,8.42,49,4.0,302.2,327.4,303.7
890.7,1163,19.2,9.4,53,8.36,49,4.0,302.2,327.3,303.7
890.1,1169,19.2,9.4,53,8.33,48,4.0,302.2,327.3,303.7
889.5,1175,19.2,9.4,53,8.35,47,3.9,302.2,327.3,303.8
888.8,1181,19.1,9.5,54,8.41,46,3.9,302.3,327.5,303.8
888.2,1188,19.1,9.7,54,8.51,45,3.9,302.3,327.8,303.8
887.6,1194,19.0,9.8,55,8.63,44,3.9,302.3,328.2,303.9
887.0,1199,19.0,10.1,56,8.76,42,3.9,302.3,328.5,303.9
886.4,1205,18.9,10.2,57,8.83,41,3.9,302.3,328.8,303.9
885.8,1211,18.9,10.2,57,8.86,39,3.9,302.3,328.9,303.9
885.3,1216,18.8,10.2,57,8.85,37,3.8,302.3,328.8,303.9
884.7,1221,18.7,10.2,58,8.89,35,3.8,302.3,328.9,303.9
884.2,1226,18.7,10.4,59,9.01,33,3.8,302.3,329.3,303.9
883.6,1232,18.6,10.6,59,9.11,31,3.9,302.3,329.6,303.9
883.1,1237,18.6,10.6,60,9.15,28,3.9,302.3,329.7,303.9
882.6,1242,18.5,10.6,60,9.16,26,3.9,302.3,329.7,303.9
882.1,1247,18.5,10.6,60,9.16,24,3.9,302.3,329.7,303.9
881.5,1252,18.4,10.6,60,9.16,21,4.0,302.3,329.7,303.9
881.0,1257,18.4,10.7,61,9.18,19,4.0,302.2,329.7,303.9
880.5,1262,18.3,10.7,61,9.19,17,4.1,302.2,329.7,303.9
880.0,1267,18.2,10.7,61,9.20,15,4.1,302.2,329.8,303.9
879.5,1272,18.2,10.6,61,9.15,13,4.2,302.2,329.6,303.9
879.0,1276,18.2,10.5,61,9.11,12,4.3,302.2,329.5,303.9
878.6,1281,18.1,10.5,61,9.11,11,4.3,302.2,329.5,303.9
878.1,1285,18.1,10.5,61,9.14,9,4.4,302.3,329.6,303.9
877.7,1289,18.0,10.6,62,9.20,9,4.4,302.2,329.8,303.9
877.3,1294,18.0,10.8,63,9.33,8,4.5,302.2,330.2,303.9
876.9,1298,17.9,11.0,64,9.45,8,4.5,302.2,330.5,303.9
876.5,1302,17.9,11.0,64,9.46,7,4.5,302.2,330.5,303.9
876.1,1305,17.9,10.9,64,9.38,8,4.6,302.2,330.3,303.9
875.7,1309,17.8,10.8,63,9.33,8,4.6,302.2,330.1,303.9
875.3,1313,17.8,10.8,64,9.36,9,4.6,302.2,330.2,303.9
874.9,1317,17.8,10.9,64,9.42,9,4.5,302.2,330.4,303.9
874.5,1321,17.7,11.1,65,9.51,11,4.5,302.2,330.7,304.0
874.1,1324,17.7,11.3,66,9.67,12,4.5,302.2,331.1,304.0
873.7,1328,17.7,11.4,67,9.76,14,4.4,302.2,331.4,304.0
873.3,1332,17.7,11.4,67,9.72,15,4.4,302.3,331.4,304.1
872.9,1336,17.7,11.3,66,9.68,17,4.3,302.3,331.3,304.1
872.5,1340,17.6,11.3,66,9.66,19,4.3,302.3,331.2,304.1
872.1,1345,17.6,11.3,66,9.66,22,4.2,302.3,331.2,304.1
871.6,1349,17.6,11.3,66,9.67,24,4.2,302.4,331.3,304.2
871.2,1353,17.6,11.3,66,9.69,26,4.1,302.4,331.4,304.2
870.8,1357,17.6,11.2,66,9.64,29,4.1,302.5,331.3,304.2
870.3,1362,17.6,11.1,66,9.56,31,4.0,302.5,331.1,304.2
869.9,1366,17.6,11.0,65,9.50,33,4.0,302.5,331.0,304.2
869.4,1371,17.5,10.8,65,9.42,35,3.9,302.5,330.8,304.2
869.0,1375,17.5,10.6,64,9.28,37,3.9,302.6,330.4,304.2
868.6,1379,17.5,10.4,63,9.14,39,3.9,302.6,330.0,304.3
868.1,1383,17.5,10.2,62,9.06,41,3.8,302.6,329.9,304.3
867.7,1388,17.5,10.2,62,9.01,42,3.8,302.7,329.7,304.3
867.3,1392,17.5,10.0,62,8.94,43,3.8,302.7,329.6,304.3
866.8,1396,17.5,9.9,61,8.85,44,3.7,302.7,329.3,304.4
866.4,1401,17.5,9.7,60,8.77,44,3.7,302.8,329.1,304.4
865.9,1405,17.5,9.5,60,8.65,44,3.6,302.8,328.8,304.4
865.5,1409,17.4,9.2,58,8.48,44,3.6,302.8,328.4,304.4
865.0,1414,17.4,8.9,57,8.29,43,3.6,302.9,327.9,304.4
864.6,1418,17.4,8.6,56,8.16,42,3.5,302.9,327.5,304.4
864.2,1423,17.4,8.7,56,8.19,41,3.5,302.9,327.6,304.4
863.7,1427,17.4,8.9,58,8.33,40,3.5,303.0,328.0,304.5
863.3,1431,17.3,9.2,59,8.51,38,3.4,302.9,328.6,304.5
862.9,1435,17.3,9.4,60,8.60,36,3.4,302.9,328.8,304.5
862.5,1439,17.2,9.4,60,8.62,34,3.4,302.9,328.9,304.5
862.0,1444,17.2,9.5,60,8.65,31,3.4,302.9,329.0,304.5
861.6,1448,17.2,9.5,61,8.69,29,3.4,302.9,329.1,304.5
861.1,1453,17.1,9.6,61,8.73,27,3.4,302.9,329.2,304.5
860.7,1457,17.1,9.6,62,8.77,24,3.4,302.9,329.3,304.5
860.2,1462,17.0,9.6,62,8.77,22,3.4,302.9,329.3,304.5
859.8,1466,17.0,9.6,62,8.77,19,3.5,302.9,329.3,304.5
859.3,1471,16.9,9.6,62,8.79,17,3.5,302.9,329.4,304.5
858.8,1475,16.9,9.7,62,8.82,14,3.5,302.9,329.5,304.5
858.4,1480,16.9,9.7,63,8.86,12,3.6,302.9,329.6,304.6
857.9,1484,16.8,9.8,63,8.89,10,3.6,303.0,329.7,304.6
857.5,1489,16.8,9.8,63,8.88,8,3.6,302.9,329.7,304.6
857.0,1493,16.8,9.6,63,8.80,5,3.7,303.0,329.5,304.6
856.6,1498,16.8,9.4,62,8.65,3,3.7,303.0,329.1,304.6
856.1,1503,16.8,9.0,60,8.47,1,3.7,303.1,328.6,304.6
855.6,1507,16.8,8.8,59,8.31,359,3.7,303.2,328.3,304.7
855.1,1512,16.8,8.7,59,8.29,357,3.8,303.3,328.3,304.8
854.6,1517,16.8,8.8,59,8.33,355,3.8,303.3,328.4,304.8
854.1,1523,16.8,8.8,59,8.33,353,3.8,303.3,328.4,304.8
853.6,1528,16.7,8.7,59,8.30,351,3.8,303.3,328.3,304.8
853.1,1533,16.7,8.7,59,8.28,349,3.8,303.3,328.3,304.8
852.5,1538,16.7,8.6,59,8.26,347,3.8,303.3,328.3,304.8
852.0,1544,16.6,8.6,59,8.25,346,3.8,303.3,328.2,304.8
851.5,1549,16.6,8.5,59,8.22,344,3.9,303.3,328.2,304.9
850.9,1554,16.5,8.5,59,8.19,342,3.9,303.4,328.1,304.9
850.4,1560,16.5,8.5,59,8.20,340,3.9,303.4,328.1,304.9
850.0,1564,16.5,8.5,59,8.23,340,3.9,303.4,328.2,304.9
849.8,1565,16.4,8.5,60,8.24,339,3.9,303.4,328.2,304.9
849.3,1571,16.4,8.6,60,8.26,338,3.9,303.4,328.3,304.9
848.7,1576,16.3,8.5,60,8.24,336,3.9,303.4,328.2,304.9
848.2,1581,16.3,8.4,60,8.21,335,3.9,303.4,328.1,304.9
847.7,1586,16.2,8.4,60,8.16,334,3.9,303.4,328.0,304.9
847.3,1591,16.2,8.3,60,8.14,333,3.9,303.4,328.0,304.9
846.8,1595,16.2,8.3,60,8.15,333,3.9,303.4,328.0,304.9
846.4,1599,16.1,8.3,60,8.16,332,3.9,303.4,328.1,304.9
846.0,1604,16.1,8.3,60,8.17,332,3.9,303.4,328.1,304.9
845.6,1608,16.1,8.3,60,8.15,332,3.8,303.4,328.0,304.9
845.2,1612,16.0,8.2,60,8.11,332,3.8,303.4,327.9,304.9
844.8,1616,16.0,8.2,60,8.08,333,3.8,303.4,327.8,304.9
844.4,1620,16.0,8.2,60,8.09,333,3.8,303.4,327.8,304.9
844.0,1624,15.9,8.2,60,8.11,334,3.8,303.4,327.9,304.9
843.6,1628,15.9,8.3,61,8.15,335,3.8,303.4,328.0,304.9
843.1,1632,15.8,8.3,61,8.17,337,3.7,303.4,328.1,304.9
842.7,1637,15.8,8.2,61,8.14,338,3.7,303.4,328.0,304.9
842.3,1641,15.8,8.2,61,8.10,340,3.7,303.4,327.9,304.9
841.9,1645,15.7,8.0,60,8.05,342,3.7,303.4,327.7,304.9
841.5,1649,15.7,7.9,60,7.98,344,3.7,303.4,327.6,304.9
841.1,1654,15.7,7.8,60,7.94,346,3.8,303.5,327.5,304.9
840.6,1658,15.7,7.7,59,7.89,348,3.8,303.5,327.3,304.9
840.2,1662,15.6,7.6,59,7.79,350,3.8,303.5,327.1,304.9
839.8,1666,15.6,7.4,58,7.70,352,3.9,303.6,326.9,305.0
839.4,1670,15.6,7.2,57,7.64,354,3.9,303.6,326.7,305.0
839.0,1674,15.6,7.1,57,7.57,356,4.0,303.6,326.6,305.0
838.6,1678,15.6,7.0,56,7.51,358,4.1,303.7,326.4,305.0
838.2,1682,15.6,6.9,56,7.49,360,4.2,303.7,326.4,305.0
837.8,1686,15.6,6.9,56,7.49,2,4.3,303.7,326.4,305.1
837.4,1691,15.6,7.0,57,7.51,3,4.4,303.7,326.5,305.1
837.0,1695,15.5,7.0,57,7.52,4,4.5,303.7,326.6,305.1
836.6,1699,15.5,7.0,57,7.51,5,4.6,303.8,326.5,305.1
836.2,1703,15.5,6.9,57,7.50,6,4.7,303.8,326.5,305.1
835.8,1707,15.4,6.9,57,7.51,6,4.8,303.8,326.6,305.1
835.4,1711,15.4,6.9,57,7.48,7,4.9,303.8,326.5,305.1
835.0,1715,15.4,6.7,56,7.38,7,5.0,303.8,326.2,305.2
834.6,1719,15.4,6.4,55,7.25,7,5.1,303.8,325.9,305.2
834.1,1724,15.4,6.2,54,7.15,7,5.2,303.9,325.7,305.2
833.7,1728,15.4,6.1,54,7.11,6,5.3,303.9,325.6,305.2
833.3,1732,15.4,6.0,54,7.07,6,5.3,304.0,325.5,305.2
832.9,1737,15.4,5.9,53,7.01,5,5.4,304.0,325.3,305.3
832.4,1741,15.3,5.7,53,6.92,5,5.4,304.0,325.1,305.3
832.0,1745,15.3,5.5,52,6.81,4,5.5,304.0,324.8,305.3
