PRES,HGHT,TEMP,DWPT,RELH,MIXR,DRCT,SPED,THTA,THTE,THTV
1014.6,31,23.1,19.7,81,14.36,8,1.9,295.0,336.4,297.6
1013.6,39,23.3,19.6,80,14.35,20,1.9,295.3,336.7,297.9
1013.1,44,23.0,19.6,81,14.34,23,2.0,295.0,336.3,297.6
1012.6,48,22.8,19.6,82,14.32,24,2.1,294.9,336.1,297.4
1011.9,53,22.7,19.5,82,14.25,23,2.3,294.9,335.9,297.4
1011.1,61,22.7,19.4,81,14.13,22,2.4,294.9,335.6,297.4
1010.4,66,22.7,19.2,81,13.97,21,2.5,295.0,335.2,297.4
1010.0,71,22.7,19.0,79,13.81,20,2.5,295.0,334.8,297.5
1009.3,76,22.8,18.9,79,13.71,20,2.6,295.1,334.6,297.5
1008.7,82,22.8,18.8,78,13.67,19,2.7,295.2,334.6,297.6
1008.0,87,22.7,18.8,78,13.63,19,2.8,295.2,334.5,297.6
1007.4,93,22.7,18.7,78,13.62,18,2.8,295.2,334.4,297.6
1006.7,99,22.6,18.7,79,13.61,18,2.9,295.2,334.4,297.6
1006.0,105,22.6,18.7,79,13.61,18,2.9,295.2,334.4,297.6
1005.4,110,22.6,18.6,78,13.56,18,2.9,295.3,334.4,297.7
1004.7,116,22.6,18.6,78,13.53,18,3.0,295.3,334.3,297.7
1004.0,122,22.5,18.5,78,13.49,18,3.0,295.3,334.2,297.7
1003.4,128,22.5,18.5,78,13.44,19,3.0,295.4,334.1,297.8
1002.7,133,22.5,18.4,78,13.42,19,3.0,295.4,334.2,297.8
1002.1,139,22.4,18.4,78,13.40,20,3.0,295.4,334.1,297.8
1001.5,144,22.4,18.4,78,13.43,21,3.0,295.4,334.1,297.8
1000.9,150,22.3,18.5,79,13.49,22,3.0,295.4,334.3,297.8
1000.2,155,22.3,18.5,79,13.54,23,3.0,295.4,334.4,297.8
1000.0,157,22.2,18.5,80,13.54,24,3.1,295.4,334.4,297.8
999.6,161,22.2,18.5,80,13.56,24,3.1,295.4,334.5,297.8
998.9,166,22.2,18.6,80,13.58,26,3.1,295.4,334.6,297.8
998.3,172,22.1,18.5,80,13.57,27,3.1,295.4,334.5,297.8
997.6,178,22.0,18.5,80,13.52,29,3.2,295.4,334.4,297.8
996.9,184,22.0,18.5,80,13.53,30,3.2,295.4,334.5,297.8
996.2,190,22.0,18.5,80,13.53,32,3.3,295.5,334.5,297.9
995.5,197,22.0,18.5,81,13.54,33,3.3,295.5,334.6,297.9
994.7,203,21.9,18.5,81,13.56,35,3.4,295.5,334.6,297.9
994.0,210,21.8,18.5,82,13.59,36,3.5,295.4,334.6,297.8
993.2,216,21.7,18.5,82,13.62,38,3.6,295.4,334.7,297.8
992.4,223,21.6,18.5,82,13.61,39,3.7,295.4,334.7,297.8
991.7,230,21.6,18.5,83,13.60,40,3.8,295.4,334.6,297.8
990.9,237,21.5,18.4,83,13.58,42,3.9,295.4,334.6,297.8
990.1,244,21.4,18.4,83,13.59,43,4.1,295.4,334.6,297.8
989.3,251,21.4,18.4,83,13.58,44,4.2,295.4,334.6,297.8
988.6,257,21.3,18.4,83,13.56,45,4.3,295.4,334.5,297.8
987.8,264,21.2,18.3,84,13.56,45,4.4,295.4,334.5,297.8
987.0,271,21.2,18.3,84,13.56,46,4.5,295.4,334.5,297.8
986.3,277,21.1,18.3,84,13.57,47,4.6,295.4,334.5,297.8
985.6,284,21.0,18.3,84,13.54,48,4.8,295.4,334.5,297.8
984.8,290,21.0,18.2,84,13.50,49,4.9,295.4,334.4,297.8
984.1,297,20.9,18.2,85,13.52,49,5.0,295.4,334.4,297.8
983.3,303,20.9,18.3,85,13.58,50,5.1,295.4,334.6,297.8
982.6,310,20.8,18.3,86,13.60,50,5.2,295.4,334.6,297.8
981.8,317,20.7,18.3,86,13.63,51,5.2,295.4,334.7,297.8
981.1,323,20.7,18.3,87,13.64,52,5.3,295.4,334.8,297.8
980.3,330,20.6,18.3,87,13.63,52,5.4,295.4,334.7,297.8
979.5,337,20.5,18.2,87,13.57,53,5.5,295.4,334.6,297.8
978.8,344,20.5,18.2,87,13.54,53,5.5,295.4,334.5,297.8
978.0,350,20.4,18.2,87,13.56,54,5.6,295.4,334.5,297.8
977.3,357,20.3,18.2,88,13.60,54,5.6,295.4,334.6,297.8
976.6,363,20.1,18.2,89,13.62,55,5.7,295.3,334.5,297.7
975.9,369,20.0,18.3,90,13.67,55,5.7,295.2,334.6,297.7
975.2,375,20.0,18.3,90,13.72,55,5.7,295.2,334.8,297.7
974.5,381,19.9,18.3,90,13.69,56,5.7,295.2,334.7,297.7
973.9,387,19.9,18.2,90,13.64,56,5.8,295.2,334.5,297.6
973.2,393,19.8,18.2,90,13.63,56,5.8,295.2,334.5,297.6
972.5,399,19.7,18.2,91,13.67,56,5.8,295.2,334.6,297.6
971.9,404,19.7,18.3,92,13.70,56,5.8,295.2,334.7,297.6
971.3,410,19.6,18.3,92,13.71,56,5.8,295.2,334.7,297.6
970.6,416,19.6,18.2,92,13.70,56,5.8,295.2,334.7,297.6
970.0,422,19.6,18.2,92,13.68,56,5.8,295.3,334.7,297.7
969.3,428,19.6,18.1,91,13.64,56,5.9,295.3,334.7,297.8
968.6,434,19.6,18.1,91,13.58,55,5.9,295.4,334.6,297.8
968.0,439,19.6,17.9,90,13.49,55,5.9,295.5,334.4,297.9
967.4,445,19.6,17.9,90,13.43,55,5.9,295.5,334.3,297.9
966.7,451,19.6,17.8,90,13.41,55,6.0,295.6,334.3,297.9
966.1,456,19.5,17.9,90,13.47,54,6.0,295.5,334.4,297.9
965.5,461,19.5,18.0,91,13.56,54,6.0,295.5,334.7,298.0
964.9,467,19.4,18.0,92,13.61,54,6.1,295.6,334.9,298.0
964.3,472,19.4,18.0,92,13.63,53,6.1,295.6,334.9,298.0
963.7,478,19.4,18.0,92,13.62,53,6.1,295.6,335.0,298.1
963.1,483,19.4,18.0,92,13.59,53,6.2,295.7,334.9,298.1
962.5,489,19.3,18.0,92,13.59,53,6.2,295.7,334.9,298.1
961.8,495,19.3,18.0,92,13.62,53,6.3,295.7,335.0,298.1
961.2,500,19.2,18.0,93,13.64,53,6.4,295.7,335.0,298.1
960.6,506,19.1,18.0,93,13.63,53,6.4,295.7,335.0,298.1
959.9,512,19.1,17.9,93,13.60,53,6.5,295.7,334.9,298.1
959.3,517,19.0,17.9,93,13.58,53,6.5,295.7,334.9,298.1
958.7,523,19.0,17.9,93,13.55,53,6.6,295.7,334.8,298.1
958.1,528,18.9,17.8,93,13.52,53,6.6,295.7,334.7,298.1
957.5,533,18.9,17.8,93,13.50,53,6.7,295.7,334.7,298.1
956.9,539,18.9,17.8,93,13.51,53,6.8,295.7,334.7,298.1
956.3,545,18.8,17.8,94,13.53,53,6.8,295.7,334.8,298.1
955.6,550,18.8,17.8,94,13.55,53,6.8,295.7,334.9,298.1
955.0,556,18.7,17.8,94,13.55,53,6.9,295.7,334.8,298.1
954.3,562,18.7,17.7,94,13.51,54,6.9,295.7,334.8,298.1
953.7,568,18.6,17.7,95,13.49,54,6.9,295.7,334.7,298.1
953.0,574,18.5,17.7,95,13.46,54,7.0,295.7,334.6,298.1
952.4,580,18.5,17.6,95,13.43,54,7.0,295.7,334.5,298.1
951.7,586,18.4,17.6,95,13.44,54,7.0,295.7,334.5,298.1
951.0,592,18.4,17.6,96,13.47,54,7.0,295.7,334.6,298.1
950.4,598,18.3,17.7,96,13.49,54,7.0,295.7,334.7,298.1
949.7,604,18.3,17.7,96,13.51,54,7.0,295.7,334.8,298.1
949.1,609,18.2,17.7,97,13.53,54,7.0,295.7,334.8,298.1
948.4,615,18.2,17.7,97,13.59,54,7.0,295.7,335.0,298.2
947.8,621,18.1,17.8,98,13.67,54,7.0,295.7,335.2,298.2
947.1,627,18.0,17.9,99,13.72,54,6.9,295.7,335.4,298.2
946.5,633,18.0,17.8,99,13.70,54,6.9,295.7,335.3,298.2
945.9,639,17.9,17.8,99,13.64,55,6.9,295.8,335.1,298.2
945.2,644,17.9,17.7,99,13.61,55,6.8,295.8,335.1,298.2
944.6,650,17.8,17.7,99,13.57,55,6.8,295.7,334.9,298.2
944.0,656,17.8,17.5,99,13.49,55,6.8,295.7,334.7,298.1
943.4,661,17.7,17.4,98,13.39,55,6.7,295.7,334.4,298.1
942.8,667,17.7,17.3,98,13.29,56,6.7,295.8,334.1,298.1
942.2,672,17.7,17.1,97,13.17,56,6.6,295.8,333.8,298.1
941.6,677,17.6,17.1,97,13.16,57,6.6,295.8,333.8,298.1
941.0,683,17.6,17.2,98,13.22,57,6.6,295.8,334.0,298.2
940.4,688,17.5,17.2,98,13.28,58,6.5,295.8,334.2,298.2
939.8,694,17.5,17.2,98,13.27,59,6.5,295.8,334.2,298.2
939.2,700,17.4,17.1,98,13.17,59,6.5,295.8,333.9,298.2
938.5,705,17.4,16.9,97,13.05,60,6.4,295.9,333.6,298.2
937.9,711,17.4,16.9,97,13.03,61,6.4,295.9,333.5,298.2
937.3,717,17.3,16.9,98,13.06,61,6.4,295.9,333.6,298.2
936.7,722,17.3,17.0,98,13.09,62,6.4,295.9,333.7,298.2
936.1,728,17.2,16.9,98,13.05,63,6.3,295.9,333.6,298.2
935.5,733,17.2,16.8,98,12.95,64,6.3,295.9,333.3,298.2
934.9,738,17.1,16.8,98,12.94,65,6.3,295.9,333.4,298.2
934.4,744,17.1,17.0,99,13.12,66,6.3,295.9,333.9,298.3
933.8,748,17.1,17.1,100,13.24,66,6.3,296.0,334.2,298.3
933.3,753,17.0,17.0,100,13.17,67,6.3,295.9,334.0,298.3
932.7,758,16.9,16.8,99,13.02,68,6.3,295.9,333.6,298.2
932.2,763,16.9,16.7,99,12.96,68,6.3,295.9,333.4,298.2
931.7,768,16.8,16.8,100,13.01,69,6.3,295.9,333.5,298.2
931.1,773,16.8,16.8,100,13.02,70,6.2,295.9,333.6,298.2
930.6,778,16.8,16.8,100,13.02,70,6.2,295.9,333.6,298.3
930.0,784,16.7,16.7,100,13.00,71,6.2,296.0,333.6,298.3
929.4,789,16.7,16.7,100,12.95,71,6.2,296.0,333.4,298.3
928.8,795,16.6,16.5,99,12.84,72,6.2,296.0,333.1,298.2
928.2,800,16.6,16.4,99,12.78,72,6.2,295.9,332.9,298.2
927.6,806,16.5,16.4,99,12.77,72,6.1,295.9,332.9,298.2
926.9,812,16.5,16.4,100,12.78,73,6.1,296.0,332.9,298.2
926.3,818,16.4,16.4,100,12.79,73,6.1,296.0,333.0,298.2
925.6,824,16.4,16.4,100,12.76,73,6.0,296.0,332.9,298.3
925.0,830,16.3,16.3,100,12.73,73,6.0,296.0,332.8,298.3
924.3,836,16.3,16.3,100,12.71,74,5.9,296.0,332.8,298.3
923.6,843,16.3,16.3,100,12.72,74,5.9,296.1,332.9,298.3
922.9,849,16.4,16.4,100,12.79,75,5.8,296.2,333.3,298.5
922.3,855,16.4,16.4,100,12.84,75,5.8,296.3,333.5,298.6
921.6,861,16.4,16.4,100,12.83,75,5.7,296.4,333.5,298.7
921.0,866,16.3,16.3,100,12.80,76,5.7,296.4,333.5,298.7
920.4,872,16.3,16.3,100,12.76,76,5.6,296.4,333.3,298.6
919.8,877,16.2,16.2,100,12.71,76,5.6,296.4,333.2,298.6
919.3,883,16.2,16.2,100,12.69,76,5.5,296.4,333.1,298.6
918.7,888,16.2,16.2,100,12.75,77,5.4,296.5,333.4,298.8
918.2,893,16.3,16.3,100,12.80,77,5.4,296.6,333.7,298.9
917.6,898,16.3,16.3,100,12.80,77,5.3,296.6,333.7,298.9
917.0,903,16.2,16.2,100,12.73,77,5.3,296.6,333.5,298.9
916.5,909,16.0,16.0,100,12.56,77,5.2,296.5,332.9,298.7
915.9,914,15.9,15.6,99,12.30,78,5.1,296.3,332.0,298.5
915.3,919,15.7,15.1,96,11.86,78,5.1,296.2,330.6,298.3
914.8,925,15.5,14.6,94,11.49,78,5.0,296.1,329.4,298.2
914.2,930,15.5,14.4,93,11.35,78,5.0,296.1,329.0,298.1
913.6,935,15.4,14.4,93,11.33,78,4.9,296.1,329.0,298.1
913.0,941,15.4,14.3,93,11.32,77,4.9,296.2,329.0,298.2
912.5,946,15.4,14.3,93,11.32,77,4.9,296.2,329.0,298.2
911.9,951,15.4,14.3,94,11.34,77,4.8,296.2,329.1,298.2
911.3,957,15.4,14.4,94,11.38,76,4.8,296.3,329.3,298.3
910.7,963,15.3,14.4,94,11.39,76,4.8,296.3,329.3,298.3
910.0,969,15.3,14.3,94,11.35,75,4.8,296.3,329.3,298.3
909.4,975,15.3,14.2,93,11.25,75,4.8,296.4,329.0,298.4
908.7,981,15.2,14.0,92,11.11,74,4.8,296.4,328.7,298.4
908.1,987,15.2,13.8,91,11.01,73,4.8,296.4,328.4,298.4
907.5,993,15.2,13.8,91,11.02,72,4.8,296.5,328.5,298.4
906.9,998,15.2,14.0,92,11.14,71,4.8,296.5,328.9,298.5
906.3,1004,15.2,14.1,93,11.24,71,4.8,296.6,329.3,298.6
905.7,1009,15.2,14.3,94,11.37,70,4.9,296.6,329.7,298.7
905.1,1014,15.2,14.2,94,11.29,69,4.9,296.6,329.5,298.7
904.6,1020,15.1,13.7,91,10.99,68,4.9,296.6,328.6,298.6
904.0,1025,15.1,13.5,90,10.83,67,5.0,296.7,328.2,298.6
903.4,1030,15.1,13.5,90,10.81,67,5.0,296.8,328.3,298.7
902.9,1036,15.1,13.4,90,10.79,66,5.1,296.8,328.3,298.8
902.3,1041,15.1,13.4,89,10.77,66,5.1,296.9,328.3,298.8
901.7,1047,15.1,13.4,90,10.78,65,5.1,296.9,328.3,298.8
901.1,1052,15.1,13.4,90,10.81,65,5.2,296.9,328.4,298.9
900.5,1058,15.1,13.5,90,10.84,65,5.2,297.0,328.6,298.9
900.0,1063,15.0,13.5,91,10.89,64,5.3,297.0,328.7,298.9
899.4,1069,15.0,13.6,91,10.93,64,5.3,297.0,328.8,298.9
898.8,1074,14.9,13.6,92,10.95,64,5.3,297.0,328.9,299.0
898.2,1080,14.9,13.5,92,10.92,64,5.4,297.0,328.9,299.0
897.6,1085,14.9,13.5,91,10.87,65,5.4,297.1,328.7,299.0
897.1,1091,14.9,13.3,90,10.77,65,5.4,297.1,328.5,299.0
896.5,1096,14.9,13.2,90,10.69,65,5.4,297.2,328.3,299.1
896.0,1101,14.9,13.1,89,10.61,66,5.4,297.2,328.2,299.1
895.5,1105,14.9,13.0,88,10.54,67,5.5,297.2,328.0,299.1
895.0,1110,14.9,12.9,88,10.48,67,5.5,297.3,327.9,299.2
894.5,1115,14.9,12.8,88,10.46,68,5.5,297.3,327.9,299.2
894.0,1119,14.9,12.8,87,10.44,69,5.5,297.4,327.9,299.2
893.6,1124,14.9,12.7,87,10.41,70,5.5,297.4,327.8,299.3
893.1,1128,14.8,12.7,87,10.38,70,5.5,297.4,327.8,299.3
892.6,1133,14.8,12.6,87,10.33,71,5.5,297.4,327.6,299.3
892.1,1138,14.8,12.6,87,10.30,72,5.6,297.4,327.6,299.3
891.6,1142,14.7,12.5,87,10.28,73,5.6,297.5,327.5,299.3
891.1,1147,14.7,12.5,87,10.26,74,5.6,297.5,327.5,299.3
890.6,1152,14.7,12.4,86,10.22,75,5.6,297.5,327.4,299.3
890.1,1156,14.6,12.4,86,10.19,76,5.6,297.5,327.3,299.3
889.7,1161,14.6,12.3,86,10.13,77,5.7,297.5,327.2,299.3
889.2,1166,14.6,12.2,86,10.08,78,5.7,297.5,327.0,299.3
888.7,1170,14.5,12.2,86,10.07,79,5.7,297.6,327.0,299.4
888.2,1175,14.5,12.2,86,10.07,80,5.7,297.6,327.0,299.4
887.7,1180,14.5,12.2,86,10.08,80,5.8,297.6,327.1,299.4
887.2,1185,14.4,12.2,86,10.08,81,5.8,297.6,327.1,299.4
886.6,1190,14.4,12.2,86,10.09,82,5.8,297.6,327.1,299.4
886.1,1195,14.3,12.2,87,10.12,82,5.9,297.6,327.2,299.4
885.5,1200,14.3,12.2,87,10.16,83,5.9,297.6,327.3,299.4
884.9,1206,14.2,12.3,88,10.18,83,5.9,297.6,327.4,299.4
884.4,1212,14.2,12.3,88,10.18,84,6.0,297.6,327.4,299.4
883.8,1217,14.1,12.2,88,10.15,84,6.0,297.6,327.3,299.4
883.2,1223,14.1,12.2,88,10.13,84,6.0,297.6,327.3,299.4
882.6,1228,14.0,12.2,88,10.14,84,6.0,297.6,327.3,299.4
882.0,1234,14.0,12.1,89,10.14,84,6.1,297.6,327.3,299.4
881.5,1239,13.9,12.1,89,10.14,84,6.1,297.6,327.3,299.4
880.9,1245,13.9,12.1,89,10.14,84,6.1,297.6,327.3,299.5
880.4,1250,13.9,12.1,89,10.15,84,6.1,297.6,327.3,299.5
879.8,1255,13.8,12.1,89,10.14,84,6.1,297.6,327.3,299.5
879.2,1261,13.8,12.1,89,10.11,84,6.2,297.7,327.3,299.5
878.6,1266,13.7,12.0,89,10.08,84,6.2,297.7,327.2,299.5
878.0,1272,13.7,12.0,89,10.08,83,6.2,297.7,327.3,299.5
877.5,1278,13.7,12.0,90,10.10,83,6.1,297.7,327.3,299.5
876.9,1283,13.6,12.0,90,10.09,83,6.1,297.7,327.3,299.5
876.3,1289,13.6,11.9,90,10.06,82,6.1,297.7,327.2,299.5
875.7,1294,13.5,11.9,90,10.03,82,6.1,297.8,327.1,299.6
875.2,1300,13.5,11.9,90,10.02,81,6.1,297.8,327.1,299.6
874.6,1305,13.5,11.9,90,10.03,80,6.0,297.8,327.2,299.6
874.1,1310,13.4,11.8,90,10.01,80,6.0,297.8,327.1,299.6
873.6,1315,13.4,11.8,90,9.97,79,6.0,297.9,327.1,299.6
873.1,1320,13.4,11.7,89,9.93,79,5.9,297.9,327.0,299.7
872.6,1325,13.4,11.7,89,9.92,78,5.9,297.9,327.0,299.7
872.1,1330,13.4,11.6,89,9.92,77,5.9,297.9,327.0,299.7
871.6,1335,13.3,11.6,90,9.92,77,5.8,297.9,327.0,299.7
871.1,1340,13.3,11.6,90,9.93,76,5.8,297.9,327.1,299.7
870.6,1344,13.2,11.6,90,9.93,75,5.7,298.0,327.1,299.7
870.1,1349,13.2,11.6,90,9.90,75,5.7,298.0,327.0,299.8
869.6,1354,13.2,11.5,90,9.87,74,5.6,298.0,326.9,299.8
869.1,1359,13.2,11.5,89,9.84,73,5.6,298.0,326.9,299.8
868.6,1363,13.1,11.5,90,9.84,73,5.5,298.0,326.9,299.8
868.1,1368,13.1,11.5,90,9.84,72,5.5,298.1,326.9,299.8
867.6,1373,13.1,11.5,90,9.84,72,5.4,298.1,326.9,299.8
867.1,1378,13.0,11.5,90,9.86,71,5.4,298.1,327.0,299.8
866.6,1383,13.0,11.5,91,9.89,71,5.3,298.1,327.1,299.8
866.0,1388,12.9,11.5,91,9.89,71,5.3,298.1,327.1,299.8
865.5,1393,12.9,11.5,91,9.87,71,5.3,298.1,327.0,299.9
865.0,1398,12.8,11.4,91,9.83,71,5.2,298.1,327.0,299.9
864.5,1403,12.8,11.3,91,9.81,71,5.2,298.1,326.9,299.9
864.0,1408,12.8,11.3,91,9.77,71,5.2,298.1,326.8,299.9
863.5,1413,12.7,11.2,91,9.74,71,5.1,298.1,326.7,299.9
863.0,1418,12.7,11.2,90,9.70,71,5.1,298.1,326.6,299.9
862.5,1423,12.7,11.1,90,9.69,71,5.1,298.2,326.6,299.9
861.9,1428,12.6,11.1,91,9.70,71,5.1,298.2,326.7,299.9
861.4,1433,12.6,11.1,91,9.70,72,5.1,298.2,326.7,299.9
860.9,1438,12.6,11.1,91,9.69,72,5.1,298.2,326.7,300.0
860.4,1443,12.5,11.0,91,9.66,72,5.1,298.2,326.6,300.0
859.9,1448,12.5,10.9,90,9.60,73,5.1,298.2,326.5,300.0
859.3,1454,12.5,10.8,89,9.51,73,5.1,298.3,326.2,300.0
858.8,1459,12.5,10.7,89,9.43,74,5.2,298.3,326.0,300.0
858.3,1464,12.4,10.6,88,9.39,74,5.2,298.3,326.0,300.0
857.7,1469,12.4,10.6,88,9.37,74,5.2,298.4,325.9,300.0
857.2,1475,12.4,10.5,88,9.34,75,5.2,298.4,325.9,300.0
856.7,1480,12.4,10.4,88,9.29,75,5.3,298.4,325.8,300.1
856.1,1485,12.3,10.4,88,9.26,75,5.3,298.4,325.7,300.1
855.6,1490,12.3,10.3,87,9.22,75,5.3,298.5,325.6,300.1
855.1,1495,12.3,10.1,87,9.14,75,5.3,298.5,325.4,300.1
854.6,1500,12.3,10.0,86,9.06,75,5.4,298.6,325.3,300.2
854.1,1505,12.3,9.9,85,9.00,75,5.4,298.6,325.2,300.2
853.6,1510,12.3,9.8,85,8.96,75,5.4,298.7,325.1,300.3
853.0,1515,12.3,9.8,85,8.93,75,5.5,298.7,325.0,300.3
852.5,1520,12.3,9.7,85,8.92,75,5.5,298.7,325.0,300.3
852.0,1526,12.2,9.8,85,8.96,74,5.5,298.7,325.2,300.3
851.5,1531,12.2,9.9,86,9.04,74,5.5,298.7,325.4,300.4
851.0,1536,12.1,10.0,87,9.11,74,5.6,298.7,325.6,300.4
850.4,1541,12.1,10.1,88,9.17,73,5.6,298.8,325.8,300.4
850.0,1545,12.1,10.1,88,9.19,73,5.6,298.8,325.9,300.5
849.9,1546,12.1,10.1,88,9.19,73,5.6,298.8,325.9,300.5
849.3,1552,12.1,10.1,87,9.16,72,5.6,298.9,325.9,300.5
848.8,1558,12.1,10.0,87,9.10,72,5.6,298.9,325.8,300.6
848.2,1563,12.1,9.8,86,9.03,71,5.6,299.0,325.6,300.6
847.6,1569,12.1,9.7,86,8.96,70,5.6,299.0,325.5,300.6
847.0,1575,12.0,9.6,85,8.90,70,5.6,299.0,325.4,300.6
846.4,1581,12.0,9.6,85,8.92,69,5.6,299.1,325.4,300.7
845.9,1586,12.0,9.7,86,8.95,69,5.6,299.1,325.5,300.7
845.3,1592,11.9,9.7,86,8.97,68,5.6,299.1,325.6,300.7
844.7,1597,11.9,9.6,86,8.94,67,5.6,299.2,325.6,300.8
844.2,1603,11.9,9.6,86,8.90,67,5.6,299.2,325.5,300.8
843.7,1608,11.9,9.5,85,8.87,66,5.6,299.2,325.5,300.8
843.1,1614,11.9,9.4,85,8.84,66,5.6,299.3,325.5,300.9
842.6,1619,11.9,9.4,85,8.83,65,5.6,299.3,325.5,300.9
842.0,1624,11.8,9.4,85,8.82,65,5.7,299.3,325.5,300.9
841.5,1630,11.8,9.3,85,8.78,65,5.7,299.3,325.3,300.9
840.9,1635,11.8,9.2,84,8.70,64,5.7,299.4,325.2,300.9
840.4,1641,11.7,9.0,84,8.63,64,5.7,299.4,324.9,300.9
839.8,1647,11.7,8.9,83,8.55,64,5.7,299.4,324.8,301.0
839.2,1652,11.7,8.8,82,8.49,64,5.7,299.4,324.6,301.0
838.7,1658,11.6,8.7,82,8.47,63,5.7,299.5,324.6,301.0
838.1,1664,11.6,8.7,82,8.43,63,5.8,299.5,324.5,301.0
837.5,1670,11.6,8.5,81,8.36,63,5.8,299.5,324.3,301.0
836.9,1675,11.6,8.4,81,8.27,63,5.8,299.6,324.1,301.1
836.4,1681,11.6,8.3,80,8.22,63,5.8,299.6,324.0,301.1
835.8,1687,11.5,8.2,80,8.20,63,5.9,299.6,324.0,301.1
835.3,1692,11.5,8.2,80,8.20,63,5.9,299.6,324.0,301.1
834.7,1697,11.4,8.1,80,8.17,63,6.0,299.7,324.0,301.1
834.2,1703,11.4,8.1,80,8.14,63,6.0,299.7,323.9,301.2
833.7,1708,11.4,8.1,80,8.15,63,6.0,299.7,323.9,301.2
833.1,1713,11.3,8.1,81,8.17,63,6.1,299.7,324.0,301.2
832.6,1719,11.3,8.1,81,8.19,63,6.1,299.8,324.1,301.2
832.1,1724,11.3,8.2,81,8.23,63,6.2,299.8,324.3,301.3
831.5,1729,11.3,8.3,82,8.32,63,6.2,299.8,324.5,301.3
831.0,1735,11.2,8.4,83,8.38,63,6.3,299.8,324.7,301.4
830.5,1740,11.2,8.5,83,8.41,63,6.3,299.8,324.8,301.4
830.0,1745,11.2,8.5,84,8.44,63,6.4,299.9,324.9,301.4
829.5,1750,11.1,8.6,84,8.47,63,6.4,299.9,325.0,301.4
829.0,1755,11.1,8.6,85,8.50,63,6.4,299.9,325.1,301.4
828.5,1760,11.0,8.6,85,8.52,63,6.5,299.9,325.2,301.4
828.0,1765,11.0,8.6,85,8.52,63,6.5,299.9,325.2,301.4
827.5,1770,11.0,8.6,85,8.50,63,6.5,299.9,325.2,301.4
827.0,1775,10.9,8.6,85,8.50,63,6.6,299.9,325.2,301.4
826.6,1780,10.9,8.6,86,8.50,63,6.6,299.9,325.2,301.4
826.1,1784,10.9,8.6,86,8.52,63,6.6,299.9,325.2,301.5
825.7,1789,10.8,8.6,86,8.54,63,6.6,299.9,325.3,301.5
825.2,1793,10.8,8.6,87,8.56,64,6.6,300.0,325.4,301.5
824.8,1798,10.8,8.7,87,8.57,64,6.6,300.0,325.4,301.5
824.4,1802,10.7,8.7,88,8.61,64,6.6,300.0,325.5,301.5
823.9,1806,10.7,8.8,88,8.67,65,6.6,300.0,325.7,301.5
823.5,1811,10.6,8.9,89,8.75,65,6.6,300.0,326.0,301.6
823.0,1816,10.6,9.0,90,8.79,66,6.6,300.0,326.1,301.6
822.6,1820,10.6,9.0,90,8.77,66,6.6,300.0,326.0,301.6
822.1,1825,10.6,8.9,89,8.74,67,6.5,300.0,326.0,301.6
821.6,1830,10.5,8.8,89,8.69,68,6.5,300.1,325.9,301.6
821.2,1834,10.5,8.7,89,8.64,69,6.5,300.1,325.7,301.6
820.7,1839,10.5,8.6,88,8.57,69,6.4,300.1,325.6,301.7
820.2,1844,10.5,8.4,87,8.47,70,6.4,300.1,325.3,301.7
819.7,1849,10.5,8.3,86,8.40,71,6.3,300.2,325.2,301.7
819.2,1854,10.5,8.2,86,8.36,72,6.3,300.2,325.1,301.7
818.7,1860,10.4,8.3,87,8.41,73,6.2,300.2,325.3,301.8
818.2,1865,10.4,8.4,88,8.48,73,6.1,300.2,325.5,301.8
817.6,1870,10.3,8.4,88,8.50,74,6.1,300.3,325.6,301.8
817.1,1876,10.3,8.4,88,8.51,75,6.0,300.3,325.6,301.8
816.6,1881,10.3,8.5,89,8.57,75,6.0,300.3,325.8,301.9
816.0,1887,10.2,8.7,90,8.67,76,5.9,300.3,326.1,301.9
815.6,1892,10.2,8.8,91,8.77,76,5.8,300.3,326.4,301.9
815.1,1896,10.2,8.9,92,8.80,76,5.8,300.4,326.5,302.0
814.6,1901,10.2,8.8,91,8.76,76,5.7,300.4,326.5,302.0
814.2,1905,10.1,8.7,91,8.73,76,5.7,300.4,326.4,302.0
813.8,1910,10.1,8.7,91,8.71,76,5.6,300.4,326.3,302.0
813.4,1914,10.1,8.6,91,8.68,76,5.6,300.4,326.3,302.0
813.0,1918,10.1,8.5,90,8.62,75,5.5,300.5,326.1,302.0
812.6,1922,10.1,8.4,89,8.53,75,5.5,300.5,325.9,302.1
812.2,1926,10.1,8.2,88,8.41,74,5.4,300.6,325.7,302.1
811.8,1930,10.1,7.9,86,8.26,73,5.4,300.7,325.3,302.2
811.4,1934,10.2,7.6,84,8.12,72,5.4,300.7,325.0,302.2
811.0,1938,10.2,7.5,84,8.07,71,5.4,300.8,324.9,302.3
810.6,1942,10.2,7.5,83,8.04,70,5.4,300.8,324.8,302.3
810.2,1946,10.2,7.4,83,7.99,69,5.4,300.9,324.8,302.3
809.8,1951,10.1,7.3,83,7.96,68,5.4,300.9,324.7,302.3
809.3,1955,10.1,7.3,82,7.93,67,5.4,300.9,324.6,302.4
808.9,1960,10.1,7.2,82,7.91,66,5.4,300.9,324.6,302.4
808.4,1965,10.1,7.2,82,7.89,65,5.4,301.0,324.5,302.4
807.9,1970,10.0,7.1,82,7.84,65,5.4,301.0,324.5,302.4
807.4,1975,10.0,7.0,81,7.81,64,5.5,301.0,324.4,302.4
806.9,1981,10.0,6.9,81,7.78,63,5.5,301.0,324.3,302.4
806.3,1986,9.9,6.9,82,7.78,63,5.5,301.0,324.3,302.5
805.8,1992,9.9,7.0,82,7.81,62,5.6,301.0,324.4,302.4
805.2,1998,9.8,7.0,83,7.84,62,5.6,301.0,324.5,302.5
804.6,2004,9.8,7.0,83,7.86,62,5.6,301.1,324.6,302.5
804.1,2010,9.8,7.1,83,7.89,62,5.7,301.1,324.7,302.5
803.5,2015,9.7,7.2,84,7.97,62,5.7,301.1,325.0,302.6
