PRES,HGHT,TEMP,DWPT,RELH,MIXR,DRCT,SPED,THTA,THTE,THTV
1014.3,31,25.6,20.4,73,15.06,66,5.6,297.5,341.4,300.2
1013.5,38,25.7,20.4,73,15.08,66,4.8,297.7,341.6,300.4
1012.9,42,25.7,20.3,72,15.01,67,4.8,297.8,341.5,300.4
1012.4,47,25.7,20.2,72,14.92,67,5.0,297.8,341.3,300.5
1011.6,54,25.7,20.1,71,14.78,67,5.4,297.8,340.9,300.5
1010.9,60,25.6,19.8,70,14.56,68,5.7,297.8,340.3,300.4
1010.4,64,25.6,19.7,70,14.43,68,6.1,297.8,339.9,300.4
1009.9,69,25.5,19.7,70,14.46,68,6.4,297.8,340.0,300.4
1009.3,74,25.5,19.8,71,14.52,68,6.8,297.8,340.1,300.4
1008.7,80,25.4,19.8,71,14.56,69,7.1,297.8,340.3,300.4
1008.1,85,25.4,19.9,72,14.64,69,7.3,297.9,340.5,300.5
1007.5,90,25.3,19.9,72,14.69,69,7.6,297.9,340.7,300.5
1006.9,95,25.3,19.9,72,14.65,70,7.9,297.9,340.5,300.5
1006.3,101,25.2,19.8,72,14.58,70,8.1,297.8,340.3,300.4
1005.6,106,25.2,19.8,72,14.59,70,8.3,297.9,340.4,300.5
1005.0,112,25.1,19.8,72,14.62,70,8.5,297.9,340.5,300.5
1004.4,117,25.1,19.8,73,14.63,71,8.7,297.9,340.5,300.5
1003.7,123,25.0,19.8,73,14.63,71,8.8,297.9,340.5,300.5
1003.1,128,25.0,19.7,73,14.58,71,8.9,297.9,340.4,300.5
1002.5,134,24.9,19.7,73,14.53,72,9.1,297.9,340.2,300.4
1001.9,139,24.9,19.6,72,14.46,72,9.2,297.8,340.0,300.4
1001.2,145,24.8,19.6,73,14.45,72,9.2,297.8,339.9,300.4
1000.6,150,24.7,19.6,73,14.48,73,9.3,297.8,340.0,300.4
1000.0,156,24.7,19.6,73,14.52,73,9.3,297.9,340.2,300.4
999.3,161,24.6,19.6,74,14.56,73,9.4,297.8,340.3,300.4
998.7,167,24.6,19.7,74,14.60,73,9.5,297.9,340.4,300.5
998.1,173,24.5,19.7,74,14.61,73,9.5,297.9,340.4,300.5
997.4,178,24.5,19.6,74,14.56,74,9.5,297.9,340.3,300.4
996.8,184,24.4,19.5,74,14.46,74,9.5,297.9,340.0,300.4
996.1,190,24.4,19.5,74,14.44,74,9.5,297.9,339.9,300.4
995.4,196,24.3,19.5,74,14.48,74,9.6,297.9,340.1,300.5
994.8,202,24.3,19.5,75,14.45,74,9.6,297.9,340.0,300.4
994.1,208,24.2,19.4,74,14.39,74,9.6,297.9,339.8,300.4
993.5,213,24.2,19.3,74,14.36,74,9.6,297.9,339.7,300.4
992.8,219,24.1,19.3,75,14.35,74,9.6,297.9,339.7,300.4
992.2,225,24.1,19.3,75,14.30,74,9.6,297.9,339.6,300.4
991.5,231,24.0,19.2,75,14.30,74,9.6,297.9,339.5,300.4
990.9,236,24.0,19.3,75,14.37,74,9.6,297.9,339.8,300.4
990.2,242,23.9,19.4,76,14.43,74,9.6,297.9,340.0,300.5
989.6,248,23.8,19.3,76,14.41,74,9.6,297.9,339.9,300.4
988.9,254,23.8,19.2,75,14.30,74,9.6,297.9,339.6,300.4
988.3,259,23.7,19.1,75,14.22,74,9.6,297.9,339.3,300.4
987.6,265,23.7,19.1,76,14.27,74,9.6,297.9,339.5,300.4
987.0,270,23.6,19.2,76,14.36,73,9.6,297.9,339.7,300.4
986.4,276,23.6,19.2,77,14.35,73,9.6,297.9,339.7,300.4
985.8,281,23.5,19.2,77,14.33,73,9.6,297.9,339.6,300.4
985.2,287,23.5,19.2,77,14.38,73,9.6,297.9,339.8,300.4
984.6,292,23.4,19.3,78,14.48,73,9.6,297.9,340.1,300.5
984.0,298,23.4,19.4,78,14.54,72,9.6,297.9,340.2,300.5
983.4,303,23.3,19.4,79,14.54,72,9.6,297.9,340.2,300.5
982.8,308,23.3,19.4,79,14.54,72,9.6,297.9,340.2,300.5
982.2,313,23.2,19.3,79,14.53,72,9.6,297.9,340.2,300.5
981.6,319,23.1,19.3,79,14.52,71,9.6,297.9,340.2,300.5
981.0,324,23.1,19.3,79,14.50,71,9.6,297.9,340.1,300.5
980.4,329,23.1,19.3,79,14.49,71,9.6,297.9,340.1,300.5
979.9,334,23.0,19.2,79,14.47,71,9.6,297.9,340.0,300.5
979.3,339,23.0,19.2,80,14.47,71,9.6,297.9,340.0,300.5
978.8,344,22.9,19.3,80,14.50,70,9.6,297.9,340.1,300.4
978.3,348,22.8,19.3,80,14.52,70,9.6,297.9,340.2,300.4
977.8,353,22.8,19.3,80,14.53,70,9.6,297.9,340.2,300.4
977.3,357,22.8,19.3,81,14.57,70,9.6,297.8,340.3,300.4
976.7,362,22.7,19.3,81,14.60,70,9.6,297.9,340.4,300.5
976.2,366,22.7,19.3,81,14.58,70,9.6,297.9,340.3,300.5
975.7,371,22.6,19.2,81,14.47,70,9.6,297.9,340.0,300.4
975.2,376,22.6,18.9,80,14.25,70,9.5,297.9,339.4,300.4
974.7,380,22.6,18.7,79,14.08,71,9.5,297.9,338.9,300.4
974.2,385,22.5,18.7,79,14.03,71,9.5,297.9,338.8,300.4
973.7,389,22.5,18.6,79,13.99,71,9.5,297.9,338.7,300.4
973.1,394,22.5,18.6,79,14.02,71,9.5,297.9,338.8,300.4
972.6,399,22.4,18.7,80,14.13,71,9.5,297.9,339.1,300.4
972.0,404,22.4,18.8,80,14.22,72,9.5,297.9,339.4,300.4
971.5,409,22.3,18.8,81,14.21,72,9.5,297.9,339.3,300.4
970.9,415,22.3,18.8,81,14.18,72,9.5,297.9,339.2,300.4
970.3,420,22.2,18.7,81,14.16,73,9.5,297.9,339.2,300.4
969.7,425,22.1,18.7,81,14.14,73,9.5,297.9,339.1,300.4
969.1,431,22.1,18.7,81,14.13,74,9.5,297.9,339.1,300.4
968.5,436,22.0,18.7,81,14.15,74,9.5,297.9,339.1,300.4
967.9,441,22.0,18.7,82,14.16,74,9.5,297.9,339.2,300.4
967.4,446,21.9,18.7,82,14.13,75,9.5,297.9,339.1,300.4
966.8,451,21.9,18.5,81,14.03,75,9.5,297.9,338.8,300.4
966.3,456,21.9,18.4,81,13.88,76,9.6,297.9,338.4,300.4
965.8,460,21.8,18.2,80,13.75,76,9.6,297.9,338.0,300.4
965.3,465,21.8,18.1,79,13.65,76,9.6,298.0,337.8,300.4
964.8,469,21.8,18.0,79,13.62,77,9.6,298.0,337.7,300.4
964.3,474,21.8,18.1,80,13.66,77,9.6,298.0,337.8,300.4
963.8,479,21.7,18.1,80,13.70,77,9.7,298.0,338.0,300.5
963.2,483,21.7,18.2,80,13.74,77,9.7,298.0,338.1,300.5
962.7,488,21.6,18.2,81,13.75,78,9.7,298.0,338.1,300.5
962.1,493,21.6,18.1,81,13.75,78,9.7,298.0,338.1,300.5
961.6,498,21.5,18.1,81,13.71,78,9.7,298.0,338.0,300.5
961.0,504,21.5,18.0,81,13.65,78,9.8,298.0,337.8,300.4
960.4,509,21.4,18.0,81,13.62,78,9.8,298.0,337.8,300.4
959.9,514,21.4,18.0,81,13.64,78,9.8,298.0,337.8,300.4
959.3,519,21.3,18.0,81,13.65,78,9.8,298.0,337.8,300.4
958.8,524,21.3,18.0,81,13.65,78,9.8,298.0,337.8,300.4
958.2,529,21.3,17.9,81,13.63,78,9.9,298.0,337.8,300.5
957.7,533,21.2,17.9,81,13.62,78,9.9,298.0,337.8,300.5
957.2,538,21.2,17.9,82,13.63,78,9.9,298.0,337.8,300.5
956.7,543,21.1,17.9,82,13.65,78,9.9,298.0,337.9,300.5
956.1,548,21.1,18.0,82,13.68,78,9.9,298.0,337.9,300.5
955.6,553,21.0,18.0,83,13.69,78,9.9,298.0,338.0,300.5
955.0,558,21.0,17.9,83,13.68,78,9.9,298.0,337.9,300.5
954.5,563,20.9,17.9,83,13.66,78,9.9,298.0,337.9,300.5
953.9,568,20.9,17.9,83,13.67,78,9.9,298.0,337.9,300.5
953.3,573,20.8,18.0,84,13.71,78,9.8,298.0,338.0,300.5
952.7,579,20.8,18.0,84,13.75,77,9.8,298.0,338.1,300.5
952.1,585,20.7,18.0,84,13.75,77,9.8,298.0,338.1,300.5
951.4,590,20.7,17.9,84,13.68,77,9.8,298.0,337.9,300.5
950.8,596,20.6,17.8,84,13.61,77,9.8,298.0,337.7,300.5
950.2,601,20.6,17.8,84,13.59,77,9.8,298.0,337.7,300.5
949.6,607,20.5,17.7,84,13.55,77,9.7,298.0,337.6,300.5
949.1,612,20.5,17.6,84,13.49,77,9.7,298.0,337.4,300.4
948.5,617,20.4,17.6,84,13.44,77,9.7,298.0,337.3,300.5
948.0,622,20.4,17.5,84,13.43,76,9.7,298.1,337.2,300.5
947.5,627,20.4,17.6,84,13.47,76,9.7,298.1,337.4,300.5
946.9,631,20.3,17.7,85,13.54,76,9.7,298.1,337.6,300.5
946.4,636,20.3,17.8,85,13.64,76,9.7,298.1,337.8,300.5
945.9,641,20.2,17.9,86,13.73,76,9.7,298.0,338.1,300.5
945.4,646,20.1,17.9,87,13.77,76,9.7,298.0,338.2,300.5
944.8,651,20.1,17.9,87,13.77,76,9.8,298.0,338.2,300.5
944.3,656,20.0,17.8,87,13.74,75,9.8,298.0,338.1,300.5
943.7,661,20.0,17.8,87,13.74,75,9.8,298.0,338.1,300.5
943.1,667,19.9,17.8,88,13.73,75,9.9,298.0,338.1,300.5
942.5,672,19.9,17.7,87,13.67,75,9.9,298.0,337.9,300.5
941.9,678,19.9,17.7,87,13.61,75,9.9,298.1,337.8,300.5
941.3,684,19.8,17.6,87,13.61,75,10.0,298.1,337.8,300.5
940.6,689,19.7,17.6,88,13.61,75,10.0,298.1,337.8,300.5
940.1,695,19.7,17.5,87,13.54,75,10.1,298.0,337.6,300.5
939.5,700,19.6,17.4,87,13.45,75,10.2,298.1,337.3,300.5
938.9,705,19.6,17.3,87,13.39,75,10.2,298.1,337.1,300.5
938.4,710,19.6,17.3,87,13.39,75,10.3,298.1,337.2,300.5
937.9,715,19.5,17.4,87,13.41,75,10.3,298.1,337.2,300.5
937.3,720,19.5,17.4,88,13.45,75,10.4,298.1,337.3,300.5
936.8,725,19.4,17.4,88,13.47,75,10.4,298.1,337.4,300.5
936.2,730,19.4,17.4,88,13.51,75,10.5,298.1,337.5,300.5
935.7,735,19.4,17.5,89,13.53,75,10.5,298.1,337.6,300.5
935.2,740,19.3,17.4,89,13.52,75,10.6,298.1,337.5,300.5
934.6,745,19.2,17.4,89,13.49,75,10.6,298.1,337.4,300.5
934.1,749,19.2,17.4,89,13.48,75,10.7,298.1,337.4,300.5
933.6,754,19.1,17.4,90,13.51,76,10.7,298.1,337.5,300.5
933.1,758,19.1,17.4,90,13.50,76,10.7,298.1,337.5,300.5
932.7,763,19.0,17.3,90,13.45,76,10.8,298.1,337.3,300.5
932.2,767,19.0,17.3,90,13.43,76,10.8,298.1,337.3,300.5
931.7,772,19.0,17.3,90,13.46,76,10.8,298.1,337.4,300.5
931.2,776,19.0,17.4,91,13.53,76,10.9,298.1,337.6,300.5
930.7,781,18.9,17.4,91,13.54,76,10.9,298.1,337.6,300.5
930.2,786,18.9,17.3,91,13.51,76,10.9,298.1,337.5,300.5
929.6,791,18.8,17.3,91,13.46,76,10.9,298.1,337.4,300.5
929.1,796,18.8,17.2,91,13.40,76,10.9,298.1,337.2,300.5
928.5,801,18.7,17.1,90,13.32,76,10.9,298.1,337.0,300.5
927.9,807,18.7,17.0,90,13.26,76,10.9,298.2,336.9,300.5
927.3,812,18.7,17.0,90,13.26,76,10.9,298.2,336.9,300.6
926.7,818,18.6,17.1,91,13.33,76,10.9,298.2,337.1,300.6
926.0,824,18.6,17.1,91,13.39,76,10.9,298.2,337.3,300.6
925.4,830,18.5,17.1,92,13.40,76,11.0,298.2,337.3,300.5
925.0,834,18.4,17.1,92,13.40,76,11.0,298.2,337.3,300.6
924.8,836,18.4,17.1,92,13.41,76,11.0,298.2,337.3,300.6
924.1,842,18.4,17.2,93,13.44,76,11.0,298.2,337.4,300.6
923.5,848,18.3,17.2,93,13.45,76,11.0,298.1,337.4,300.5
922.9,853,18.2,17.1,93,13.44,76,11.0,298.1,337.3,300.5
922.3,859,18.2,17.1,94,13.42,76,11.0,298.1,337.3,300.5
921.7,865,18.1,17.1,94,13.41,76,11.1,298.1,337.2,300.5
921.0,871,18.0,17.0,94,13.38,76,11.1,298.1,337.2,300.5
920.4,877,18.0,16.9,93,13.30,76,11.2,298.1,336.9,300.5
919.7,883,18.0,16.8,93,13.16,76,11.2,298.2,336.6,300.5
919.1,889,18.0,16.5,91,12.99,77,11.3,298.2,336.2,300.5
918.4,895,17.9,16.4,91,12.90,77,11.3,298.3,335.9,300.6
917.8,901,17.9,16.4,91,12.90,77,11.4,298.3,336.0,300.6
917.2,907,17.9,16.5,92,12.95,77,11.5,298.3,336.1,300.6
916.5,913,17.8,16.4,92,12.94,78,11.6,298.3,336.1,300.6
915.9,919,17.8,16.4,91,12.88,78,11.7,298.3,335.9,300.6
915.3,924,17.7,16.3,91,12.82,79,11.8,298.3,335.8,300.6
914.7,930,17.7,16.2,91,12.77,79,11.9,298.4,335.7,300.7
914.1,935,17.7,16.1,90,12.70,80,12.0,298.4,335.6,300.7
913.5,941,17.7,16.1,90,12.66,80,12.1,298.5,335.5,300.7
912.9,946,17.7,16.0,90,12.64,81,12.2,298.5,335.5,300.8
912.3,952,17.7,16.0,90,12.61,81,12.4,298.5,335.4,300.8
911.7,958,17.6,16.0,90,12.62,82,12.5,298.6,335.5,300.8
911.0,964,17.6,16.0,90,12.62,82,12.6,298.6,335.5,300.8
910.4,971,17.6,15.9,90,12.59,83,12.7,298.6,335.5,300.9
909.7,977,17.5,15.8,90,12.54,83,12.8,298.6,335.3,300.9
909.0,984,17.4,15.7,90,12.46,84,13.0,298.6,335.1,300.8
908.3,990,17.4,15.6,90,12.39,84,13.1,298.6,334.9,300.8
907.7,996,17.3,15.5,89,12.32,85,13.2,298.6,334.7,300.8
907.1,1001,17.3,15.4,89,12.24,85,13.3,298.6,334.5,300.8
906.6,1007,17.2,15.3,88,12.12,85,13.3,298.6,334.1,300.8
906.0,1012,17.3,15.2,87,12.06,86,13.4,298.8,334.1,300.9
905.5,1017,17.3,15.2,87,12.06,86,13.5,298.8,334.2,301.0
904.9,1022,17.3,15.1,87,11.98,86,13.5,298.8,334.0,301.0
904.3,1028,17.2,14.9,86,11.84,87,13.6,298.8,333.6,301.0
903.8,1033,17.2,14.6,85,11.66,87,13.6,298.8,333.0,300.9
903.2,1038,17.3,14.3,83,11.43,87,13.6,299.0,332.6,301.1
902.6,1044,17.4,14.1,81,11.24,87,13.7,299.2,332.2,301.2
902.0,1049,17.4,14.0,80,11.18,87,13.7,299.2,332.1,301.2
901.5,1055,17.4,13.9,80,11.16,88,13.7,299.2,332.1,301.3
900.9,1060,17.3,13.9,80,11.17,88,13.7,299.3,332.1,301.3
900.3,1065,17.2,13.9,81,11.15,88,13.7,299.2,332.0,301.2
899.8,1071,17.2,13.8,80,11.07,88,13.7,299.2,331.8,301.2
899.2,1076,17.2,13.7,80,11.03,88,13.7,299.3,331.8,301.3
898.7,1081,17.2,13.8,81,11.14,88,13.6,299.3,332.1,301.4
898.2,1086,17.1,14.0,82,11.26,89,13.6,299.3,332.4,301.3
897.6,1092,17.0,14.0,82,11.25,89,13.6,299.2,332.3,301.3
897.1,1097,17.0,13.8,82,11.11,89,13.6,299.2,331.9,301.2
896.5,1102,17.0,13.6,80,10.97,89,13.6,299.3,331.6,301.3
896.0,1107,17.0,13.5,80,10.91,89,13.6,299.4,331.5,301.3
895.5,1112,17.0,13.5,80,10.92,89,13.6,299.4,331.6,301.4
894.9,1117,16.9,13.5,80,10.96,89,13.6,299.4,331.7,301.4
894.4,1122,16.9,13.6,81,11.01,89,13.6,299.4,331.9,301.4
893.9,1127,16.8,13.6,82,11.04,90,13.6,299.4,331.9,301.4
893.4,1132,16.7,13.5,82,10.98,90,13.6,299.4,331.7,301.3
892.9,1137,16.7,13.4,81,10.90,90,13.6,299.4,331.5,301.4
892.4,1141,16.7,13.4,81,10.89,90,13.6,299.4,331.5,301.4
891.9,1146,16.6,13.5,82,10.95,90,13.6,299.4,331.6,301.4
891.4,1150,16.6,13.5,82,10.96,90,13.6,299.4,331.7,301.4
891.0,1155,16.6,13.4,82,10.90,90,13.6,299.4,331.5,301.4
890.5,1160,16.5,13.4,81,10.89,90,13.6,299.4,331.5,301.4
890.0,1165,16.5,13.4,82,10.95,90,13.6,299.5,331.7,301.4
889.5,1169,16.4,13.5,83,11.00,90,13.6,299.4,331.8,301.4
888.9,1174,16.3,13.5,83,10.98,89,13.6,299.4,331.7,301.4
888.4,1179,16.3,13.3,83,10.89,89,13.6,299.4,331.5,301.4
887.9,1185,16.3,13.3,82,10.85,89,13.5,299.5,331.4,301.4
887.3,1190,16.3,13.3,83,10.90,89,13.5,299.5,331.6,301.5
886.8,1195,16.2,13.5,84,11.00,89,13.5,299.5,331.9,301.5
886.2,1201,16.1,13.5,85,11.06,88,13.4,299.4,332.0,301.4
885.6,1206,16.0,13.5,85,11.05,88,13.4,299.4,331.9,301.3
885.0,1212,15.9,13.4,85,10.98,88,13.3,299.4,331.7,301.3
884.4,1218,15.9,13.3,84,10.89,87,13.2,299.4,331.5,301.4
883.8,1223,15.9,13.0,83,10.74,87,13.2,299.4,331.1,301.4
883.3,1229,16.0,12.8,81,10.55,87,13.1,299.6,330.7,301.5
882.7,1235,16.0,12.5,80,10.40,86,13.1,299.6,330.3,301.5
882.1,1240,16.0,12.4,79,10.29,86,13.0,299.7,330.1,301.6
881.6,1245,16.1,12.2,78,10.19,86,12.9,299.8,330.0,301.7
881.0,1251,16.1,12.1,77,10.14,85,12.9,299.9,329.9,301.8
880.5,1256,16.0,12.1,78,10.15,85,12.8,299.9,329.9,301.7
879.9,1261,16.0,12.1,78,10.16,85,12.8,299.9,329.9,301.7
879.4,1266,15.9,12.1,78,10.15,85,12.7,299.9,329.9,301.7
878.9,1271,15.9,12.1,78,10.15,84,12.7,299.9,329.9,301.7
878.4,1276,15.8,12.2,79,10.19,84,12.6,299.9,330.0,301.7
877.9,1281,15.8,12.2,79,10.23,84,12.6,299.9,330.1,301.7
877.4,1286,15.8,12.3,80,10.30,84,12.5,299.9,330.3,301.8
876.9,1291,15.6,12.4,81,10.37,83,12.5,299.8,330.5,301.7
876.4,1296,15.5,12.3,81,10.31,83,12.5,299.7,330.2,301.6
875.9,1300,15.5,12.2,80,10.22,83,12.4,299.8,330.0,301.6
875.4,1305,15.5,12.1,80,10.15,83,12.4,299.9,329.9,301.7
874.9,1310,15.5,11.9,79,10.08,83,12.4,299.9,329.7,301.7
874.4,1315,15.5,11.8,79,10.01,83,12.4,300.0,329.6,301.8
873.9,1320,15.5,11.8,79,10.02,83,12.4,300.0,329.7,301.8
873.4,1325,15.5,11.9,79,10.10,83,12.4,300.0,329.9,301.8
872.9,1330,15.4,11.9,80,10.09,83,12.4,300.0,329.8,301.8
872.4,1335,15.4,11.8,79,9.99,83,12.4,300.0,329.5,301.8
871.9,1339,15.3,11.5,78,9.85,83,12.4,300.0,329.2,301.8
871.4,1344,15.3,11.3,77,9.71,84,12.4,300.0,328.8,301.8
870.9,1349,15.4,11.1,76,9.60,84,12.4,300.1,328.6,301.9
870.4,1354,15.4,11.2,76,9.63,84,12.4,300.2,328.7,301.9
870.0,1358,15.3,11.4,78,9.79,84,12.4,300.2,329.2,301.9
869.5,1363,15.2,11.5,78,9.83,84,12.5,300.1,329.2,301.9
869.1,1367,15.1,11.3,78,9.73,85,12.5,300.1,328.9,301.8
868.6,1371,15.2,11.2,77,9.63,85,12.5,300.2,328.7,301.9
868.1,1376,15.2,11.1,76,9.59,85,12.5,300.3,328.7,302.0
867.7,1380,15.2,11.1,76,9.58,85,12.6,300.3,328.7,302.0
867.2,1385,15.2,11.0,76,9.58,86,12.6,300.3,328.7,302.0
866.7,1390,15.1,11.0,76,9.55,86,12.6,300.3,328.6,302.0
866.3,1394,15.1,10.9,76,9.52,86,12.7,300.3,328.5,302.0
865.9,1398,15.1,10.9,76,9.52,86,12.7,300.3,328.5,302.0
865.4,1402,15.0,11.0,77,9.54,87,12.7,300.3,328.6,302.0
865.0,1407,15.0,11.0,77,9.56,87,12.8,300.3,328.7,302.0
864.6,1411,14.9,11.0,77,9.57,87,12.8,300.3,328.7,302.0
864.2,1415,14.9,11.0,77,9.57,87,12.8,300.3,328.7,302.0
863.7,1419,14.9,11.0,78,9.58,87,12.9,300.3,328.8,302.1
863.3,1423,14.8,11.0,78,9.60,88,12.9,300.3,328.8,302.1
862.9,1428,14.8,11.0,78,9.62,88,12.9,300.3,328.9,302.1
862.4,1432,14.8,11.0,78,9.63,88,12.9,300.3,328.9,302.1
862.0,1436,14.7,11.0,78,9.61,88,13.0,300.3,328.8,302.1
861.6,1440,14.7,11.0,78,9.59,88,13.0,300.3,328.8,302.1
861.1,1445,14.6,10.9,78,9.56,88,13.0,300.3,328.7,302.1
860.7,1449,14.6,10.9,78,9.54,89,13.0,300.3,328.6,302.1
860.3,1453,14.5,10.9,79,9.54,89,13.0,300.3,328.6,302.1
859.8,1457,14.5,10.9,79,9.56,89,13.0,300.3,328.7,302.1
859.4,1462,14.5,10.9,79,9.59,89,13.0,300.4,328.8,302.1
859.0,1466,14.4,10.9,79,9.58,89,13.0,300.4,328.8,302.1
858.5,1470,14.4,10.8,79,9.55,89,13.0,300.4,328.7,302.1
858.0,1475,14.4,10.8,79,9.52,89,13.0,300.4,328.6,302.1
857.6,1480,14.3,10.8,79,9.52,89,13.0,300.4,328.6,302.1
857.1,1484,14.3,10.8,79,9.52,88,12.9,300.4,328.7,302.1
856.6,1489,14.3,10.8,80,9.52,88,12.9,300.4,328.7,302.1
856.1,1494,14.2,10.7,80,9.51,88,12.9,300.4,328.6,302.1
855.6,1499,14.2,10.7,80,9.50,88,12.9,300.4,328.6,302.1
855.2,1504,14.1,10.7,80,9.49,88,12.9,300.4,328.5,302.1
854.7,1508,14.1,10.7,80,9.47,88,12.9,300.4,328.5,302.1
854.3,1512,14.0,10.7,80,9.47,88,12.8,300.4,328.5,302.1
853.8,1517,14.0,10.7,80,9.48,87,12.8,300.4,328.5,302.1
853.4,1521,13.9,10.6,80,9.48,87,12.8,300.4,328.5,302.1
853.0,1525,13.9,10.6,81,9.47,87,12.8,300.4,328.5,302.1
852.6,1529,13.9,10.6,81,9.49,87,12.8,300.4,328.6,302.1
852.2,1533,13.8,10.7,81,9.51,87,12.7,300.4,328.6,302.1
851.8,1537,13.8,10.7,81,9.53,86,12.7,300.4,328.7,302.1
851.4,1541,13.8,10.7,82,9.53,86,12.7,300.4,328.7,302.1
851.0,1545,13.7,10.7,82,9.54,86,12.7,300.4,328.7,302.1
850.5,1549,13.7,10.7,82,9.53,86,12.6,300.4,328.7,302.1
850.1,1553,13.6,10.6,82,9.51,86,12.6,300.4,328.6,302.1
850.0,1555,13.6,10.6,82,9.51,86,12.6,300.4,328.6,302.1
849.8,1557,13.6,10.6,82,9.49,86,12.6,300.4,328.6,302.1
849.4,1561,13.6,10.6,82,9.48,86,12.6,300.4,328.5,302.1
849.0,1564,13.5,10.6,82,9.47,86,12.5,300.4,328.5,302.1
848.7,1568,13.5,10.5,82,9.47,86,12.5,300.4,328.5,302.1
848.3,1572,13.5,10.6,83,9.49,86,12.5,300.4,328.6,302.1
847.9,1575,13.4,10.6,83,9.51,86,12.4,300.4,328.6,302.1
847.6,1579,13.4,10.6,83,9.53,86,12.4,300.4,328.7,302.1
847.2,1582,13.3,10.6,84,9.53,86,12.3,300.4,328.7,302.1
846.9,1586,13.3,10.6,84,9.51,86,12.3,300.4,328.6,302.1
846.6,1589,13.3,10.6,84,9.50,87,12.3,300.4,328.6,302.1
846.2,1592,13.3,10.5,84,9.49,87,12.2,300.4,328.6,302.1
845.9,1595,13.2,10.5,84,9.48,87,12.2,300.4,328.5,302.1
845.6,1599,13.2,10.5,84,9.49,87,12.1,300.4,328.6,302.1
845.3,1602,13.2,10.6,84,9.51,88,12.1,300.4,328.6,302.1
844.9,1605,13.1,10.6,84,9.52,88,12.1,300.4,328.7,302.1
844.6,1608,13.1,10.6,85,9.52,89,12.1,300.4,328.7,302.1
844.3,1611,13.1,10.5,85,9.52,89,12.0,300.4,328.7,302.1
844.0,1615,13.1,10.5,85,9.50,90,12.0,300.4,328.6,302.1
843.7,1618,13.0,10.5,84,9.48,90,12.0,300.4,328.6,302.1
843.3,1621,13.0,10.5,84,9.48,91,12.0,300.4,328.6,302.2
843.0,1624,13.0,10.5,85,9.49,91,12.0,300.4,328.6,302.2
842.7,1628,13.0,10.5,85,9.50,92,12.0,300.4,328.6,302.2
842.3,1632,12.9,10.5,85,9.53,92,12.1,300.5,328.7,302.2
841.9,1635,12.9,10.6,86,9.58,93,12.1,300.5,328.9,302.2
841.5,1640,12.9,10.7,87,9.65,93,12.1,300.5,329.1,302.2
841.1,1644,12.7,10.8,88,9.72,93,12.2,300.4,329.2,302.1
840.6,1648,12.6,10.9,89,9.77,94,12.2,300.3,329.3,302.1
840.2,1653,12.6,11.0,90,9.87,94,12.3,300.3,329.5,302.1
839.7,1657,12.5,11.2,92,10.02,94,12.3,300.2,329.9,302.0
839.3,1661,12.4,11.5,94,10.21,95,12.4,300.2,330.4,302.0
838.8,1666,12.4,11.5,95,10.23,95,12.5,300.2,330.5,302.1
838.4,1671,12.3,11.3,94,10.09,95,12.5,300.2,330.1,302.0
837.9,1675,12.2,10.9,91,9.81,95,12.6,300.2,329.2,302.0
837.4,1680,12.3,10.4,88,9.49,95,12.7,300.3,328.5,302.0
836.9,1685,12.5,10.4,87,9.48,96,12.7,300.5,328.7,302.2
836.5,1690,12.4,10.7,90,9.72,96,12.8,300.5,329.3,302.2
836.0,1695,12.2,11.0,92,9.91,96,12.8,300.4,329.7,302.2
835.5,1700,12.2,11.2,93,10.02,96,12.9,300.4,330.1,302.2
835.0,1705,12.1,11.4,96,10.18,95,12.9,300.3,330.4,302.1
834.5,1710,11.9,11.5,97,10.25,95,13.0,300.2,330.5,302.1
834.0,1714,11.9,11.2,96,10.10,95,13.0,300.2,330.1,302.0
833.6,1719,11.9,10.9,94,9.85,95,13.0,300.2,329.4,302.0
833.1,1724,11.9,10.4,91,9.58,95,13.0,300.3,328.8,302.1
832.7,1728,12.0,10.2,89,9.44,95,13.0,300.5,328.5,302.2
832.2,1732,12.0,10.2,89,9.42,94,13.1,300.5,328.5,302.2
831.8,1737,12.0,10.1,88,9.40,94,13.1,300.5,328.4,302.2
831.4,1741,12.0,10.0,88,9.32,94,13.1,300.6,328.3,302.3
830.9,1745,12.0,9.9,87,9.28,94,13.0,300.6,328.2,302.3
830.5,1750,12.0,9.9,87,9.28,93,13.0,300.6,328.2,302.3
830.1,1754,11.9,10.0,88,9.30,93,13.0,300.6,328.3,302.3
829.6,1759,11.9,10.0,88,9.32,93,13.0,300.7,328.4,302.3
829.1,1764,11.8,10.0,88,9.33,92,13.0,300.7,328.4,302.4
828.7,1769,11.8,10.0,89,9.35,92,12.9,300.7,328.5,302.4
828.2,1774,11.8,10.0,89,9.36,92,12.9,300.7,328.5,302.4
827.7,1779,11.7,10.0,89,9.33,91,12.9,300.7,328.4,302.4
827.1,1784,11.7,9.9,89,9.29,91,12.8,300.7,328.3,302.4
826.6,1789,11.6,9.8,89,9.25,91,12.8,300.7,328.2,302.4
826.1,1794,11.6,9.8,89,9.23,90,12.7,300.7,328.1,302.4
825.6,1799,11.5,9.8,89,9.24,90,12.7,300.7,328.2,302.4
825.1,1805,11.5,9.8,89,9.26,90,12.6,300.7,328.2,302.4
824.6,1810,11.4,9.8,90,9.26,89,12.6,300.7,328.2,302.3
824.1,1815,11.4,9.8,90,9.25,89,12.5,300.7,328.2,302.4
