PRES,HGHT,TEMP,DWPT,RELH,MIXR,DRCT,SPED,THTA,THTE,THTV
1012.4,31,26.0,21.2,75,15.89,100,3.4,298.1,344.4,300.9
1012.0,34,25.5,20.8,75,15.49,93,2.0,297.7,342.8,300.4
1011.5,39,24.9,20.7,78,15.36,87,1.6,297.0,341.6,299.8
1011.1,42,24.4,20.4,78,15.11,85,1.5,296.6,340.4,299.3
1010.0,52,24.2,20.2,78,14.92,86,1.7,296.5,339.7,299.2
1009.1,59,24.2,20.0,78,14.75,88,1.8,296.5,339.2,299.2
1008.5,64,24.1,19.8,77,14.58,89,2.0,296.5,338.8,299.1
1008.1,68,24.1,19.7,77,14.47,90,2.1,296.5,338.4,299.1
1007.5,73,24.0,19.6,76,14.40,91,2.2,296.5,338.2,299.1
1006.9,79,24.0,19.6,76,14.36,92,2.3,296.5,338.1,299.1
1006.2,84,23.9,19.5,77,14.36,93,2.4,296.5,338.2,299.1
1005.6,90,23.9,19.5,77,14.37,94,2.5,296.5,338.2,299.1
1004.9,96,23.8,19.5,77,14.36,95,2.6,296.5,338.2,299.1
1004.3,101,23.7,19.5,77,14.36,96,2.7,296.5,338.1,299.1
1003.7,107,23.7,19.5,77,14.35,96,2.8,296.5,338.1,299.1
1003.0,112,23.6,19.5,77,14.34,97,2.9,296.5,338.1,299.1
1002.4,117,23.6,19.5,78,14.34,98,3.0,296.5,338.1,299.1
1001.8,123,23.6,19.5,78,14.36,99,3.0,296.5,338.2,299.1
1001.2,128,23.5,19.5,78,14.40,100,3.1,296.6,338.3,299.1
1000.6,133,23.5,19.5,79,14.42,100,3.2,296.6,338.3,299.1
1000.0,139,23.4,19.5,79,14.43,102,3.3,296.6,338.4,299.1
999.4,144,23.3,19.5,79,14.43,102,3.3,296.5,338.3,299.1
998.8,149,23.3,19.5,79,14.43,103,3.4,296.5,338.4,299.1
998.2,154,23.2,19.5,79,14.43,103,3.4,296.5,338.3,299.1
997.6,159,23.2,19.5,80,14.43,104,3.5,296.5,338.3,299.1
997.1,164,23.1,19.5,80,14.45,105,3.5,296.5,338.4,299.1
996.5,169,23.1,19.5,80,14.44,105,3.6,296.5,338.4,299.1
996.0,174,23.1,19.4,80,14.42,106,3.6,296.5,338.3,299.1
995.4,179,23.0,19.4,80,14.41,107,3.6,296.6,338.3,299.1
994.9,183,23.0,19.4,80,14.38,107,3.7,296.6,338.2,299.1
994.4,188,22.9,19.3,80,14.35,108,3.7,296.6,338.1,299.1
993.9,192,22.9,19.3,80,14.36,108,3.7,296.5,338.2,299.1
993.4,197,22.8,19.4,81,14.39,109,3.7,296.6,338.2,299.1
992.9,201,22.8,19.4,81,14.40,110,3.7,296.6,338.3,299.1
992.4,206,22.8,19.4,81,14.43,110,3.7,296.6,338.4,299.1
991.8,210,22.7,19.3,81,14.36,111,3.7,296.6,338.2,299.1
991.3,215,22.7,19.2,80,14.23,111,3.7,296.6,337.8,299.1
990.7,220,22.7,19.1,80,14.18,112,3.7,296.6,337.7,299.1
990.1,225,22.6,18.9,79,14.00,113,3.7,296.6,337.2,299.1
989.6,230,22.7,18.5,77,13.64,113,3.6,296.7,336.3,299.1
989.0,235,22.7,18.0,75,13.24,114,3.6,296.8,335.3,299.2
988.4,240,22.8,17.8,73,13.07,114,3.6,296.9,334.9,299.2
987.9,245,22.8,17.8,74,13.09,115,3.5,296.9,335.0,299.3
987.4,250,22.7,17.8,74,13.13,115,3.5,296.9,335.1,299.3
986.9,254,22.7,17.8,74,13.13,116,3.4,296.9,335.1,299.3
986.4,259,22.7,17.8,74,13.12,117,3.4,297.0,335.1,299.3
985.9,263,22.6,17.8,74,13.15,118,3.3,297.0,335.2,299.3
985.4,267,22.6,17.9,75,13.18,119,3.3,297.0,335.3,299.3
985.0,271,22.5,17.8,75,13.17,120,3.2,296.9,335.2,299.3
984.5,275,22.5,17.8,75,13.10,121,3.1,297.0,335.0,299.3
984.0,280,22.5,17.6,74,13.00,122,3.1,297.0,334.8,299.3
983.5,284,22.4,17.6,74,12.95,123,3.0,297.0,334.6,299.3
983.0,289,22.4,17.6,74,12.95,124,3.0,297.0,334.6,299.3
982.5,293,22.4,17.6,74,12.96,126,2.9,297.0,334.7,299.3
981.9,298,22.3,17.6,74,12.97,127,2.9,297.0,334.7,299.3
981.4,302,22.3,17.6,75,12.98,129,2.9,297.0,334.8,299.3
980.9,307,22.2,17.6,75,12.99,131,2.9,297.0,334.8,299.3
980.4,312,22.2,17.6,75,13.01,133,2.9,297.0,334.8,299.3
979.9,316,22.1,17.6,75,13.02,134,2.9,297.0,334.8,299.3
979.3,321,22.1,17.5,75,12.98,136,2.9,297.0,334.7,299.3
978.8,325,22.1,17.5,75,12.96,138,2.9,297.0,334.7,299.3
978.3,330,22.0,17.5,76,12.98,140,3.0,297.0,334.7,299.3
977.8,334,22.0,17.5,76,13.01,142,3.0,297.0,334.8,299.3
977.3,339,21.9,17.6,76,13.03,143,3.1,297.0,334.9,299.3
976.9,343,21.9,17.5,76,13.00,145,3.1,297.0,334.8,299.3
976.4,347,21.8,17.5,76,12.95,147,3.2,297.0,334.7,299.3
975.9,352,21.8,17.4,76,12.89,148,3.3,297.0,334.5,299.3
975.4,356,21.8,17.2,75,12.79,149,3.4,297.0,334.2,299.3
974.9,360,21.8,17.1,75,12.69,151,3.5,297.1,334.0,299.3
974.5,364,21.8,17.0,75,12.64,152,3.6,297.1,333.9,299.3
974.0,369,21.7,17.0,75,12.62,153,3.7,297.1,333.8,299.3
973.5,373,21.7,16.9,74,12.53,153,3.8,297.1,333.6,299.3
973.1,377,21.7,16.8,74,12.46,154,3.9,297.1,333.4,299.4
972.6,381,21.7,16.8,74,12.44,155,4.0,297.2,333.4,299.4
972.2,385,21.7,16.8,74,12.45,156,4.1,297.2,333.4,299.4
971.7,389,21.7,16.8,74,12.52,156,4.2,297.2,333.7,299.5
971.3,392,21.6,16.9,74,12.55,157,4.2,297.2,333.8,299.5
970.9,396,21.6,16.9,74,12.53,157,4.3,297.2,333.7,299.5
970.5,400,21.6,16.8,74,12.50,158,4.3,297.3,333.7,299.5
970.1,403,21.6,16.8,74,12.48,158,4.4,297.3,333.6,299.5
969.7,407,21.5,16.7,74,12.46,158,4.4,297.3,333.6,299.5
969.2,411,21.5,16.7,74,12.45,159,4.4,297.3,333.6,299.5
968.8,415,21.5,16.7,74,12.42,159,4.4,297.3,333.5,299.5
968.3,419,21.5,16.6,74,12.38,159,4.4,297.3,333.4,299.5
967.8,424,21.4,16.6,74,12.35,160,4.3,297.3,333.3,299.5
967.3,428,21.4,16.5,74,12.32,160,4.3,297.4,333.2,299.5
966.8,433,21.4,16.5,74,12.28,160,4.2,297.4,333.1,299.5
966.3,437,21.3,16.5,74,12.27,161,4.1,297.4,333.1,299.6
965.8,442,21.3,16.5,74,12.28,161,4.1,297.4,333.2,299.6
965.3,446,21.2,16.4,74,12.28,161,4.0,297.4,333.2,299.6
964.8,451,21.2,16.4,74,12.27,162,3.8,297.4,333.1,299.6
964.3,455,21.2,16.4,74,12.27,162,3.7,297.4,333.1,299.6
963.8,460,21.1,16.4,74,12.24,162,3.6,297.4,333.0,299.6
963.3,464,21.1,16.3,74,12.22,163,3.5,297.4,333.0,299.6
962.8,469,21.0,16.3,75,12.23,163,3.4,297.4,333.0,299.6
962.3,473,21.0,16.4,75,12.24,164,3.2,297.4,333.1,299.6
961.9,478,21.0,16.4,75,12.27,164,3.1,297.4,333.2,299.6
961.3,482,20.9,16.4,75,12.28,165,3.0,297.4,333.2,299.6
960.8,487,20.9,16.4,75,12.29,165,2.8,297.4,333.3,299.6
960.3,491,20.9,16.4,75,12.29,166,2.7,297.4,333.3,299.6
959.8,496,20.8,16.3,75,12.25,167,2.6,297.4,333.2,299.6
959.3,501,20.8,16.2,75,12.20,168,2.5,297.5,333.0,299.6
958.7,506,20.8,16.2,75,12.13,169,2.4,297.5,332.9,299.7
958.2,510,20.8,16.1,75,12.11,170,2.3,297.5,332.8,299.7
957.7,515,20.8,16.1,75,12.10,171,2.2,297.6,332.9,299.7
957.2,520,20.8,16.1,75,12.09,172,2.2,297.6,332.9,299.8
956.7,525,20.7,16.0,74,12.04,173,2.1,297.6,332.8,299.8
956.1,529,20.7,15.9,74,11.93,174,2.1,297.7,332.5,299.8
955.6,534,20.7,15.6,73,11.78,175,2.0,297.7,332.1,299.8
955.0,539,20.7,15.4,72,11.61,177,2.0,297.7,331.7,299.8
954.5,544,20.7,15.2,71,11.47,178,1.9,297.8,331.3,299.8
953.9,549,20.7,15.1,70,11.38,179,1.9,297.8,331.1,299.9
953.4,554,20.7,15.0,70,11.30,180,1.9,297.9,330.9,299.9
952.8,559,20.7,14.9,69,11.25,181,1.9,298.0,330.9,300.0
952.3,564,20.7,14.9,69,11.23,182,1.9,298.0,330.9,300.0
951.8,568,20.7,14.8,69,11.20,182,1.9,298.0,330.8,300.1
951.3,573,20.7,14.7,69,11.15,183,1.9,298.1,330.7,300.1
950.9,577,20.7,14.7,68,11.11,184,1.9,298.1,330.7,300.1
950.4,581,20.7,14.7,68,11.11,184,1.9,298.1,330.7,300.1
950.0,585,20.7,14.7,68,11.10,185,1.9,298.1,330.7,300.1
949.5,590,20.6,14.6,68,11.07,185,1.9,298.2,330.6,300.1
949.0,594,20.6,14.6,68,11.06,186,1.9,298.2,330.6,300.1
948.4,599,20.6,14.6,69,11.07,187,1.9,298.2,330.6,300.2
947.9,604,20.5,14.6,69,11.08,187,1.9,298.2,330.7,300.2
947.3,610,20.5,14.6,69,11.10,188,1.9,298.2,330.7,300.2
946.7,615,20.4,14.6,69,11.11,188,1.9,298.2,330.7,300.2
946.1,620,20.4,14.6,69,11.10,189,1.9,298.2,330.7,300.2
945.5,626,20.3,14.6,69,11.08,189,1.9,298.2,330.7,300.2
944.9,631,20.3,14.6,70,11.10,190,1.9,298.2,330.7,300.2
944.4,637,20.2,14.6,70,11.13,191,1.8,298.2,330.8,300.2
943.8,642,20.2,14.7,71,11.18,192,1.8,298.2,331.0,300.2
943.2,647,20.1,14.7,71,11.24,193,1.8,298.2,331.1,300.2
942.6,653,20.1,14.7,71,11.23,194,1.8,298.2,331.1,300.2
942.0,658,20.0,14.6,71,11.18,195,1.8,298.2,330.9,300.2
941.4,664,19.9,14.6,71,11.15,197,1.7,298.2,330.8,300.2
940.8,669,19.9,14.6,71,11.15,198,1.7,298.2,330.9,300.2
940.2,674,19.9,14.6,72,11.20,200,1.7,298.2,331.0,300.2
939.7,679,19.8,14.6,72,11.22,202,1.7,298.2,331.1,300.2
939.2,684,19.8,14.6,72,11.20,204,1.6,298.2,331.0,300.2
938.6,689,19.7,14.6,72,11.19,206,1.6,298.2,331.0,300.2
938.1,694,19.7,14.6,72,11.19,208,1.6,298.2,331.0,300.2
937.6,699,19.6,14.7,73,11.26,210,1.6,298.2,331.2,300.2
937.0,704,19.6,14.8,74,11.37,212,1.6,298.2,331.5,300.3
936.5,709,19.5,15.0,75,11.53,214,1.6,298.2,332.0,300.3
936.0,714,19.5,15.2,76,11.67,216,1.7,298.2,332.4,300.3
935.4,719,19.4,15.3,77,11.73,218,1.7,298.2,332.5,300.3
934.9,724,19.4,15.3,77,11.74,220,1.7,298.2,332.6,300.3
934.3,729,19.4,15.3,78,11.81,221,1.7,298.2,332.8,300.4
933.7,734,19.3,15.5,78,11.92,222,1.7,298.3,333.1,300.4
933.2,739,19.3,15.5,79,11.94,224,1.8,298.3,333.2,300.4
932.6,745,19.3,15.4,78,11.88,225,1.8,298.3,333.1,300.4
932.0,750,19.2,15.3,78,11.80,226,1.8,298.3,332.9,300.4
931.5,755,19.2,15.2,77,11.73,226,1.8,298.3,332.7,300.4
930.9,760,19.2,15.1,77,11.69,227,1.9,298.4,332.6,300.5
930.3,766,19.2,15.1,77,11.67,227,1.9,298.4,332.6,300.5
929.8,771,19.1,15.1,77,11.66,227,1.9,298.4,332.6,300.5
929.2,776,19.1,15.0,77,11.64,227,1.9,298.5,332.6,300.5
928.6,782,19.1,15.0,77,11.63,227,1.9,298.5,332.6,300.6
928.0,787,19.1,14.9,77,11.58,227,1.9,298.5,332.5,300.6
927.4,793,19.0,14.8,76,11.49,226,2.0,298.5,332.2,300.6
926.8,798,19.0,14.7,76,11.45,226,2.0,298.6,332.1,300.6
926.2,804,18.9,14.7,76,11.45,225,2.0,298.6,332.1,300.6
925.6,809,18.9,14.7,77,11.42,224,2.0,298.6,332.1,300.6
925.0,815,18.8,14.6,77,11.40,221,2.0,298.6,332.0,300.6
924.4,821,18.8,14.6,77,11.40,221,2.0,298.6,332.0,300.6
923.8,826,18.7,14.6,77,11.39,220,2.0,298.6,332.0,300.6
923.2,832,18.7,14.6,77,11.37,218,2.0,298.6,331.9,300.6
922.6,837,18.7,14.5,77,11.35,216,2.1,298.6,331.9,300.6
922.1,843,18.6,14.5,77,11.32,214,2.1,298.6,331.8,300.6
921.5,848,18.6,14.4,77,11.29,212,2.1,298.6,331.8,300.7
920.9,853,18.5,14.4,77,11.26,210,2.1,298.6,331.7,300.7
920.4,858,18.5,14.4,77,11.24,208,2.2,298.6,331.6,300.7
919.9,863,18.5,14.3,77,11.23,205,2.2,298.6,331.6,300.7
919.3,868,18.4,14.3,77,11.18,203,2.3,298.7,331.5,300.7
918.8,873,18.4,14.1,76,11.11,201,2.3,298.7,331.3,300.7
918.2,878,18.4,14.0,75,11.03,200,2.4,298.8,331.2,300.8
917.7,883,18.4,14.0,75,10.99,198,2.4,298.8,331.1,300.8
917.1,889,18.4,14.0,75,11.01,196,2.5,298.8,331.2,300.8
916.6,894,18.4,14.0,76,11.05,195,2.5,298.8,331.3,300.8
916.0,899,18.3,14.0,76,11.04,193,2.6,298.8,331.3,300.8
915.4,905,18.3,14.0,76,11.01,192,2.6,298.9,331.2,300.8
914.8,910,18.2,13.9,76,10.97,191,2.7,298.9,331.1,300.8
914.2,916,18.2,13.8,76,10.92,190,2.7,298.9,331.0,300.8
913.7,921,18.1,13.8,76,10.91,189,2.7,298.9,331.0,300.8
913.2,926,18.1,13.8,76,10.92,188,2.7,298.9,331.0,300.8
912.6,931,18.0,13.8,76,10.91,187,2.7,298.9,331.0,300.9
912.1,936,18.0,13.7,76,10.88,186,2.7,298.9,330.9,300.9
911.6,941,18.0,13.7,76,10.84,185,2.7,298.9,330.8,300.9
911.1,945,17.9,13.6,76,10.80,184,2.7,298.9,330.7,300.9
910.6,950,17.9,13.5,75,10.75,184,2.7,298.9,330.6,300.9
910.1,955,17.9,13.5,75,10.71,183,2.6,299.0,330.5,300.9
909.6,959,17.8,13.4,75,10.70,182,2.6,299.0,330.4,300.9
909.1,964,17.8,13.4,75,10.69,181,2.5,299.0,330.4,300.9
908.7,968,17.8,13.4,75,10.68,181,2.5,299.0,330.4,300.9
908.2,972,17.8,13.4,75,10.67,180,2.4,299.0,330.4,300.9
907.8,976,17.7,13.3,75,10.66,179,2.3,299.0,330.4,300.9
907.3,981,17.7,13.3,76,10.67,178,2.3,299.0,330.4,300.9
906.9,985,17.6,13.3,76,10.67,177,2.2,299.0,330.4,300.9
906.4,989,17.6,13.4,76,10.69,175,2.2,299.0,330.5,301.0
906.0,994,17.6,13.4,77,10.71,174,2.2,299.0,330.5,300.9
905.5,998,17.5,13.4,77,10.72,173,2.1,299.0,330.5,300.9
905.0,1003,17.5,13.4,77,10.72,171,2.1,299.0,330.6,300.9
904.5,1007,17.4,13.4,77,10.73,170,2.1,299.0,330.6,301.0
904.0,1012,17.4,13.4,77,10.72,168,2.1,299.0,330.6,301.0
903.5,1017,17.4,13.3,77,10.67,167,2.1,299.1,330.5,301.0
903.0,1022,17.4,13.1,76,10.55,165,2.1,299.1,330.2,301.0
902.5,1026,17.4,12.9,75,10.38,164,2.1,299.2,329.8,301.1
902.0,1031,17.5,12.6,73,10.22,162,2.2,299.3,329.4,301.1
901.5,1036,17.5,12.5,73,10.18,161,2.2,299.4,329.4,301.2
901.0,1041,17.5,12.6,73,10.20,160,2.3,299.4,329.5,301.2
900.5,1046,17.4,12.6,73,10.21,159,2.4,299.4,329.5,301.3
899.9,1051,17.4,12.6,73,10.21,158,2.5,299.4,329.5,301.3
899.4,1056,17.3,12.5,73,10.21,157,2.6,299.4,329.5,301.3
898.9,1061,17.3,12.5,73,10.19,156,2.7,299.4,329.5,301.3
898.4,1066,17.3,12.5,73,10.17,156,2.8,299.4,329.5,301.3
897.8,1071,17.2,12.4,73,10.15,155,2.9,299.5,329.4,301.3
897.3,1076,17.2,12.4,73,10.11,155,3.0,299.5,329.3,301.3
896.8,1081,17.1,12.3,73,10.05,155,3.1,299.5,329.1,301.3
896.3,1086,17.1,12.2,73,10.00,155,3.2,299.5,329.0,301.3
895.7,1091,17.1,12.1,73,9.95,155,3.4,299.5,328.9,301.3
895.2,1096,17.0,12.0,72,9.91,155,3.5,299.5,328.8,301.3
894.6,1102,17.0,11.9,72,9.84,155,3.6,299.5,328.6,301.3
894.0,1107,17.0,11.7,71,9.73,155,3.7,299.6,328.4,301.3
893.5,1113,17.0,11.7,71,9.69,155,3.8,299.6,328.3,301.4
892.9,1118,17.0,11.7,71,9.71,156,3.9,299.7,328.4,301.4
892.3,1123,16.9,11.7,71,9.72,156,3.9,299.7,328.4,301.4
891.8,1129,16.9,11.6,71,9.67,157,4.0,299.7,328.3,301.4
891.2,1134,16.9,11.5,71,9.62,157,4.1,299.7,328.2,301.4
890.7,1139,16.8,11.5,71,9.62,158,4.1,299.7,328.2,301.5
890.2,1143,16.8,11.6,71,9.66,158,4.1,299.7,328.3,301.5
889.7,1148,16.7,11.6,72,9.70,159,4.2,299.7,328.4,301.5
889.3,1153,16.7,11.7,72,9.73,160,4.2,299.7,328.5,301.5
888.8,1157,16.6,11.7,72,9.75,161,4.2,299.7,328.5,301.5
888.4,1161,16.6,11.7,73,9.76,162,4.2,299.7,328.6,301.5
887.9,1166,16.6,11.7,73,9.78,162,4.2,299.7,328.7,301.5
887.5,1170,16.5,11.7,73,9.80,163,4.2,299.7,328.7,301.5
887.0,1175,16.5,11.7,74,9.81,164,4.2,299.7,328.7,301.5
886.5,1180,16.4,11.8,74,9.83,165,4.2,299.7,328.8,301.5
885.9,1185,16.4,11.8,74,9.86,165,4.1,299.7,328.9,301.5
885.4,1190,16.3,11.8,75,9.88,166,4.1,299.7,328.9,301.5
884.8,1196,16.3,11.9,75,9.94,167,4.0,299.7,329.1,301.5
884.2,1202,16.2,12.0,76,10.04,167,4.0,299.7,329.4,301.5
883.6,1208,16.1,12.2,77,10.14,168,4.0,299.7,329.6,301.5
883.0,1213,16.1,12.2,78,10.15,168,3.9,299.7,329.7,301.5
882.4,1219,16.0,12.1,77,10.09,168,3.9,299.7,329.5,301.5
881.8,1225,16.0,12.0,77,10.01,168,3.8,299.7,329.3,301.5
881.2,1230,15.9,11.9,77,9.98,168,3.7,299.7,329.2,301.5
880.7,1235,15.9,12.2,79,10.17,167,3.7,299.7,329.8,301.6
880.1,1241,15.8,12.5,81,10.39,166,3.6,299.7,330.4,301.6
879.6,1246,15.8,12.5,81,10.43,166,3.6,299.7,330.5,301.6
879.1,1251,15.7,12.4,81,10.36,165,3.6,299.7,330.3,301.6
878.5,1256,15.7,12.3,80,10.30,163,3.5,299.7,330.1,301.6
878.0,1261,15.6,12.3,80,10.27,162,3.5,299.7,330.0,301.6
877.5,1266,15.6,12.2,80,10.26,161,3.5,299.7,330.0,301.6
877.0,1271,15.6,12.2,81,10.25,159,3.4,299.7,330.0,301.6
876.5,1276,15.5,12.2,81,10.25,157,3.4,299.7,330.0,301.6
876.0,1281,15.5,12.2,81,10.28,155,3.4,299.7,330.1,301.6
875.5,1286,15.4,12.3,82,10.32,153,3.4,299.8,330.2,301.6
874.9,1291,15.4,12.3,82,10.36,151,3.5,299.8,330.4,301.6
874.4,1296,15.3,12.3,82,10.36,150,3.5,299.7,330.4,301.6
873.9,1301,15.3,12.3,82,10.35,148,3.5,299.7,330.3,301.6
873.3,1307,15.2,12.3,82,10.32,146,3.5,299.8,330.2,301.6
872.8,1312,15.2,12.2,82,10.30,145,3.6,299.8,330.2,301.6
872.3,1317,15.2,12.2,83,10.29,143,3.6,299.8,330.2,301.6
871.8,1322,15.1,12.2,83,10.30,142,3.7,299.8,330.2,301.6
871.3,1327,15.1,12.2,83,10.28,140,3.7,299.8,330.1,301.6
870.8,1332,15.0,12.1,83,10.22,139,3.8,299.8,330.0,301.6
870.3,1336,15.0,12.0,82,10.15,138,3.8,299.8,329.8,301.6
869.8,1341,15.0,11.9,82,10.12,137,3.8,299.8,329.7,301.6
869.3,1345,14.9,12.0,82,10.16,136,3.9,299.8,329.8,301.7
868.9,1350,14.9,12.0,83,10.22,136,3.9,299.8,330.0,301.7
868.4,1355,14.8,12.1,84,10.28,135,3.9,299.8,330.2,301.7
868.0,1359,14.8,12.1,84,10.30,134,3.9,299.8,330.2,301.7
867.5,1364,14.7,12.1,84,10.28,134,3.9,299.8,330.2,301.7
867.0,1368,14.7,12.0,84,10.24,134,3.9,299.8,330.1,301.7
866.5,1373,14.6,12.0,84,10.23,133,3.9,299.8,330.0,301.7
866.1,1378,14.6,12.0,84,10.24,133,3.8,299.8,330.1,301.7
865.6,1382,14.6,12.0,85,10.25,133,3.8,299.8,330.1,301.7
865.1,1387,14.5,12.0,85,10.24,133,3.7,299.8,330.1,301.7
864.7,1391,14.5,11.9,85,10.21,133,3.6,299.8,330.0,301.7
864.2,1396,14.5,11.9,84,10.16,133,3.5,299.8,329.9,301.7
863.8,1400,14.4,11.8,84,10.13,133,3.4,299.9,329.8,301.7
863.4,1404,14.4,11.8,84,10.14,133,3.3,299.9,329.8,301.7
863.0,1408,14.4,11.9,85,10.17,134,3.2,299.9,329.9,301.7
862.5,1412,14.3,11.9,85,10.19,134,3.1,299.9,330.0,301.7
862.1,1416,14.3,11.9,85,10.20,135,3.0,299.9,330.0,301.7
861.7,1420,14.3,11.9,86,10.19,136,2.9,299.9,330.0,301.7
861.3,1425,14.2,11.9,86,10.19,137,2.8,299.9,330.0,301.7
860.8,1429,14.2,11.9,86,10.19,138,2.7,299.9,330.0,301.7
860.4,1433,14.1,11.9,86,10.20,139,2.6,299.9,330.0,301.7
860.0,1437,14.1,11.9,86,10.20,141,2.5,299.9,330.1,301.8
859.5,1442,14.1,11.8,86,10.19,143,2.4,299.9,330.0,301.8
859.1,1446,14.1,11.8,86,10.18,145,2.3,299.9,330.0,301.8
858.6,1451,14.1,11.7,86,10.14,147,2.2,300.0,330.0,301.8
858.1,1456,14.0,11.7,86,10.10,150,2.1,300.0,329.9,301.8
857.7,1460,14.0,11.6,85,10.05,152,2.1,300.1,329.8,301.9
857.2,1465,14.0,11.5,85,10.02,155,2.0,300.1,329.7,301.9
856.7,1469,14.0,11.5,85,10.01,158,2.0,300.1,329.7,301.9
856.3,1474,14.0,11.5,85,10.03,161,2.0,300.1,329.8,301.9
855.8,1478,13.9,11.6,86,10.06,163,2.0,300.1,329.9,301.9
855.4,1483,13.9,11.6,86,10.08,166,2.0,300.1,330.0,301.9
854.9,1487,13.9,11.6,86,10.08,168,2.0,300.1,330.0,302.0
854.4,1492,13.8,11.5,86,10.04,171,2.0,300.2,329.9,302.0
853.9,1497,13.8,11.4,85,9.99,173,2.0,300.2,329.8,302.0
853.4,1502,13.8,11.4,85,9.95,175,2.0,300.2,329.7,302.0
852.9,1507,13.8,11.3,85,9.93,177,2.0,300.3,329.7,302.1
852.4,1512,13.7,11.3,85,9.92,179,2.0,300.3,329.7,302.1
851.8,1518,13.7,11.2,85,9.89,182,2.1,300.3,329.6,302.1
851.3,1523,13.6,11.2,85,9.88,184,2.1,300.3,329.6,302.1
850.8,1528,13.6,11.2,86,9.89,186,2.1,300.3,329.6,302.1
850.3,1533,13.5,11.2,86,9.88,188,2.1,300.3,329.6,302.1
850.0,1536,13.5,11.2,86,9.86,188,2.1,300.3,329.5,302.1
849.8,1538,13.5,11.2,86,9.85,191,2.1,300.3,329.5,302.1
849.3,1543,13.4,11.1,86,9.84,193,2.1,300.3,329.4,302.1
848.8,1548,13.4,11.1,86,9.86,195,2.1,300.3,329.5,302.1
848.3,1553,13.3,11.1,86,9.85,198,2.2,300.3,329.5,302.1
847.8,1558,13.3,11.1,86,9.83,200,2.2,300.3,329.4,302.1
847.3,1562,13.3,11.0,86,9.78,203,2.2,300.3,329.3,302.1
846.9,1567,13.2,11.0,86,9.77,205,2.3,300.3,329.2,302.1
846.5,1571,13.2,11.0,86,9.77,208,2.3,300.3,329.3,302.1
846.0,1575,13.2,11.0,87,9.80,210,2.3,300.3,329.4,302.1
845.6,1579,13.1,11.1,87,9.83,212,2.4,300.3,329.5,302.1
845.2,1583,13.1,11.0,87,9.82,214,2.5,300.3,329.4,302.1
844.9,1587,13.0,10.9,87,9.74,216,2.5,300.3,329.2,302.1
844.5,1591,13.0,10.6,85,9.57,217,2.6,300.3,328.7,302.0
844.1,1595,13.0,10.2,83,9.28,219,2.6,300.4,327.9,302.1
843.7,1599,13.1,9.8,81,9.05,220,2.7,300.5,327.3,302.1
843.3,1603,13.1,9.7,80,9.00,221,2.7,300.5,327.3,302.2
842.8,1607,13.1,9.7,80,9.03,221,2.8,300.6,327.4,302.2
842.4,1612,13.1,9.7,80,9.01,222,2.9,300.6,327.4,302.2
842.0,1616,13.0,9.6,80,8.96,222,2.9,300.6,327.3,302.2
841.5,1620,13.0,9.6,80,8.94,222,2.9,300.6,327.3,302.3
841.1,1625,13.0,9.6,80,8.95,222,3.0,300.7,327.3,302.3
840.7,1629,13.0,9.6,80,8.94,222,3.0,300.7,327.3,302.3
840.3,1633,13.0,9.5,79,8.88,222,3.0,300.7,327.2,302.3
839.9,1637,13.0,9.3,78,8.79,222,3.0,300.8,327.0,302.4
839.5,1641,13.1,9.2,77,8.71,222,3.0,300.9,326.8,302.5
839.1,1645,13.1,9.0,76,8.63,221,3.0,300.9,326.7,302.5
838.7,1649,13.1,8.9,76,8.56,221,3.0,301.0,326.6,302.6
838.3,1653,13.1,8.9,75,8.55,220,3.0,301.1,326.6,302.6
837.9,1657,13.1,9.0,76,8.61,220,3.0,301.1,326.8,302.6
837.5,1661,13.1,9.1,77,8.70,220,3.0,301.1,327.1,302.7
837.1,1665,13.0,9.2,78,8.78,219,3.0,301.1,327.3,302.7
836.7,1669,13.0,9.3,78,8.83,219,3.0,301.1,327.4,302.7
836.3,1673,13.0,9.4,79,8.87,219,2.9,301.1,327.6,302.7
836.0,1676,13.0,9.4,79,8.89,218,2.9,301.2,327.7,302.8
835.6,1680,13.0,9.5,79,8.94,218,2.9,301.2,327.9,302.8
835.2,1684,13.0,9.6,80,9.03,218,2.8,301.2,328.1,302.9
834.8,1688,13.0,9.7,81,9.09,218,2.8,301.3,328.4,302.9
834.4,1692,12.9,9.8,81,9.15,218,2.8,301.3,328.6,302.9
834.1,1695,12.9,10.0,82,9.27,219,2.8,301.3,328.9,303.0
833.7,1699,12.9,10.1,83,9.35,219,2.7,301.3,329.2,303.0
833.3,1703,12.9,10.1,83,9.39,219,2.7,301.3,329.3,303.0
832.9,1707,12.8,10.2,84,9.42,220,2.7,301.3,329.4,303.0
832.5,1711,12.8,10.2,84,9.43,220,2.6,301.3,329.4,303.0
832.1,1715,12.8,10.2,84,9.42,221,2.6,301.3,329.4,303.0
831.7,1719,12.7,10.1,84,9.35,221,2.6,301.3,329.2,303.0
831.3,1723,12.7,9.8,83,9.22,222,2.6,301.4,328.9,303.1
830.9,1728,12.7,9.4,80,8.97,223,2.6,301.4,328.2,303.1
830.5,1732,12.8,8.9,77,8.62,224,2.5,301.5,327.3,303.1
830.1,1736,12.8,8.2,73,8.23,225,2.5,301.6,326.2,303.1
