PRES,HGHT,TEMP,DWPT,RELH,MIXR,DRCT,SPED,THTA,THTE,THTV
1016.1,31,27.2,21.7,72,16.34,52,3.9,299.0,346.8,301.9
1015.2,38,25.6,20.6,74,15.17,53,3.5,297.5,341.6,300.2
1014.8,41,25.1,20.5,76,15.16,53,3.6,297.0,341.0,299.7
1014.1,48,24.9,20.5,77,15.11,54,3.8,296.8,340.7,299.5
1013.3,55,24.8,20.4,77,15.03,54,4.0,296.8,340.4,299.5
1012.7,60,24.7,20.2,76,14.91,54,4.3,296.8,340.0,299.4
1012.1,65,24.7,20.1,76,14.81,55,4.6,296.8,339.8,299.5
1011.5,71,24.8,20.1,75,14.77,55,4.8,296.9,339.8,299.6
1010.9,76,24.8,19.9,74,14.64,55,5.0,297.0,339.5,299.6
1010.3,81,24.7,19.8,74,14.50,56,5.2,297.0,339.1,299.5
1009.7,86,24.6,19.7,74,14.47,56,5.5,297.0,339.0,299.5
1009.0,92,24.6,19.7,74,14.47,57,5.7,297.0,339.0,299.5
1008.4,98,24.5,19.6,74,14.42,57,5.9,296.9,338.8,299.5
1007.7,103,24.4,19.6,75,14.40,57,6.1,296.9,338.7,299.5
1007.0,109,24.4,19.7,75,14.50,58,6.2,297.0,339.1,299.6
1006.3,116,24.5,19.8,75,14.55,58,6.4,297.1,339.3,299.7
1005.6,122,24.3,19.6,75,14.42,58,6.6,297.0,338.8,299.5
1004.9,128,23.9,19.3,75,14.15,58,6.7,296.7,337.7,299.2
1004.1,135,23.7,19.1,76,14.01,59,6.8,296.5,337.1,299.0
1003.5,141,23.6,19.1,76,14.01,59,7.0,296.4,337.0,298.9
1002.8,147,23.4,19.2,77,14.09,59,7.1,296.3,337.1,298.8
1002.1,152,23.3,19.2,78,14.13,59,7.2,296.3,337.2,298.8
1001.5,158,23.3,19.2,78,14.11,59,7.2,296.3,337.1,298.8
1000.9,163,23.2,19.1,78,14.07,59,7.3,296.2,337.0,298.7
1000.2,169,23.1,19.1,78,14.01,59,7.4,296.2,336.8,298.7
1000.0,171,23.1,19.1,78,14.01,60,7.4,296.2,336.8,298.7
999.6,174,23.1,19.0,78,14.01,60,7.4,296.2,336.8,298.7
999.0,179,23.0,19.0,78,14.01,60,7.5,296.3,336.8,298.7
998.4,185,23.0,19.1,79,14.03,60,7.5,296.3,336.9,298.7
997.7,191,22.9,19.1,79,14.11,60,7.5,296.3,337.1,298.8
997.1,196,22.9,19.2,80,14.21,60,7.6,296.3,337.4,298.8
996.4,202,22.8,19.2,80,14.23,60,7.6,296.3,337.5,298.8
995.7,209,22.8,19.2,80,14.18,60,7.6,296.3,337.3,298.8
995.0,215,22.7,19.1,80,14.14,60,7.6,296.3,337.2,298.8
994.3,221,22.6,19.1,80,14.09,60,7.6,296.3,337.0,298.8
993.5,228,22.6,18.9,80,13.99,60,7.5,296.3,336.7,298.7
992.8,234,22.5,18.7,79,13.83,60,7.5,296.3,336.3,298.7
992.1,240,22.4,18.7,79,13.78,60,7.5,296.3,336.1,298.7
991.4,246,22.4,18.7,80,13.85,60,7.5,296.3,336.3,298.7
990.8,252,22.3,18.8,80,13.88,60,7.5,296.2,336.4,298.7
990.1,258,22.3,18.7,80,13.86,61,7.4,296.2,336.4,298.7
989.4,264,22.2,18.7,80,13.81,61,7.4,296.2,336.2,298.7
988.7,270,22.1,18.6,80,13.77,61,7.4,296.2,336.1,298.7
987.9,277,22.1,18.6,81,13.80,61,7.4,296.2,336.2,298.7
987.2,283,22.0,18.7,81,13.86,62,7.3,296.2,336.4,298.7
986.5,290,21.9,18.7,82,13.93,62,7.3,296.2,336.5,298.7
985.7,296,21.9,18.7,82,13.94,63,7.3,296.2,336.6,298.7
985.0,303,21.8,18.7,82,13.90,63,7.3,296.2,336.5,298.7
984.3,309,21.8,18.6,82,13.86,63,7.3,296.2,336.4,298.7
983.6,315,21.7,18.6,83,13.88,64,7.3,296.2,336.4,298.7
982.9,322,21.6,18.7,83,13.91,64,7.3,296.2,336.5,298.7
982.2,328,21.6,18.7,83,13.91,65,7.3,296.2,336.5,298.7
981.5,334,21.5,18.6,84,13.89,65,7.3,296.3,336.5,298.7
980.8,340,21.5,18.6,84,13.88,65,7.3,296.3,336.4,298.7
980.1,346,21.4,18.6,84,13.91,66,7.3,296.3,336.5,298.7
979.5,352,21.3,18.7,85,13.95,66,7.3,296.2,336.6,298.7
978.8,358,21.3,18.6,85,13.94,66,7.3,296.2,336.6,298.7
978.1,364,21.2,18.6,85,13.92,66,7.4,296.2,336.5,298.7
977.5,369,21.2,18.5,85,13.88,66,7.4,296.2,336.4,298.7
976.9,375,21.1,18.5,85,13.85,67,7.4,296.2,336.3,298.7
976.2,381,21.1,18.5,85,13.82,67,7.4,296.3,336.2,298.7
975.6,386,21.0,18.4,85,13.78,67,7.5,296.3,336.1,298.7
975.0,392,21.0,18.4,85,13.77,67,7.5,296.2,336.1,298.7
974.3,397,20.9,18.4,85,13.77,66,7.5,296.2,336.1,298.7
973.7,403,20.9,18.4,86,13.77,66,7.5,296.2,336.1,298.7
973.0,409,20.8,18.4,86,13.78,66,7.6,296.3,336.1,298.7
972.4,415,20.7,18.4,86,13.81,66,7.6,296.2,336.2,298.7
971.7,421,20.7,18.4,87,13.87,66,7.6,296.3,336.4,298.7
971.1,426,20.6,18.4,87,13.88,66,7.6,296.2,336.4,298.7
970.4,432,20.6,18.4,87,13.86,65,7.6,296.2,336.3,298.7
969.8,438,20.5,18.3,87,13.80,65,7.6,296.2,336.2,298.7
969.2,443,20.5,18.3,87,13.78,65,7.6,296.2,336.1,298.7
968.6,449,20.4,18.3,88,13.80,64,7.6,296.2,336.2,298.7
968.0,454,20.3,18.3,88,13.83,64,7.6,296.2,336.3,298.7
967.3,460,20.3,18.3,88,13.82,64,7.6,296.2,336.2,298.7
966.7,465,20.2,18.3,88,13.79,64,7.6,296.2,336.1,298.7
966.1,471,20.2,18.2,88,13.75,63,7.6,296.2,336.0,298.7
965.5,476,20.1,18.2,89,13.77,63,7.6,296.2,336.1,298.7
964.9,482,20.1,18.2,89,13.79,63,7.6,296.2,336.1,298.7
964.3,487,20.0,18.2,90,13.80,63,7.6,296.2,336.1,298.7
963.6,493,20.0,18.2,90,13.81,62,7.6,296.2,336.2,298.7
963.0,499,19.9,18.2,90,13.82,62,7.6,296.2,336.2,298.7
962.4,504,19.9,18.2,90,13.83,62,7.6,296.2,336.3,298.7
961.8,510,19.8,18.3,91,13.88,62,7.6,296.2,336.4,298.7
961.1,515,19.7,18.3,92,13.91,62,7.6,296.2,336.5,298.7
960.5,521,19.7,18.3,92,13.92,62,7.6,296.2,336.5,298.7
959.9,527,19.6,18.3,92,13.92,61,7.6,296.2,336.5,298.7
959.2,533,19.6,18.3,92,13.93,61,7.6,296.2,336.5,298.7
958.6,538,19.5,18.3,93,13.94,61,7.6,296.2,336.5,298.7
957.9,544,19.4,18.3,93,13.95,61,7.6,296.2,336.6,298.7
957.3,550,19.4,18.3,93,13.94,61,7.6,296.2,336.5,298.7
956.7,556,19.3,18.3,93,13.93,61,7.6,296.2,336.5,298.7
956.0,561,19.3,18.2,94,13.90,61,7.6,296.2,336.4,298.7
955.4,567,19.2,18.2,94,13.88,61,7.6,296.2,336.4,298.7
954.8,573,19.2,18.2,94,13.87,62,7.6,296.2,336.3,298.7
954.1,579,19.1,18.2,94,13.88,62,7.7,296.2,336.4,298.7
953.5,584,19.1,18.1,94,13.87,62,7.7,296.2,336.3,298.7
952.9,590,19.0,18.1,95,13.86,62,7.7,296.2,336.3,298.7
952.2,596,18.9,18.1,95,13.86,62,7.7,296.2,336.3,298.7
951.6,601,18.9,18.1,95,13.86,62,7.7,296.2,336.3,298.7
951.0,607,18.8,18.1,95,13.85,62,7.8,296.2,336.3,298.7
950.4,613,18.8,18.1,96,13.85,62,7.8,296.2,336.3,298.7
949.8,618,18.7,18.1,96,13.87,62,7.8,296.2,336.3,298.7
949.2,624,18.7,18.1,96,13.90,62,7.8,296.2,336.4,298.7
948.5,629,18.6,18.1,97,13.91,63,7.9,296.2,336.4,298.7
947.9,635,18.6,18.1,97,13.88,63,7.9,296.2,336.4,298.7
947.2,641,18.5,17.9,96,13.76,63,7.9,296.2,336.0,298.7
946.6,647,18.5,17.7,95,13.57,63,7.9,296.2,335.5,298.6
946.0,653,18.4,17.5,94,13.38,63,8.0,296.2,335.0,298.6
945.4,658,18.4,17.3,93,13.26,63,8.0,296.3,334.7,298.6
944.8,664,18.4,17.4,94,13.36,63,8.0,296.3,335.0,298.7
944.2,669,18.3,17.7,96,13.61,64,8.1,296.3,335.7,298.7
943.6,674,18.2,17.8,97,13.69,64,8.1,296.2,335.9,298.7
943.0,679,18.2,17.7,97,13.62,64,8.1,296.2,335.7,298.7
942.4,685,18.1,17.6,97,13.55,64,8.1,296.2,335.5,298.7
941.9,690,18.1,17.5,97,13.51,65,8.2,296.3,335.4,298.7
941.3,696,18.0,17.5,97,13.50,65,8.2,296.3,335.3,298.7
940.7,701,18.0,17.5,97,13.50,65,8.2,296.3,335.3,298.7
940.1,706,17.9,17.5,97,13.52,66,8.2,296.3,335.4,298.7
939.5,712,17.9,17.6,98,13.61,66,8.2,296.3,335.7,298.7
938.9,717,17.8,17.7,99,13.71,67,8.2,296.3,336.0,298.7
938.3,723,17.8,17.7,100,13.73,67,8.3,296.3,336.0,298.7
937.7,728,17.7,17.7,100,13.70,67,8.3,296.3,335.9,298.7
937.1,733,17.7,17.7,100,13.72,68,8.3,296.3,336.0,298.8
936.5,739,17.7,17.7,100,13.75,68,8.3,296.4,336.2,298.8
935.9,744,17.7,17.7,100,13.74,69,8.3,296.4,336.2,298.8
935.3,750,17.6,17.6,100,13.70,69,8.3,296.4,336.1,298.8
934.7,755,17.6,17.6,100,13.65,70,8.3,296.4,335.9,298.8
934.1,761,17.6,17.6,100,13.64,70,8.3,296.4,335.9,298.8
933.5,766,17.6,17.6,100,13.65,71,8.3,296.5,336.0,298.9
932.9,772,17.5,17.5,100,13.65,71,8.3,296.5,336.1,298.9
932.3,777,17.5,17.5,100,13.61,72,8.3,296.5,335.9,298.9
931.8,783,17.4,17.4,100,13.53,72,8.3,296.5,335.6,298.9
931.2,788,17.3,17.3,100,13.42,73,8.3,296.4,335.3,298.8
930.6,794,17.2,17.0,98,13.17,73,8.3,296.4,334.6,298.7
930.0,799,17.1,16.3,95,12.65,73,8.3,296.3,333.0,298.6
929.4,805,17.0,15.3,90,11.87,74,8.3,296.3,330.7,298.4
928.8,810,17.0,14.1,83,10.93,74,8.3,296.3,328.1,298.2
928.2,816,17.0,13.4,79,10.46,74,8.3,296.4,326.8,298.3
927.6,821,17.2,13.4,79,10.49,74,8.3,296.6,327.2,298.5
926.9,827,17.3,13.6,79,10.65,74,8.3,296.8,327.9,298.8
926.3,833,17.4,13.8,79,10.78,75,8.3,297.0,328.4,298.9
925.7,838,17.5,14.0,80,10.91,75,8.3,297.1,328.9,299.1
925.1,844,17.4,14.2,81,11.07,75,8.3,297.1,329.4,299.1
925.0,845,17.4,14.3,82,11.11,75,8.3,297.1,329.5,299.1
924.5,850,17.4,14.5,83,11.26,75,8.3,297.1,330.0,299.1
923.9,855,17.3,14.7,85,11.46,75,8.3,297.1,330.5,299.1
923.3,861,17.3,14.8,86,11.57,75,8.3,297.1,330.8,299.2
922.7,866,17.2,14.8,86,11.57,75,8.3,297.1,330.8,299.2
922.1,872,17.2,14.8,86,11.52,74,8.3,297.1,330.7,299.2
921.5,878,17.1,14.7,86,11.47,74,8.3,297.1,330.5,299.2
920.9,883,17.1,14.6,85,11.41,74,8.3,297.1,330.4,299.2
920.3,889,17.0,14.5,85,11.35,74,8.3,297.1,330.2,299.2
919.7,894,17.0,14.4,85,11.28,74,8.3,297.2,330.1,299.2
919.1,900,17.0,14.3,84,11.24,74,8.3,297.2,330.0,299.2
918.5,905,16.9,14.3,85,11.24,74,8.3,297.2,330.0,299.2
917.9,911,16.9,14.3,85,11.25,74,8.3,297.2,330.0,299.2
917.3,917,16.8,14.3,85,11.23,74,8.3,297.2,330.0,299.2
916.6,923,16.8,14.3,85,11.22,74,8.3,297.2,330.0,299.2
916.0,928,16.7,14.3,86,11.24,74,8.3,297.2,330.0,299.2
915.4,934,16.7,14.3,86,11.27,74,8.3,297.2,330.1,299.2
914.8,940,16.6,14.3,86,11.26,74,8.3,297.2,330.1,299.3
914.2,946,16.6,14.2,86,11.19,74,8.3,297.3,329.9,299.3
913.6,951,16.6,14.1,85,11.13,74,8.3,297.3,329.8,299.3
913.0,957,16.5,14.0,85,11.07,74,8.3,297.3,329.6,299.3
912.4,962,16.5,13.9,84,10.99,74,8.3,297.4,329.4,299.3
911.8,968,16.5,13.8,84,10.92,74,8.3,297.4,329.3,299.4
911.2,973,16.5,13.7,83,10.85,75,8.4,297.4,329.1,299.4
910.6,979,16.5,13.6,83,10.79,75,8.4,297.5,329.0,299.4
910.0,984,16.4,13.5,83,10.72,75,8.4,297.5,328.8,299.4
909.4,990,16.4,13.3,82,10.64,75,8.4,297.5,328.6,299.4
908.8,996,16.3,13.2,82,10.56,76,8.4,297.5,328.4,299.4
908.2,1002,16.3,13.1,81,10.50,76,8.4,297.5,328.2,299.4
907.6,1007,16.3,13.0,81,10.46,76,8.4,297.5,328.1,299.4
907.0,1013,16.2,13.0,81,10.44,77,8.4,297.6,328.1,299.4
906.4,1019,16.2,13.0,81,10.41,77,8.4,297.6,328.0,299.4
905.8,1024,16.2,12.9,81,10.37,77,8.4,297.6,327.9,299.5
905.2,1030,16.1,12.8,81,10.31,78,8.4,297.6,327.8,299.5
904.6,1035,16.1,12.7,80,10.26,78,8.4,297.6,327.7,299.5
904.0,1041,16.1,12.7,80,10.23,78,8.5,297.7,327.6,299.5
903.4,1046,16.0,12.6,80,10.21,78,8.5,297.7,327.6,299.5
902.8,1052,16.0,12.6,80,10.19,78,8.5,297.7,327.5,299.5
902.2,1058,15.9,12.5,80,10.15,78,8.5,297.7,327.5,299.5
901.6,1064,15.9,12.4,80,10.11,79,8.5,297.7,327.4,299.5
901.0,1069,15.9,12.4,80,10.07,79,8.5,297.8,327.3,299.6
900.4,1075,15.8,12.3,79,10.03,79,8.5,297.8,327.2,299.6
899.8,1081,15.8,12.3,79,10.01,79,8.5,297.8,327.2,299.6
899.2,1086,15.8,12.3,80,10.01,79,8.6,297.8,327.2,299.6
898.7,1092,15.7,12.3,80,10.05,79,8.6,297.8,327.3,299.6
898.1,1097,15.7,12.4,81,10.11,79,8.6,297.8,327.5,299.6
897.5,1103,15.6,12.4,81,10.14,79,8.6,297.8,327.6,299.7
896.9,1108,15.6,12.4,81,10.13,79,8.6,297.9,327.6,299.7
896.3,1114,15.6,12.3,81,10.06,79,8.6,297.9,327.4,299.7
895.7,1119,15.6,12.1,80,9.94,79,8.6,297.9,327.1,299.7
895.1,1125,15.6,11.8,79,9.79,79,8.6,298.0,326.7,299.7
894.5,1131,15.5,11.6,77,9.64,79,8.7,298.0,326.4,299.8
893.9,1136,15.5,11.4,77,9.53,79,8.7,298.1,326.1,299.8
893.3,1142,15.5,11.3,76,9.43,79,8.7,298.1,325.8,299.8
892.7,1148,15.5,11.1,75,9.34,79,8.7,298.1,325.6,299.8
892.1,1154,15.5,10.9,74,9.19,79,8.7,298.2,325.2,299.9
891.5,1159,15.5,10.5,72,8.99,79,8.7,298.3,324.7,299.9
890.9,1165,15.5,10.2,71,8.82,79,8.7,298.3,324.4,299.9
890.3,1171,15.5,10.1,70,8.74,80,8.7,298.4,324.2,300.0
889.7,1176,15.5,10.0,70,8.70,80,8.7,298.4,324.1,300.0
889.1,1182,15.5,9.9,70,8.66,80,8.8,298.5,324.0,300.0
888.6,1188,15.4,9.9,69,8.62,80,8.8,298.5,324.0,300.0
888.0,1193,15.4,9.8,69,8.62,80,8.8,298.5,324.0,300.1
887.4,1199,15.4,9.9,70,8.67,81,8.8,298.6,324.2,300.1
886.8,1205,15.4,10.1,71,8.76,81,8.8,298.6,324.4,300.2
886.2,1210,15.3,10.1,71,8.79,81,8.8,298.6,324.5,300.2
885.6,1216,15.3,10.0,71,8.73,81,8.8,298.6,324.4,300.2
885.0,1221,15.2,9.9,71,8.69,82,8.8,298.6,324.3,300.2
884.5,1227,15.2,9.9,71,8.70,82,8.9,298.6,324.3,300.2
883.9,1232,15.2,9.9,71,8.70,82,8.9,298.6,324.4,300.2
883.3,1237,15.1,9.8,71,8.66,83,8.9,298.7,324.3,300.2
882.8,1243,15.1,9.7,70,8.57,83,8.9,298.7,324.0,300.2
882.3,1248,15.1,9.4,69,8.44,83,8.9,298.7,323.7,300.2
881.7,1253,15.0,9.2,68,8.32,84,8.9,298.7,323.4,300.2
881.1,1259,15.0,9.1,68,8.26,84,8.9,298.8,323.2,300.2
880.6,1264,15.0,9.0,68,8.23,84,8.9,298.8,323.1,300.2
880.0,1270,14.9,9.1,68,8.24,85,8.9,298.8,323.2,300.3
879.4,1275,14.9,9.1,68,8.27,85,8.9,298.8,323.3,300.3
878.9,1281,14.8,9.2,69,8.32,85,8.9,298.8,323.4,300.3
878.3,1286,14.8,9.2,69,8.36,86,8.9,298.8,323.6,300.3
877.7,1292,14.8,9.2,69,8.36,86,9.0,298.9,323.6,300.4
877.1,1298,14.8,9.1,69,8.32,87,9.0,298.9,323.5,300.4
876.5,1303,14.8,9.0,68,8.26,87,9.0,298.9,323.4,300.4
875.9,1309,14.7,8.9,68,8.18,87,9.0,299.0,323.2,300.5
875.3,1315,14.7,8.7,67,8.11,88,9.0,299.0,323.1,300.5
874.7,1321,14.7,8.8,68,8.13,88,9.0,299.1,323.2,300.5
874.1,1326,14.6,9.0,69,8.24,88,9.0,299.1,323.5,300.6
873.5,1332,14.6,9.3,71,8.44,89,9.1,299.1,324.1,300.6
873.0,1338,14.5,9.5,72,8.56,89,9.1,299.1,324.4,300.6
872.4,1343,14.5,9.4,71,8.51,89,9.1,299.1,324.3,300.6
871.8,1349,14.5,9.3,71,8.44,90,9.1,299.1,324.1,300.6
871.2,1355,14.5,9.2,71,8.43,90,9.2,299.2,324.2,300.7
870.6,1360,14.4,9.3,71,8.47,90,9.2,299.2,324.3,300.7
870.0,1366,14.4,9.4,72,8.51,90,9.2,299.2,324.4,300.7
869.5,1372,14.3,9.4,72,8.56,91,9.3,299.2,324.6,300.8
868.9,1377,14.3,9.5,73,8.62,91,9.3,299.2,324.8,300.8
868.3,1383,14.3,9.6,73,8.66,91,9.4,299.3,324.9,300.8
867.7,1389,14.2,9.6,74,8.70,92,9.4,299.3,325.0,300.8
867.1,1394,14.2,9.7,74,8.74,92,9.5,299.3,325.2,300.9
866.5,1400,14.2,9.7,75,8.77,92,9.5,299.3,325.3,300.9
865.9,1406,14.1,9.7,75,8.76,92,9.6,299.3,325.3,300.9
865.4,1412,14.1,9.7,75,8.75,92,9.6,299.4,325.3,300.9
864.8,1417,14.1,9.7,75,8.74,93,9.7,299.4,325.3,301.0
864.2,1423,14.0,9.6,75,8.74,93,9.7,299.4,325.3,301.0
863.6,1429,14.0,9.6,75,8.73,93,9.8,299.4,325.3,301.0
863.1,1434,14.0,9.6,75,8.72,93,9.8,299.4,325.3,301.0
862.5,1440,13.9,9.6,75,8.71,93,9.9,299.5,325.3,301.0
861.9,1445,13.9,9.6,75,8.72,94,9.9,299.5,325.4,301.1
861.4,1451,13.9,9.6,75,8.74,94,10.0,299.5,325.4,301.1
860.8,1456,13.9,9.6,76,8.76,94,10.0,299.6,325.5,301.1
860.3,1462,13.8,9.6,76,8.78,94,10.1,299.6,325.6,301.2
859.7,1467,13.8,9.7,76,8.82,94,10.1,299.6,325.7,301.2
859.1,1473,13.7,9.8,77,8.87,94,10.1,299.6,325.9,301.2
858.6,1478,13.7,9.8,78,8.91,94,10.2,299.6,326.0,301.2
858.0,1484,13.6,9.9,78,8.95,94,10.2,299.6,326.1,301.2
857.4,1490,13.6,9.9,79,8.97,95,10.2,299.6,326.2,301.2
856.8,1496,13.5,9.9,79,8.99,95,10.3,299.6,326.2,301.2
856.2,1502,13.4,10.0,80,9.03,95,10.3,299.6,326.3,301.2
855.6,1507,13.4,10.0,80,9.04,95,10.3,299.6,326.4,301.2
855.1,1513,13.3,10.0,80,9.04,95,10.3,299.6,326.4,301.2
854.5,1518,13.3,9.9,80,9.02,95,10.4,299.6,326.3,301.2
854.0,1523,13.3,9.9,80,9.02,95,10.4,299.6,326.3,301.3
853.5,1528,13.2,10.0,81,9.05,95,10.4,299.6,326.5,301.3
853.0,1533,13.2,9.9,81,9.04,95,10.4,299.7,326.5,301.3
852.5,1538,13.2,9.8,80,8.95,95,10.5,299.7,326.2,301.3
851.9,1544,13.2,9.6,79,8.84,95,10.5,299.7,326.0,301.3
851.4,1549,13.2,9.5,78,8.77,95,10.6,299.8,325.8,301.4
850.9,1554,13.1,9.4,78,8.71,95,10.6,299.8,325.7,301.4
850.3,1560,13.1,9.3,78,8.67,95,10.6,299.8,325.6,301.4
850.0,1563,13.1,9.2,78,8.65,95,10.6,299.8,325.5,301.4
849.8,1565,13.1,9.2,77,8.63,95,10.7,299.8,325.4,301.4
849.3,1570,13.0,9.2,77,8.61,95,10.7,299.8,325.4,301.4
848.7,1575,13.0,9.1,77,8.58,95,10.8,299.9,325.3,301.4
848.2,1581,13.0,9.0,77,8.53,96,10.8,299.9,325.2,301.4
847.7,1586,12.9,9.0,77,8.53,96,10.9,299.9,325.2,301.4
847.1,1591,12.9,9.0,77,8.56,96,11.0,299.9,325.4,301.5
846.6,1596,12.8,9.1,78,8.62,96,11.0,299.9,325.5,301.5
846.1,1602,12.8,9.2,79,8.66,96,11.1,299.9,325.6,301.5
845.6,1607,12.7,9.2,79,8.69,96,11.2,299.9,325.7,301.5
845.0,1612,12.7,9.2,79,8.68,96,11.2,299.9,325.7,301.5
844.5,1617,12.6,9.2,79,8.66,97,11.3,299.9,325.6,301.5
844.0,1622,12.6,9.1,79,8.63,97,11.4,299.9,325.6,301.5
843.5,1628,12.6,9.0,79,8.60,97,11.4,300.0,325.5,301.5
842.9,1633,12.5,9.0,79,8.56,97,11.5,300.0,325.4,301.5
842.4,1638,12.5,8.9,78,8.50,97,11.6,300.0,325.3,301.5
841.9,1644,12.5,8.7,78,8.43,98,11.6,300.0,325.1,301.6
841.3,1649,12.5,8.6,77,8.38,98,11.7,300.1,325.0,301.6
840.8,1654,12.5,8.6,77,8.38,98,11.7,300.1,325.0,301.6
840.3,1660,12.4,8.7,78,8.43,98,11.8,300.1,325.2,301.7
839.7,1665,12.4,8.8,79,8.50,98,11.8,300.2,325.5,301.7
839.2,1670,12.4,8.9,79,8.57,99,11.9,300.2,325.7,301.8
838.7,1676,12.4,9.0,80,8.62,99,11.9,300.2,325.8,301.8
838.1,1681,12.3,9.0,80,8.65,99,12.0,300.2,326.0,301.8
837.6,1687,12.3,9.0,81,8.66,99,12.0,300.3,326.0,301.8
837.0,1692,12.2,9.1,81,8.67,99,12.0,300.3,326.1,301.8
836.5,1697,12.2,9.1,81,8.68,99,12.1,300.3,326.1,301.9
836.0,1703,12.2,9.1,81,8.68,99,12.1,300.3,326.1,301.9
835.4,1708,12.1,9.1,82,8.70,100,12.1,300.3,326.2,301.9
834.9,1714,12.1,9.1,82,8.74,100,12.1,300.3,326.3,301.9
834.3,1719,12.0,9.2,83,8.81,100,12.2,300.3,326.5,301.9
833.8,1725,12.0,9.4,84,8.92,100,12.2,300.3,326.9,302.0
833.3,1730,11.9,9.7,86,9.11,100,12.2,300.3,327.4,302.0
832.7,1736,11.9,10.0,88,9.33,100,12.2,300.3,328.0,302.0
832.2,1741,11.8,10.3,90,9.49,100,12.2,300.3,328.5,302.1
831.6,1747,11.8,10.4,91,9.57,99,12.2,300.4,328.8,302.1
831.1,1752,11.8,10.5,92,9.64,99,12.2,300.4,329.0,302.1
830.5,1758,11.7,10.5,92,9.66,99,12.2,300.4,329.0,302.1
830.0,1763,11.7,10.5,92,9.65,99,12.1,300.4,329.0,302.2
829.4,1769,11.7,10.5,92,9.63,99,12.1,300.4,329.0,302.2
828.9,1774,11.6,10.4,92,9.63,99,12.1,300.5,329.0,302.2
828.3,1780,11.6,10.5,93,9.65,98,12.1,300.5,329.1,302.2
827.8,1785,11.6,10.5,93,9.69,98,12.0,300.5,329.2,302.2
827.2,1791,11.5,10.6,94,9.72,98,12.0,300.5,329.4,302.3
826.7,1797,11.5,10.5,94,9.70,98,12.0,300.6,329.4,302.3
826.1,1802,11.5,10.4,93,9.66,97,11.9,300.6,329.3,302.4
825.6,1808,11.5,10.4,93,9.62,97,11.9,300.7,329.3,302.4
825.0,1813,11.5,10.3,92,9.58,97,11.8,300.8,329.2,302.5
824.5,1819,11.5,10.2,92,9.54,97,11.8,300.8,329.2,302.5
823.9,1825,11.5,10.2,92,9.53,96,11.7,300.9,329.2,302.6
823.4,1830,11.5,10.1,91,9.48,96,11.7,300.9,329.1,302.6
822.8,1836,11.5,9.9,90,9.36,96,11.6,301.0,328.8,302.7
822.3,1841,11.5,9.6,88,9.14,95,11.5,301.0,328.3,302.7
821.8,1846,11.6,9.1,85,8.86,95,11.5,301.1,327.6,302.7
821.3,1852,11.6,8.4,81,8.47,95,11.4,301.2,326.5,302.8
820.7,1857,11.7,7.6,76,8.00,94,11.3,301.4,325.3,302.8
820.2,1862,11.8,6.7,71,7.52,94,11.3,301.5,324.1,302.9
819.7,1868,11.9,5.9,67,7.12,93,11.2,301.7,323.1,303.0
819.1,1873,12.0,5.3,63,6.81,93,11.1,301.8,322.4,303.1
818.6,1879,12.0,4.8,61,6.58,93,11.0,302.0,321.9,303.2
818.0,1885,12.0,4.3,59,6.37,92,10.9,302.0,321.3,303.2
817.5,1891,12.1,3.8,57,6.17,92,10.9,302.1,320.8,303.2
816.9,1896,12.1,3.4,56,6.01,91,10.8,302.2,320.4,303.3
816.3,1902,12.1,3.2,55,5.92,91,10.7,302.2,320.2,303.3
815.7,1908,12.0,3.2,55,5.90,90,10.6,302.3,320.2,303.3
815.1,1914,12.0,3.1,54,5.86,89,10.5,302.3,320.1,303.4
814.6,1920,12.0,2.8,53,5.74,89,10.5,302.3,319.8,303.4
814.0,1926,12.0,2.3,51,5.55,88,10.4,302.4,319.3,303.4
813.4,1932,12.0,1.7,49,5.34,88,10.3,302.5,318.8,303.4
812.9,1937,12.0,1.1,47,5.11,87,10.3,302.5,318.2,303.5
812.3,1943,12.0,0.3,44,4.81,86,10.2,302.6,317.4,303.5
811.8,1949,12.1,-0.8,41,4.44,86,10.1,302.7,316.4,303.5
811.3,1954,12.1,-2.0,37,4.09,85,10.0,302.9,315.5,303.6
810.7,1960,12.2,-2.8,35,3.83,84,10.0,303.0,314.9,303.7
810.2,1966,12.3,-3.0,34,3.78,83,9.9,303.1,314.9,303.8
809.6,1971,12.3,-2.9,35,3.82,83,9.9,303.2,315.1,303.9
809.1,1977,12.4,-2.8,35,3.86,82,9.8,303.3,315.4,304.0
808.5,1983,12.4,-2.8,35,3.87,81,9.8,303.5,315.5,304.2
808.0,1988,12.6,-3.0,34,3.80,81,9.7,303.6,315.5,304.3
807.4,1994,12.7,-3.6,32,3.64,80,9.7,303.9,315.3,304.5
806.9,2000,12.9,-4.4,30,3.42,79,9.6,304.1,314.8,304.7
806.3,2005,13.0,-5.0,28,3.28,79,9.6,304.3,314.6,304.9
805.8,2011,13.0,-5.2,28,3.23,78,9.6,304.3,314.5,304.9
805.3,2016,13.0,-5.2,28,3.22,77,9.5,304.4,314.5,305.0
804.8,2022,13.0,-5.3,28,3.19,77,9.5,304.4,314.5,305.0
804.2,2027,13.0,-5.6,27,3.14,76,9.5,304.5,314.4,305.1
803.7,2033,13.0,-6.0,26,3.04,76,9.5,304.6,314.2,305.1
803.2,2038,13.0,-6.7,25,2.89,76,9.5,304.6,313.8,305.2
802.7,2044,13.1,-7.4,23,2.74,75,9.4,304.7,313.5,305.3
802.1,2049,13.1,-7.7,23,2.67,75,9.4,304.8,313.3,305.3
801.6,2055,13.1,-7.8,23,2.65,75,9.4,304.9,313.3,305.4
801.1,2060,13.0,-7.8,23,2.65,74,9.4,304.9,313.4,305.4
800.6,2066,13.1,-7.6,23,2.69,74,9.4,305.0,313.6,305.5
800.1,2071,13.2,-7.0,24,2.83,74,9.4,305.2,314.2,305.7
799.5,2076,13.3,-6.4,25,2.97,74,9.4,305.3,314.8,305.9
