PRES,HGHT,TEMP,DWPT,RELH,MIXR,DRCT,SPED,THTA,THTE,THTV
1011.0,31,27.1,22.3,75,17.02,84,4.7,299.3,349.2,302.4
1010.3,37,26.5,22.3,78,17.01,98,3.4,298.7,348.5,301.8
1009.7,42,25.5,22.0,81,16.66,101,3.4,297.9,346.4,300.8
1008.8,50,25.4,22.1,82,16.80,102,3.6,297.8,346.7,300.8
1008.1,56,25.2,22.0,82,16.69,101,3.8,297.7,346.3,300.7
1007.3,63,25.0,21.7,82,16.44,101,4.1,297.5,345.3,300.4
1006.6,69,24.8,21.6,82,16.32,100,4.3,297.4,344.8,300.3
1005.8,76,24.7,21.5,83,16.31,100,4.5,297.3,344.7,300.2
1005.1,82,24.6,21.5,83,16.25,99,4.7,297.4,344.6,300.2
1004.4,88,24.6,21.4,82,16.14,99,4.9,297.4,344.2,300.2
1003.8,94,24.5,21.2,82,16.02,98,5.1,297.3,343.9,300.2
1003.1,99,24.5,21.1,82,15.93,98,5.2,297.3,343.6,300.2
1002.5,105,24.4,21.1,82,15.92,98,5.4,297.4,343.6,300.2
1001.9,110,24.4,21.1,82,15.88,97,5.5,297.4,343.5,300.2
1001.3,116,24.3,21.0,82,15.80,97,5.6,297.3,343.3,300.2
1000.7,121,24.2,20.9,82,15.74,97,5.7,297.3,343.1,300.1
1000.0,127,24.2,20.9,82,15.73,96,5.9,297.3,343.0,300.1
999.4,132,24.1,20.9,82,15.75,96,5.9,297.3,343.1,300.1
998.8,138,24.1,20.9,82,15.74,95,6.0,297.3,343.0,300.1
998.2,143,24.0,20.8,82,15.69,95,6.0,297.3,342.9,300.1
997.5,149,24.0,20.7,82,15.64,95,6.1,297.3,342.7,300.1
996.9,154,23.9,20.6,82,15.54,94,6.1,297.3,342.5,300.1
996.3,160,23.9,20.5,82,15.45,94,6.2,297.3,342.2,300.1
995.7,165,23.8,20.5,82,15.46,93,6.2,297.3,342.3,300.1
995.0,171,23.8,20.6,82,15.51,93,6.2,297.3,342.4,300.1
994.4,176,23.7,20.6,83,15.56,92,6.2,297.3,342.5,300.1
993.8,182,23.7,20.7,83,15.61,92,6.2,297.3,342.7,300.1
993.1,187,23.6,20.7,84,15.62,91,6.2,297.3,342.7,300.1
992.5,193,23.5,20.6,83,15.56,91,6.2,297.3,342.5,300.1
991.9,198,23.5,20.5,83,15.46,90,6.2,297.4,342.3,300.1
991.3,204,23.5,20.4,83,15.36,90,6.2,297.4,342.0,300.1
990.7,209,23.4,20.3,83,15.35,89,6.2,297.4,342.0,300.1
990.1,215,23.4,20.4,84,15.45,89,6.2,297.4,342.3,300.1
989.5,220,23.3,20.5,84,15.52,89,6.2,297.4,342.5,300.1
988.9,225,23.3,20.5,84,15.53,88,6.2,297.3,342.5,300.1
988.3,230,23.2,20.4,84,15.49,88,6.2,297.4,342.4,300.1
987.7,236,23.2,20.4,84,15.43,87,6.2,297.4,342.2,300.1
987.1,241,23.1,20.4,84,15.44,87,6.2,297.4,342.3,300.1
986.5,246,23.1,20.4,85,15.45,86,6.2,297.4,342.3,300.1
985.9,251,23.0,20.4,85,15.44,86,6.3,297.4,342.3,300.1
985.3,257,23.0,20.3,85,15.43,86,6.3,297.4,342.2,300.1
984.7,262,22.9,20.3,85,15.43,86,6.3,297.4,342.2,300.1
984.1,268,22.9,20.3,86,15.45,85,6.3,297.4,342.3,300.1
983.5,273,22.8,20.3,86,15.44,85,6.4,297.4,342.2,300.1
982.9,278,22.8,20.2,86,15.37,85,6.4,297.4,342.1,300.1
982.3,284,22.7,20.2,85,15.31,85,6.4,297.4,341.9,300.1
981.7,289,22.7,20.1,86,15.30,85,6.5,297.4,341.9,300.1
981.1,294,22.6,20.1,86,15.29,85,6.5,297.4,341.8,300.1
980.5,299,22.6,20.1,86,15.28,84,6.5,297.4,341.8,300.1
980.0,304,22.5,20.1,86,15.27,84,6.6,297.4,341.8,300.1
979.4,309,22.5,20.1,86,15.26,84,6.6,297.4,341.7,300.1
978.8,315,22.4,20.1,87,15.29,84,6.6,297.4,341.8,300.1
978.2,320,22.4,20.2,87,15.38,84,6.6,297.4,342.1,300.1
977.7,325,22.3,20.2,88,15.45,85,6.7,297.4,342.3,300.1
977.1,330,22.3,20.3,89,15.52,85,6.7,297.4,342.5,300.2
976.5,335,22.2,20.3,89,15.51,85,6.7,297.4,342.5,300.1
975.9,341,22.2,20.2,88,15.41,85,6.7,297.4,342.2,300.1
975.3,346,22.1,20.0,88,15.31,85,6.7,297.4,341.9,300.1
974.7,351,22.1,20.0,88,15.31,85,6.7,297.4,341.9,300.1
974.1,356,22.0,20.1,89,15.39,85,6.7,297.4,342.1,300.1
973.6,361,22.0,20.2,90,15.49,85,6.7,297.4,342.4,300.1
973.0,366,21.9,20.2,90,15.49,85,6.7,297.4,342.4,300.1
972.5,371,21.9,20.1,90,15.39,86,6.7,297.4,342.1,300.1
971.9,376,21.8,20.0,89,15.29,86,6.6,297.4,341.8,300.1
971.3,381,21.8,19.9,89,15.27,86,6.6,297.4,341.8,300.1
970.8,386,21.8,20.0,90,15.31,86,6.5,297.4,341.9,300.1
970.2,391,21.7,20.1,91,15.44,86,6.5,297.4,342.3,300.1
969.7,396,21.6,20.2,91,15.51,86,6.4,297.4,342.4,300.1
969.1,401,21.6,20.1,92,15.51,87,6.4,297.4,342.4,300.1
968.6,406,21.5,20.1,91,15.46,87,6.3,297.4,342.3,300.1
968.0,411,21.5,20.0,91,15.43,87,6.2,297.4,342.2,300.1
967.5,416,21.4,20.0,92,15.39,88,6.2,297.4,342.1,300.1
966.9,421,21.4,20.0,92,15.39,88,6.1,297.4,342.1,300.1
966.4,426,21.4,20.0,92,15.40,88,6.0,297.4,342.2,300.1
965.8,431,21.3,20.0,92,15.41,89,5.9,297.4,342.2,300.1
965.2,437,21.3,20.0,93,15.42,89,5.9,297.4,342.2,300.1
964.6,442,21.2,20.0,93,15.44,89,5.8,297.4,342.3,300.1
963.9,448,21.1,20.0,93,15.45,90,5.7,297.4,342.3,300.1
963.3,453,21.1,20.0,93,15.44,90,5.6,297.4,342.3,300.1
962.7,459,21.0,19.9,93,15.40,91,5.6,297.4,342.1,300.1
962.1,464,21.0,19.9,93,15.35,92,5.5,297.4,342.0,300.1
961.6,469,20.9,19.9,94,15.35,92,5.4,297.4,342.0,300.1
961.0,474,20.9,19.9,94,15.37,93,5.4,297.4,342.1,300.1
960.5,479,20.8,19.9,94,15.39,93,5.3,297.4,342.1,300.1
959.9,484,20.8,19.9,95,15.41,94,5.3,297.4,342.2,300.2
959.4,489,20.8,19.9,95,15.44,95,5.3,297.4,342.3,300.2
958.9,494,20.7,20.0,95,15.50,95,5.2,297.4,342.4,300.2
958.3,499,20.7,20.0,96,15.53,96,5.2,297.4,342.5,300.2
957.8,504,20.6,19.9,96,15.49,97,5.2,297.4,342.4,300.2
957.2,509,20.6,19.8,96,15.41,97,5.1,297.4,342.2,300.2
956.7,514,20.5,19.8,95,15.34,98,5.1,297.4,342.0,300.1
956.1,519,20.5,19.7,95,15.29,98,5.1,297.4,341.9,300.2
955.6,523,20.5,19.7,95,15.30,99,5.1,297.4,341.9,300.2
955.1,528,20.4,19.7,96,15.31,99,5.0,297.4,342.0,300.2
954.6,533,20.4,19.7,96,15.28,100,5.0,297.4,341.9,300.2
954.1,537,20.3,19.6,96,15.22,100,5.0,297.5,341.7,300.2
953.6,542,20.3,19.6,95,15.18,100,5.0,297.5,341.6,300.2
953.1,546,20.3,19.5,95,15.17,101,5.0,297.5,341.6,300.2
952.6,551,20.2,19.5,95,15.12,101,5.0,297.5,341.5,300.2
952.0,556,20.2,19.4,95,15.04,101,4.9,297.5,341.2,300.2
951.5,561,20.2,19.3,94,14.94,101,4.9,297.5,341.0,300.2
951.0,565,20.2,19.2,94,14.87,101,4.9,297.6,340.8,300.2
950.4,571,20.1,19.2,94,14.87,102,4.9,297.6,340.8,300.2
949.9,576,20.1,19.2,95,14.91,102,4.9,297.6,340.9,300.2
949.3,581,20.0,19.2,95,14.92,102,4.8,297.6,341.0,300.2
948.7,586,20.0,19.2,95,14.89,102,4.8,297.6,340.9,300.2
948.2,591,20.0,19.1,95,14.87,102,4.8,297.6,340.9,300.2
947.6,596,19.9,19.1,95,14.86,102,4.7,297.6,340.8,300.3
947.0,601,19.9,19.1,95,14.85,102,4.7,297.6,340.8,300.3
946.5,606,19.8,19.1,95,14.83,102,4.6,297.6,340.8,300.3
945.9,612,19.8,19.1,96,14.84,102,4.6,297.6,340.8,300.3
945.3,617,19.7,19.1,96,14.87,102,4.5,297.6,340.9,300.3
944.8,622,19.7,19.1,96,14.89,102,4.5,297.6,340.9,300.3
944.2,627,19.6,19.1,97,14.89,102,4.4,297.6,340.9,300.3
943.6,633,19.6,19.1,97,14.87,102,4.4,297.6,340.9,300.3
943.0,638,19.5,19.0,97,14.84,102,4.3,297.6,340.8,300.3
942.4,643,19.5,18.9,97,14.77,102,4.3,297.7,340.6,300.3
941.8,649,19.5,18.8,96,14.65,102,4.2,297.7,340.3,300.3
941.2,655,19.5,18.6,94,14.47,101,4.1,297.8,339.9,300.4
940.6,660,19.5,18.5,94,14.36,101,4.1,297.8,339.7,300.4
940.0,666,19.5,18.4,94,14.34,101,4.0,297.9,339.7,300.4
939.4,672,19.5,18.4,94,14.33,101,3.9,297.9,339.6,300.4
938.8,677,19.4,18.3,94,14.28,101,3.9,297.9,339.5,300.4
938.2,683,19.4,18.3,93,14.24,101,3.8,297.9,339.4,300.4
937.6,688,19.3,18.3,94,14.23,101,3.7,297.9,339.4,300.5
937.0,693,19.3,18.2,93,14.18,101,3.6,297.9,339.3,300.5
936.5,698,19.3,18.1,93,14.12,101,3.6,298.0,339.1,300.5
935.9,703,19.3,18.0,93,14.03,101,3.5,298.0,338.9,300.5
935.4,708,19.2,17.9,92,13.97,101,3.4,298.0,338.8,300.5
934.8,713,19.3,17.9,92,13.92,101,3.4,298.1,338.7,300.6
934.3,718,19.2,17.8,92,13.90,101,3.3,298.1,338.7,300.6
933.8,723,19.2,17.8,92,13.89,101,3.2,298.1,338.7,300.6
933.2,728,19.2,17.8,92,13.87,102,3.2,298.2,338.6,300.6
932.7,733,19.2,17.8,92,13.85,102,3.1,298.2,338.6,300.7
932.1,739,19.1,17.7,92,13.84,102,3.1,298.2,338.6,300.7
931.5,744,19.1,17.7,92,13.85,102,3.1,298.2,338.6,300.7
930.9,749,19.0,17.8,92,13.88,102,3.0,298.2,338.7,300.7
930.3,755,19.0,17.8,93,13.89,101,3.0,298.2,338.8,300.7
929.7,760,18.9,17.7,93,13.87,101,3.0,298.2,338.7,300.7
929.2,766,18.9,17.7,93,13.82,101,3.0,298.2,338.6,300.7
928.6,771,18.9,17.6,92,13.77,101,3.0,298.3,338.5,300.7
928.0,776,18.8,17.6,92,13.76,101,2.9,298.3,338.5,300.7
927.5,782,18.8,17.6,93,13.77,100,2.9,298.3,338.5,300.8
926.9,787,18.8,17.6,93,13.76,100,3.0,298.3,338.5,300.8
926.4,792,18.7,17.6,93,13.78,99,3.0,298.3,338.6,300.8
925.9,797,18.7,17.6,93,13.79,98,3.0,298.3,338.6,300.8
925.3,801,18.7,17.6,93,13.78,98,3.0,298.4,338.6,300.8
925.0,805,18.6,17.5,93,13.75,98,3.0,298.4,338.5,300.8
924.8,806,18.6,17.5,93,13.74,97,3.0,298.4,338.5,300.8
924.3,811,18.6,17.4,93,13.68,96,3.0,298.4,338.4,300.8
923.7,816,18.6,17.4,93,13.62,95,3.0,298.4,338.2,300.9
923.2,821,18.6,17.3,92,13.59,94,3.1,298.5,338.2,300.9
922.7,826,18.6,17.3,92,13.60,93,3.1,298.5,338.2,300.9
922.1,831,18.5,17.3,93,13.61,92,3.1,298.5,338.3,301.0
921.6,837,18.5,17.3,93,13.62,91,3.1,298.5,338.3,301.0
921.0,842,18.5,17.3,93,13.64,90,3.1,298.5,338.4,301.0
920.5,847,18.4,17.3,93,13.65,89,3.1,298.5,338.5,301.0
919.9,852,18.4,17.3,93,13.62,88,3.1,298.5,338.4,301.0
919.4,857,18.3,17.2,93,13.55,87,3.1,298.6,338.2,301.0
918.9,862,18.3,17.1,93,13.50,87,3.1,298.6,338.1,301.0
918.4,866,18.3,17.1,93,13.52,86,3.0,298.6,338.1,301.0
917.9,871,18.3,17.2,93,13.56,85,3.0,298.6,338.3,301.0
917.4,876,18.2,17.2,94,13.56,84,3.0,298.6,338.3,301.1
916.9,880,18.2,17.2,94,13.55,84,3.0,298.7,338.3,301.1
916.4,885,18.2,17.2,94,13.56,83,2.9,298.7,338.3,301.1
915.9,890,18.1,17.1,94,13.55,83,2.9,298.7,338.3,301.1
915.3,895,18.1,17.1,94,13.51,82,2.8,298.7,338.2,301.1
914.8,900,18.1,17.0,94,13.47,82,2.8,298.7,338.1,301.1
914.3,905,18.0,17.0,94,13.44,82,2.8,298.7,338.1,301.1
913.8,910,18.0,17.0,94,13.45,82,2.7,298.7,338.1,301.2
913.2,915,18.0,17.0,94,13.47,82,2.7,298.8,338.2,301.2
912.7,920,17.9,17.0,94,13.48,82,2.6,298.7,338.2,301.2
912.1,925,17.9,17.0,94,13.45,82,2.6,298.8,338.1,301.2
911.6,930,17.9,16.8,94,13.32,82,2.6,298.8,337.8,301.2
911.0,936,17.9,16.7,93,13.21,83,2.5,298.9,337.6,301.2
910.5,941,17.9,16.6,92,13.15,83,2.5,298.9,337.4,301.3
909.9,946,17.9,16.5,92,13.10,84,2.5,299.0,337.4,301.3
909.4,950,17.9,16.5,91,13.06,84,2.5,299.0,337.3,301.4
909.0,955,17.9,16.4,91,13.04,85,2.5,299.1,337.3,301.4
908.5,960,17.8,16.4,91,13.04,86,2.5,299.1,337.3,301.4
908.0,964,17.8,16.5,92,13.08,86,2.5,299.1,337.4,301.5
907.5,968,17.8,16.5,92,13.14,87,2.5,299.1,337.6,301.5
907.0,973,17.8,16.6,93,13.21,87,2.5,299.1,337.9,301.5
906.5,978,17.7,16.6,93,13.24,88,2.5,299.1,338.0,301.5
905.9,983,17.7,16.6,94,13.25,88,2.5,299.1,338.0,301.5
905.3,989,17.6,16.6,94,13.27,89,2.5,299.2,338.1,301.5
904.7,995,17.6,16.6,94,13.27,89,2.5,299.2,338.1,301.5
904.1,1001,17.5,16.6,94,13.23,89,2.5,299.2,338.0,301.5
903.4,1008,17.5,16.4,93,13.14,89,2.6,299.2,337.7,301.6
902.8,1014,17.5,16.3,93,13.03,90,2.6,299.3,337.5,301.6
902.1,1020,17.5,16.2,92,12.93,90,2.6,299.3,337.2,301.6
901.5,1026,17.5,16.1,91,12.84,90,2.6,299.3,337.0,301.7
900.9,1031,17.4,16.0,91,12.82,90,2.7,299.4,337.0,301.7
900.4,1036,17.4,16.1,92,12.85,90,2.7,299.4,337.1,301.7
899.8,1042,17.4,16.1,92,12.89,90,2.7,299.4,337.3,301.7
899.3,1047,17.3,16.1,92,12.91,90,2.7,299.4,337.3,301.7
898.8,1052,17.3,16.1,92,12.89,89,2.7,299.4,337.3,301.8
898.2,1057,17.3,16.1,93,12.92,89,2.8,299.5,337.4,301.8
897.7,1062,17.2,16.2,94,13.03,89,2.8,299.5,337.7,301.8
897.1,1068,17.2,16.3,95,13.10,89,2.8,299.5,337.9,301.8
896.5,1073,17.2,16.2,94,13.07,89,2.8,299.5,337.9,301.9
895.9,1079,17.1,16.2,94,13.00,89,2.8,299.6,337.7,301.9
895.3,1085,17.1,16.1,94,12.98,89,2.8,299.6,337.7,301.9
894.7,1090,17.1,16.1,94,12.97,90,2.8,299.6,337.7,301.9
894.1,1096,17.1,16.1,94,12.95,90,2.8,299.6,337.7,302.0
893.5,1102,17.0,16.0,94,12.94,90,2.9,299.6,337.7,302.0
893.0,1107,17.0,16.0,94,12.93,90,2.9,299.7,337.7,302.0
892.4,1112,17.0,16.0,94,12.92,91,2.9,299.7,337.7,302.0
891.9,1118,17.0,16.0,94,12.94,91,2.9,299.7,337.8,302.1
891.3,1123,16.9,16.0,95,12.98,92,2.9,299.8,337.9,302.1
890.8,1128,16.9,16.0,95,12.98,92,2.9,299.8,338.0,302.1
890.2,1134,16.9,16.0,95,12.93,93,2.9,299.8,337.8,302.1
889.6,1139,16.8,15.9,94,12.87,94,2.9,299.8,337.7,302.1
889.1,1145,16.8,15.8,94,12.78,94,3.0,299.8,337.4,302.1
888.5,1150,16.8,15.7,93,12.73,95,3.0,299.9,337.3,302.2
888.0,1155,16.7,15.7,93,12.71,96,3.0,299.9,337.3,302.2
887.5,1160,16.7,15.7,94,12.71,97,3.0,299.9,337.3,302.2
886.9,1165,16.6,15.7,94,12.74,98,3.0,299.9,337.4,302.2
886.4,1170,16.6,15.7,95,12.77,99,3.0,299.9,337.5,302.2
885.9,1175,16.5,15.7,95,12.78,100,3.1,299.9,337.5,302.2
885.4,1180,16.5,15.7,95,12.76,101,3.1,299.9,337.4,302.2
884.9,1185,16.5,15.7,95,12.76,102,3.1,299.9,337.5,302.2
884.4,1190,16.5,15.6,95,12.73,103,3.1,300.0,337.4,302.2
883.8,1195,16.5,15.5,94,12.64,104,3.1,300.0,337.2,302.3
883.3,1200,16.5,15.4,93,12.54,105,3.2,300.1,337.0,302.4
882.9,1204,16.5,15.3,92,12.46,105,3.2,300.2,336.9,302.4
882.4,1209,16.5,15.2,92,12.43,106,3.2,300.2,336.9,302.5
881.9,1213,16.5,15.2,92,12.41,107,3.2,300.3,336.9,302.5
881.5,1218,16.5,15.2,92,12.39,108,3.2,300.3,336.8,302.5
881.0,1222,16.5,15.1,91,12.33,108,3.2,300.4,336.7,302.6
880.6,1226,16.5,15.0,91,12.26,109,3.2,300.4,336.6,302.6
880.2,1230,16.5,14.9,90,12.22,110,3.1,300.4,336.5,302.7
879.7,1235,16.5,14.9,90,12.21,110,3.1,300.5,336.5,302.7
879.3,1239,16.5,14.9,90,12.24,111,3.1,300.5,336.6,302.7
878.9,1243,16.5,15.0,91,12.29,111,3.0,300.5,336.8,302.8
878.4,1248,16.5,15.1,91,12.35,112,3.0,300.6,337.0,302.8
877.9,1252,16.5,15.1,92,12.39,112,2.9,300.6,337.2,302.8
877.5,1257,16.4,15.1,92,12.39,112,2.9,300.6,337.2,302.8
877.0,1262,16.4,15.0,92,12.36,113,2.8,300.6,337.1,302.9
876.5,1266,16.4,15.0,91,12.32,113,2.7,300.7,337.1,302.9
876.0,1271,16.4,15.0,91,12.31,114,2.6,300.7,337.1,302.9
875.5,1276,16.4,15.0,91,12.32,114,2.5,300.7,337.1,303.0
875.0,1281,16.4,15.0,92,12.34,115,2.5,300.8,337.2,303.0
874.5,1285,16.4,15.0,91,12.33,116,2.4,300.8,337.3,303.0
874.0,1290,16.4,14.9,91,12.29,117,2.3,300.9,337.2,303.1
873.5,1296,16.3,14.9,91,12.25,117,2.2,300.9,337.1,303.1
873.0,1301,16.3,14.8,91,12.21,118,2.1,300.9,337.0,303.1
872.4,1306,16.3,14.8,91,12.19,119,2.0,300.9,337.0,303.1
871.8,1312,16.3,14.7,91,12.18,121,1.9,301.0,337.0,303.2
871.3,1317,16.2,14.7,91,12.20,122,1.8,301.0,337.1,303.2
870.7,1322,16.2,14.8,91,12.24,124,1.7,301.0,337.3,303.3
870.2,1328,16.2,14.8,92,12.28,126,1.6,301.1,337.4,303.3
869.7,1333,16.2,14.9,92,12.32,128,1.6,301.1,337.5,303.3
869.1,1338,16.1,14.9,92,12.32,131,1.5,301.1,337.6,303.3
868.6,1343,16.1,14.8,92,12.28,133,1.5,301.1,337.5,303.4
868.1,1348,16.1,14.7,91,12.19,136,1.4,301.2,337.3,303.4
867.6,1353,16.1,14.6,90,12.10,139,1.4,301.2,337.1,303.4
867.1,1358,16.1,14.4,90,12.01,142,1.4,301.3,336.9,303.5
866.6,1363,16.1,14.3,89,11.90,145,1.4,301.3,336.6,303.5
866.1,1368,16.1,14.1,88,11.74,147,1.4,301.4,336.2,303.5
865.6,1373,16.1,13.9,87,11.61,149,1.5,301.4,335.9,303.5
865.1,1378,16.1,13.8,86,11.52,152,1.5,301.5,335.7,303.5
864.7,1382,16.1,13.7,86,11.47,153,1.6,301.5,335.5,303.6
864.2,1387,16.0,13.7,86,11.47,155,1.7,301.5,335.5,303.6
863.8,1391,16.0,13.8,87,11.55,156,1.7,301.5,335.8,303.6
863.3,1395,16.0,13.9,87,11.66,157,1.8,301.6,336.1,303.7
862.9,1399,16.0,14.0,88,11.75,157,2.0,301.6,336.4,303.7
862.5,1403,16.0,14.1,89,11.81,157,2.1,301.6,336.6,303.7
862.1,1407,15.9,14.2,89,11.87,157,2.2,301.6,336.8,303.7
861.7,1412,15.9,14.2,90,11.90,157,2.3,301.6,336.9,303.8
861.3,1416,15.9,14.2,90,11.92,157,2.5,301.6,337.0,303.8
860.8,1420,15.9,14.2,90,11.94,156,2.6,301.7,337.1,303.8
860.4,1424,15.8,14.3,91,11.99,156,2.7,301.7,337.2,303.8
860.0,1429,15.8,14.3,91,12.04,155,2.9,301.7,337.4,303.9
859.5,1433,15.8,14.4,91,12.07,154,3.0,301.7,337.5,303.9
859.1,1438,15.8,14.3,91,12.05,153,3.1,301.7,337.5,303.9
858.6,1442,15.8,14.2,90,11.95,152,3.3,301.8,337.2,303.9
858.1,1447,15.8,14.0,89,11.81,151,3.4,301.8,336.9,304.0
857.7,1451,15.8,13.8,88,11.68,150,3.6,301.9,336.6,304.0
857.3,1456,15.8,13.7,87,11.58,149,3.7,302.0,336.4,304.1
856.8,1460,15.9,13.5,86,11.45,147,3.8,302.1,336.2,304.2
856.3,1465,15.9,13.3,84,11.28,146,3.9,302.2,335.8,304.2
855.9,1469,16.0,13.1,83,11.15,144,4.0,302.3,335.5,304.3
855.4,1474,16.0,13.1,82,11.11,143,4.2,302.4,335.5,304.4
854.9,1479,16.0,13.1,83,11.12,141,4.3,302.4,335.6,304.4
854.4,1484,16.0,13.1,83,11.15,140,4.4,302.5,335.7,304.5
853.9,1489,16.0,13.1,83,11.20,138,4.5,302.5,335.9,304.5
853.4,1494,16.0,13.2,84,11.27,137,4.6,302.5,336.1,304.6
852.9,1499,15.9,13.3,85,11.36,135,4.7,302.5,336.4,304.6
852.4,1504,15.9,13.5,85,11.47,134,4.7,302.5,336.7,304.6
851.8,1509,15.9,13.6,86,11.55,132,4.8,302.6,337.0,304.7
851.3,1515,15.8,13.6,87,11.57,131,4.9,302.6,337.0,304.7
850.8,1520,15.8,13.6,87,11.55,130,5.0,302.6,337.0,304.7
850.3,1525,15.7,13.5,87,11.54,129,5.1,302.6,337.0,304.7
850.0,1528,15.7,13.5,87,11.52,129,5.1,302.6,337.0,304.7
849.9,1529,15.7,13.5,87,11.53,127,5.2,302.6,337.0,304.7
849.4,1534,15.7,13.5,87,11.52,126,5.3,302.6,337.0,304.7
848.9,1538,15.7,13.5,87,11.50,125,5.4,302.7,337.0,304.8
848.5,1543,15.7,13.4,87,11.48,124,5.5,302.7,336.9,304.8
848.1,1547,15.6,13.4,87,11.48,124,5.6,302.7,337.0,304.8
847.7,1551,15.6,13.4,87,11.49,123,5.7,302.7,337.0,304.8
847.2,1556,15.6,13.4,87,11.52,123,5.8,302.7,337.1,304.8
846.8,1560,15.6,13.5,87,11.54,122,5.9,302.7,337.2,304.8
846.4,1564,15.5,13.5,88,11.54,122,6.0,302.8,337.2,304.9
846.0,1568,15.5,13.5,88,11.54,122,6.1,302.8,337.2,304.9
845.6,1572,15.5,13.4,88,11.51,122,6.2,302.8,337.1,304.9
845.2,1576,15.4,13.3,87,11.46,122,6.3,302.8,337.0,304.9
844.8,1580,15.4,13.2,87,11.40,122,6.4,302.8,336.8,304.9
844.4,1584,15.4,13.2,87,11.37,122,6.5,302.8,336.8,304.9
844.0,1588,15.4,13.2,87,11.38,122,6.6,302.8,336.8,304.9
843.6,1593,15.4,13.2,87,11.38,122,6.7,302.9,336.9,304.9
843.1,1597,15.3,13.2,87,11.39,122,6.8,302.9,336.9,305.0
842.7,1601,15.3,13.2,87,11.39,122,6.9,302.9,336.9,305.0
842.2,1606,15.3,13.2,87,11.39,122,7.0,302.9,336.9,305.0
841.8,1610,15.3,13.2,87,11.39,122,7.1,302.9,337.0,305.0
841.3,1615,15.2,13.2,88,11.40,122,7.2,303.0,337.0,305.0
840.9,1620,15.2,13.2,88,11.40,122,7.2,303.0,337.0,305.0
840.4,1624,15.1,13.2,88,11.41,122,7.3,303.0,337.0,305.1
840.0,1629,15.1,13.2,88,11.41,122,7.4,303.0,337.1,305.1
839.5,1633,15.1,13.2,88,11.42,122,7.4,303.0,337.1,305.1
839.1,1638,15.0,13.2,89,11.42,122,7.5,303.0,337.1,305.1
838.6,1642,15.0,13.1,89,11.39,122,7.5,303.0,337.0,305.1
838.2,1647,15.0,13.1,89,11.36,122,7.6,303.0,336.9,305.1
837.7,1652,14.9,13.0,89,11.34,122,7.6,303.0,336.9,305.1
837.3,1656,14.9,13.0,89,11.35,121,7.6,303.0,336.9,305.1
836.8,1661,14.8,13.0,89,11.34,121,7.6,303.0,336.9,305.1
836.4,1665,14.8,13.0,89,11.30,121,7.6,303.0,336.8,305.1
836.0,1670,14.8,12.9,89,11.27,120,7.6,303.0,336.7,305.1
835.5,1674,14.7,12.9,89,11.24,120,7.5,303.0,336.6,305.1
835.1,1678,14.7,12.8,88,11.21,120,7.5,303.1,336.6,305.1
834.6,1683,14.7,12.8,88,11.20,119,7.5,303.1,336.6,305.2
834.2,1687,14.7,12.7,88,11.17,119,7.4,303.2,336.6,305.2
833.8,1692,14.8,12.7,87,11.12,119,7.4,303.2,336.5,305.3
833.3,1697,14.8,12.6,87,11.08,119,7.4,303.3,336.5,305.3
832.8,1701,14.8,12.5,86,11.02,118,7.3,303.4,336.4,305.4
832.3,1706,14.8,12.5,86,10.98,118,7.2,303.4,336.3,305.4
831.9,1711,14.8,12.4,86,10.93,118,7.2,303.5,336.2,305.4
831.4,1716,14.7,12.3,86,10.91,118,7.1,303.5,336.2,305.5
830.9,1721,14.7,12.3,86,10.88,118,7.1,303.5,336.1,305.5
830.4,1726,14.7,12.3,86,10.87,118,7.0,303.5,336.1,305.5
829.9,1731,14.6,12.3,86,10.87,118,7.0,303.5,336.1,305.5
829.4,1736,14.6,12.2,86,10.86,118,6.9,303.5,336.1,305.5
828.9,1741,14.5,12.2,86,10.84,118,6.8,303.5,336.0,305.5
828.4,1747,14.5,12.2,86,10.85,119,6.8,303.5,336.0,305.5
827.8,1753,14.4,12.2,87,10.88,119,6.7,303.5,336.1,305.5
827.2,1759,14.4,12.2,87,10.89,120,6.7,303.5,336.2,305.5
826.6,1765,14.3,12.2,87,10.85,120,6.6,303.5,336.1,305.5
826.0,1771,14.3,12.1,87,10.79,121,6.6,303.5,335.9,305.5
825.4,1777,14.2,12.0,86,10.72,122,6.5,303.6,335.7,305.5
824.9,1783,14.2,11.9,86,10.67,122,6.5,303.6,335.6,305.5
824.3,1788,14.1,11.9,86,10.68,123,6.4,303.6,335.6,305.5
823.8,1794,14.1,11.9,87,10.72,124,6.4,303.6,335.7,305.5
823.3,1799,14.0,12.0,88,10.76,125,6.4,303.6,335.8,305.5
822.8,1804,14.0,12.0,88,10.80,126,6.4,303.6,336.0,305.6
822.4,1808,13.9,12.1,89,10.84,127,6.3,303.6,336.1,305.6
821.9,1813,13.9,12.1,89,10.88,128,6.3,303.6,336.2,305.6
821.5,1818,13.9,12.2,90,10.93,128,6.3,303.6,336.3,305.6
821.0,1823,13.8,12.2,90,10.97,129,6.3,303.6,336.5,305.6
820.5,1827,13.8,12.2,90,10.97,130,6.3,303.6,336.5,305.6
820.1,1832,13.7,12.2,90,10.95,131,6.3,303.6,336.4,305.6
819.6,1837,13.7,12.1,90,10.92,131,6.3,303.6,336.4,305.6
819.1,1842,13.7,12.2,91,10.94,132,6.3,303.7,336.5,305.7
