PRES,HGHT,TEMP,DWPT,RELH,MIXR,DRCT,SPED,THTA,THTE,THTV
1011.8,31,20.3,18.4,89,13.30,279,1.0,292.5,330.4,294.8
1011.4,34,20.3,19.0,92,13.80,313,1.1,292.5,331.8,295.0
1010.7,40,20.2,19.0,93,13.77,318,1.2,292.4,331.6,294.9
1009.9,47,20.2,18.9,92,13.71,320,1.3,292.5,331.6,295.0
1009.2,53,20.2,18.7,91,13.53,320,1.4,292.6,331.2,295.0
1008.6,58,20.3,18.4,89,13.36,320,1.4,292.7,330.8,295.1
1008.0,63,20.4,18.2,87,13.17,321,1.5,292.9,330.5,295.2
1007.3,69,20.6,18.0,85,12.99,321,1.5,293.1,330.2,295.4
1006.6,75,20.8,17.8,83,12.82,322,1.6,293.3,330.0,295.6
1005.9,81,21.0,17.7,81,12.75,323,1.6,293.7,330.2,295.9
1005.3,87,21.2,17.6,80,12.71,324,1.6,293.9,330.3,296.1
1004.6,92,21.2,17.6,80,12.69,326,1.7,293.9,330.3,296.2
1004.0,98,21.1,17.6,80,12.71,327,1.7,293.9,330.4,296.2
1003.3,103,21.1,17.6,81,12.75,329,1.7,294.0,330.5,296.2
1002.7,109,21.1,17.6,81,12.76,330,1.7,294.0,330.6,296.2
1002.1,114,21.0,17.7,81,12.79,332,1.7,294.0,330.7,296.3
1001.5,119,21.0,17.7,81,12.81,335,1.7,294.0,330.8,296.3
1000.9,125,21.0,17.7,82,12.85,337,1.6,294.0,330.9,296.3
1000.3,130,20.9,17.7,82,12.88,340,1.6,294.0,331.0,296.3
1000.0,132,20.9,17.8,82,12.89,343,1.6,294.1,331.0,296.3
999.6,135,20.9,17.8,82,12.90,343,1.6,294.1,331.1,296.4
999.0,141,20.9,17.8,83,12.93,346,1.5,294.1,331.2,296.4
998.4,146,20.8,17.8,83,12.94,350,1.5,294.1,331.2,296.4
997.8,152,20.7,17.7,83,12.91,354,1.5,294.1,331.1,296.4
997.2,157,20.7,17.7,83,12.91,358,1.4,294.1,331.1,296.4
996.6,162,20.7,17.7,83,12.92,3,1.4,294.1,331.2,296.4
996.0,167,20.6,17.7,83,12.89,9,1.3,294.1,331.1,296.4
995.4,172,20.6,17.7,83,12.88,15,1.3,294.2,331.1,296.4
994.9,177,20.6,17.6,83,12.84,22,1.3,294.2,331.0,296.4
994.3,182,20.5,17.5,83,12.76,29,1.3,294.2,330.8,296.4
993.7,187,20.6,17.4,82,12.70,36,1.3,294.3,330.8,296.5
993.1,193,20.6,17.4,82,12.68,43,1.3,294.4,330.8,296.6
992.5,198,20.6,17.3,82,12.63,49,1.4,294.4,330.7,296.6
991.9,203,20.5,17.2,81,12.54,56,1.4,294.4,330.4,296.6
991.2,208,20.5,17.2,81,12.54,62,1.5,294.4,330.5,296.6
990.6,214,20.5,17.2,82,12.59,68,1.6,294.4,330.6,296.6
990.0,219,20.4,17.3,82,12.64,73,1.7,294.4,330.7,296.6
989.4,224,20.3,17.3,83,12.63,77,1.8,294.4,330.7,296.6
988.8,230,20.3,17.2,83,12.58,81,1.9,294.4,330.5,296.6
988.2,235,20.2,17.2,82,12.55,84,2.0,294.4,330.5,296.6
987.6,240,20.2,17.1,82,12.54,87,2.1,294.4,330.5,296.6
987.0,245,20.2,17.1,83,12.55,90,2.2,294.4,330.5,296.6
986.5,250,20.2,17.2,83,12.58,92,2.3,294.5,330.6,296.7
985.9,255,20.2,17.2,83,12.60,94,2.4,294.5,330.7,296.7
985.3,260,20.1,17.1,83,12.51,96,2.5,294.5,330.5,296.7
984.7,265,20.1,16.8,82,12.33,97,2.6,294.5,330.0,296.7
984.2,270,20.2,16.7,80,12.21,99,2.7,294.6,329.8,296.8
983.6,275,20.2,16.7,81,12.26,100,2.8,294.7,330.0,296.9
983.0,281,20.0,16.9,82,12.40,100,2.9,294.6,330.3,296.8
982.4,286,19.9,17.0,83,12.48,101,3.0,294.5,330.4,296.7
981.8,291,19.8,17.0,84,12.51,102,3.1,294.5,330.5,296.7
981.3,296,19.8,16.9,84,12.45,102,3.1,294.5,330.3,296.7
980.7,301,19.8,16.7,83,12.30,102,3.2,294.5,329.9,296.7
980.1,307,19.8,16.4,81,12.09,102,3.3,294.6,329.5,296.8
979.5,312,19.8,16.2,80,11.92,102,3.3,294.7,329.0,296.8
978.9,317,19.8,16.1,79,11.80,102,3.3,294.8,328.8,296.8
978.3,322,19.8,15.9,78,11.70,102,3.4,294.8,328.5,296.9
977.7,327,19.8,16.0,79,11.75,102,3.4,294.8,328.7,296.9
977.2,332,19.8,16.2,80,11.93,102,3.4,294.8,329.2,297.0
976.6,337,19.7,16.3,81,11.99,102,3.4,294.8,329.4,296.9
976.0,342,19.6,16.3,81,12.00,102,3.5,294.8,329.4,296.9
975.4,348,19.5,16.3,82,12.06,102,3.5,294.7,329.5,296.9
974.8,353,19.4,16.3,82,12.06,101,3.5,294.7,329.4,296.8
974.2,358,19.4,16.0,81,11.85,101,3.5,294.7,328.9,296.8
973.6,364,19.5,15.7,79,11.58,101,3.5,294.9,328.3,296.9
973.0,369,19.5,15.5,78,11.45,101,3.5,294.9,328.0,297.0
972.4,374,19.5,15.5,78,11.43,100,3.5,294.9,328.0,297.0
971.8,380,19.4,15.3,77,11.32,100,3.4,294.9,327.6,296.9
971.2,385,19.4,15.0,76,11.10,100,3.4,295.0,327.0,296.9
970.6,391,19.4,14.8,75,10.93,100,3.4,295.0,326.6,297.0
970.0,396,19.3,14.6,74,10.86,100,3.4,295.0,326.5,297.0
969.4,401,19.3,14.7,75,10.89,100,3.4,295.1,326.5,297.0
968.8,406,19.3,14.8,75,10.96,100,3.4,295.1,326.8,297.0
968.2,412,19.2,14.9,76,11.03,100,3.4,295.1,327.0,297.0
967.6,417,19.2,15.0,77,11.11,99,3.3,295.1,327.2,297.0
967.1,422,19.1,15.0,77,11.12,99,3.3,295.0,327.2,297.0
966.5,426,19.1,14.9,77,11.05,99,3.3,295.1,327.0,297.0
966.0,431,19.0,14.8,76,11.00,98,3.3,295.1,326.9,297.0
965.4,436,19.0,14.8,77,11.00,98,3.3,295.1,326.9,297.0
964.9,441,18.9,14.8,77,11.06,97,3.3,295.0,327.0,297.0
964.3,446,18.9,14.9,78,11.09,97,3.3,295.0,327.1,297.0
963.7,452,18.8,14.8,77,11.01,96,3.3,295.1,326.9,297.0
963.1,457,18.8,14.7,77,10.95,95,3.3,295.1,326.7,297.0
962.5,463,18.7,14.6,77,10.90,95,3.3,295.1,326.6,297.0
961.8,469,18.7,14.5,77,10.87,94,3.3,295.1,326.6,297.0
961.1,475,18.6,14.5,77,10.89,93,3.3,295.1,326.6,297.0
960.5,480,18.6,14.6,78,10.96,92,3.3,295.1,326.8,297.0
959.9,486,18.5,14.8,79,11.07,91,3.3,295.1,327.1,297.0
959.2,492,18.4,14.9,80,11.15,89,3.4,295.1,327.3,297.0
958.6,497,18.4,15.0,81,11.28,88,3.4,295.0,327.6,297.0
958.0,502,18.3,15.2,82,11.40,87,3.4,295.0,328.0,297.1
957.4,508,18.2,15.2,83,11.45,86,3.5,295.0,328.1,297.1
956.9,513,18.2,15.2,83,11.46,85,3.5,295.0,328.1,297.0
956.3,518,18.1,15.2,83,11.43,84,3.6,295.0,328.0,297.0
955.7,523,18.1,15.1,83,11.36,83,3.6,295.0,327.8,297.0
955.1,529,18.1,14.9,82,11.21,82,3.7,295.0,327.4,297.0
954.5,534,18.1,14.7,81,11.06,81,3.7,295.1,327.1,297.1
953.9,539,18.0,14.4,79,10.88,80,3.8,295.1,326.6,297.1
953.3,545,18.0,13.7,76,10.37,79,3.9,295.2,325.2,297.0
952.7,551,18.1,12.7,71,9.75,78,4.0,295.3,323.6,297.1
952.0,556,18.2,11.8,66,9.17,78,4.1,295.5,322.2,297.1
951.4,562,18.4,10.9,62,8.63,77,4.2,295.7,320.9,297.2
950.8,568,18.6,10.3,59,8.30,76,4.3,295.9,320.2,297.4
950.2,573,18.6,10.2,58,8.22,76,4.4,296.0,320.1,297.5
949.6,578,18.6,10.2,58,8.25,75,4.5,296.1,320.2,297.5
949.0,583,18.6,10.2,58,8.28,75,4.6,296.1,320.3,297.6
948.5,588,18.5,10.2,58,8.26,75,4.7,296.1,320.3,297.6
948.0,593,18.5,10.1,58,8.23,74,4.8,296.1,320.2,297.6
947.5,598,18.5,10.0,58,8.18,74,4.9,296.1,320.1,297.6
947.0,602,18.5,9.9,57,8.12,74,5.1,296.2,320.0,297.7
946.4,607,18.6,9.8,57,8.05,74,5.2,296.3,320.0,297.8
945.9,612,18.7,9.6,56,7.98,73,5.3,296.5,319.9,297.9
945.3,617,18.7,9.5,55,7.90,73,5.5,296.6,319.8,298.0
944.8,622,18.8,9.4,54,7.83,73,5.6,296.7,319.8,298.1
944.2,627,18.9,9.3,54,7.81,73,5.8,296.9,319.9,298.3
943.6,633,18.9,9.2,53,7.78,72,5.9,297.0,319.9,298.4
943.0,639,19.0,9.2,53,7.74,72,6.0,297.0,319.9,298.4
942.3,644,19.0,9.1,53,7.71,72,6.2,297.2,319.9,298.5
941.7,650,19.0,9.0,52,7.69,72,6.3,297.2,319.9,298.6
941.1,655,19.0,9.0,52,7.69,72,6.4,297.3,319.9,298.6
940.6,660,19.0,9.0,52,7.70,71,6.6,297.3,320.0,298.7
940.0,666,19.0,9.0,53,7.70,71,6.7,297.3,320.0,298.7
939.4,671,18.9,9.0,52,7.67,71,6.8,297.3,320.0,298.7
938.9,676,18.9,8.9,52,7.64,71,7.0,297.4,319.9,298.7
938.3,681,18.9,8.8,52,7.61,71,7.1,297.4,319.9,298.8
937.8,686,18.9,8.8,52,7.59,70,7.2,297.4,319.9,298.8
937.2,691,18.9,8.7,52,7.57,70,7.3,297.5,319.8,298.8
936.7,696,18.9,8.7,52,7.56,70,7.4,297.5,319.8,298.9
936.2,701,18.8,8.7,52,7.55,70,7.5,297.5,319.8,298.9
935.7,705,18.8,8.7,52,7.54,70,7.6,297.6,319.9,298.9
935.1,710,18.8,8.6,51,7.51,70,7.6,297.6,319.8,298.9
934.7,715,18.8,8.5,51,7.45,69,7.7,297.6,319.7,299.0
934.2,719,18.8,8.4,51,7.41,69,7.8,297.7,319.6,299.0
933.7,723,18.8,8.3,50,7.37,69,7.8,297.8,319.6,299.1
933.2,728,18.8,8.2,50,7.35,69,7.9,297.8,319.5,299.1
932.7,732,18.8,8.2,50,7.33,69,7.9,297.8,319.5,299.1
932.3,736,18.8,8.2,50,7.31,69,8.0,297.8,319.5,299.1
931.8,741,18.8,8.1,50,7.31,68,8.0,297.9,319.5,299.2
931.3,745,18.8,8.2,50,7.32,68,8.0,297.9,319.6,299.2
930.8,750,18.8,8.1,50,7.32,68,8.1,297.9,319.6,299.3
930.4,754,18.7,8.1,50,7.31,68,8.1,297.9,319.6,299.3
929.9,759,18.7,8.1,50,7.31,68,8.1,297.9,319.6,299.3
929.4,763,18.6,8.1,50,7.31,68,8.1,297.9,319.6,299.3
928.9,767,18.6,8.2,51,7.34,67,8.1,298.0,319.7,299.3
928.4,772,18.6,8.2,51,7.37,67,8.1,298.0,319.8,299.3
927.9,777,18.5,8.2,51,7.39,67,8.1,298.0,319.9,299.3
927.4,781,18.5,8.2,51,7.38,67,8.1,298.0,319.8,299.3
926.9,786,18.4,8.1,51,7.33,67,8.1,298.0,319.7,299.3
926.5,790,18.4,8.0,50,7.26,67,8.1,298.0,319.6,299.3
926.0,794,18.4,7.9,50,7.23,66,8.1,298.1,319.5,299.4
925.6,798,18.4,7.9,50,7.23,66,8.1,298.1,319.5,299.4
925.2,802,18.4,7.9,50,7.23,66,8.1,298.1,319.5,299.4
925.0,804,18.4,7.9,50,7.23,66,8.1,298.1,319.5,299.4
924.8,806,18.3,7.9,50,7.22,66,8.1,298.1,319.5,299.4
924.4,809,18.3,7.8,50,7.20,65,8.1,298.1,319.4,299.4
924.0,813,18.3,7.8,50,7.19,65,8.1,298.1,319.4,299.4
923.5,817,18.3,7.8,50,7.21,65,8.0,298.1,319.5,299.4
923.1,821,18.2,7.8,51,7.21,65,8.0,298.1,319.5,299.4
922.6,826,18.2,7.8,51,7.20,65,8.0,298.1,319.5,299.4
922.2,830,18.1,7.7,51,7.19,64,8.0,298.1,319.4,299.4
921.7,834,18.1,7.7,51,7.17,64,7.9,298.1,319.4,299.4
921.2,839,18.1,7.7,51,7.16,64,7.9,298.1,319.4,299.4
920.8,843,18.0,7.6,51,7.14,64,7.9,298.1,319.3,299.4
920.3,847,18.0,7.6,50,7.13,63,7.9,298.2,319.4,299.5
919.8,852,18.0,7.6,50,7.12,63,7.8,298.2,319.3,299.5
919.3,856,18.0,7.5,50,7.10,63,7.8,298.2,319.3,299.5
918.9,860,18.0,7.5,50,7.08,62,7.8,298.3,319.3,299.5
918.4,865,18.0,7.4,50,7.05,62,7.7,298.3,319.3,299.6
918.0,869,18.0,7.4,50,7.03,62,7.7,298.3,319.2,299.6
917.5,873,18.0,7.3,50,7.00,62,7.7,298.4,319.2,299.6
917.1,877,18.0,7.3,50,7.00,61,7.6,298.4,319.2,299.6
916.6,882,17.9,7.2,50,6.97,61,7.6,298.4,319.1,299.7
916.1,886,18.0,7.1,49,6.94,60,7.6,298.5,319.2,299.8
915.6,891,18.0,7.1,49,6.91,60,7.5,298.6,319.2,299.8
915.1,896,18.1,7.0,48,6.89,60,7.5,298.7,319.2,299.9
914.6,900,18.1,6.9,48,6.86,59,7.4,298.7,319.2,300.0
914.1,905,18.0,6.9,48,6.83,59,7.4,298.7,319.1,300.0
913.6,910,18.0,6.9,48,6.85,58,7.3,298.8,319.2,300.0
913.0,915,17.9,6.9,49,6.87,58,7.3,298.8,319.2,300.0
912.5,920,17.9,7.0,49,6.89,57,7.2,298.8,319.3,300.0
912.0,925,17.8,7.0,49,6.89,57,7.2,298.8,319.3,300.0
911.5,930,17.8,6.9,49,6.88,56,7.1,298.7,319.3,300.0
911.0,934,17.7,6.9,49,6.87,56,7.1,298.7,319.2,300.0
910.5,939,17.7,6.9,49,6.86,55,7.0,298.7,319.2,300.0
910.0,943,17.7,6.9,49,6.85,55,7.0,298.8,319.2,300.0
909.6,948,17.6,6.8,49,6.84,54,6.9,298.8,319.2,300.0
909.1,952,17.6,6.8,49,6.84,53,6.9,298.8,319.2,300.0
908.6,956,17.6,6.8,49,6.83,53,6.8,298.8,319.2,300.1
908.2,961,17.6,6.7,49,6.81,52,6.7,298.9,319.2,300.1
907.7,965,17.6,6.7,49,6.79,51,6.7,298.9,319.2,300.1
907.2,970,17.6,6.6,48,6.76,51,6.6,299.0,319.2,300.2
906.7,975,17.7,6.6,48,6.74,50,6.6,299.1,319.2,300.3
906.2,980,17.7,6.5,48,6.73,49,6.5,299.1,319.2,300.3
905.7,984,17.6,6.5,48,6.73,49,6.5,299.1,319.2,300.4
905.1,989,17.6,6.5,48,6.73,48,6.4,299.1,319.2,300.4
904.6,994,17.5,6.5,48,6.72,47,6.4,299.1,319.2,300.4
904.1,999,17.5,6.5,48,6.72,46,6.3,299.1,319.2,300.4
903.6,1004,17.5,6.5,48,6.72,46,6.3,299.2,319.3,300.4
903.1,1008,17.5,6.5,48,6.72,45,6.3,299.2,319.3,300.4
902.6,1013,17.4,6.5,48,6.72,45,6.2,299.2,319.3,300.4
902.2,1017,17.4,6.4,49,6.71,44,6.2,299.2,319.3,300.4
901.7,1022,17.4,6.4,49,6.71,43,6.2,299.2,319.3,300.4
901.2,1027,17.4,6.4,49,6.71,43,6.1,299.3,319.3,300.5
900.7,1031,17.4,6.4,49,6.71,42,6.1,299.3,319.4,300.5
900.2,1036,17.3,6.4,49,6.72,42,6.1,299.3,319.4,300.5
899.6,1041,17.3,6.4,49,6.73,41,6.1,299.3,319.5,300.6
899.1,1046,17.2,6.4,49,6.73,41,6.0,299.3,319.5,300.5
898.6,1051,17.2,6.4,49,6.72,41,6.0,299.3,319.4,300.5
898.1,1056,17.1,6.3,49,6.69,40,6.0,299.3,319.3,300.5
897.6,1060,17.1,6.3,49,6.69,40,6.0,299.3,319.3,300.5
897.2,1065,17.0,6.4,49,6.71,40,6.0,299.3,319.4,300.5
896.7,1069,17.0,6.4,50,6.73,39,6.0,299.3,319.4,300.5
896.2,1074,16.9,6.4,50,6.74,39,6.0,299.3,319.4,300.5
895.7,1079,16.9,6.4,50,6.74,39,5.9,299.3,319.5,300.5
895.2,1083,16.8,6.4,50,6.73,39,5.9,299.3,319.4,300.5
894.8,1088,16.8,6.3,50,6.72,38,5.9,299.3,319.4,300.5
894.3,1092,16.8,6.3,50,6.72,38,5.9,299.3,319.4,300.5
893.8,1097,16.7,6.3,50,6.72,38,5.9,299.3,319.4,300.5
893.3,1102,16.7,6.3,50,6.71,38,5.9,299.3,319.4,300.5
892.8,1107,16.6,6.3,50,6.71,37,5.9,299.3,319.4,300.5
892.3,1111,16.6,6.3,50,6.71,37,5.8,299.3,319.4,300.5
891.8,1116,16.6,6.3,51,6.72,37,5.8,299.3,319.4,300.5
891.3,1121,16.5,6.3,51,6.72,37,5.8,299.3,319.4,300.5
890.7,1126,16.5,6.3,51,6.72,37,5.8,299.3,319.5,300.6
890.2,1131,16.4,6.3,51,6.74,37,5.8,299.3,319.5,300.6
889.6,1137,16.4,6.3,51,6.74,36,5.8,299.3,319.5,300.6
889.1,1142,16.3,6.3,51,6.73,36,5.7,299.3,319.5,300.6
888.5,1147,16.3,6.3,52,6.73,36,5.7,299.3,319.5,300.6
887.9,1153,16.2,6.3,52,6.74,36,5.7,299.3,319.5,300.6
887.3,1159,16.2,6.2,52,6.73,36,5.7,299.4,319.5,300.6
886.8,1164,16.1,6.2,52,6.72,36,5.7,299.4,319.4,300.6
886.2,1169,16.1,6.2,52,6.71,36,5.6,299.4,319.4,300.6
885.7,1175,16.0,6.1,52,6.70,36,5.6,299.4,319.4,300.6
885.1,1180,16.0,6.1,52,6.69,35,5.6,299.4,319.4,300.6
884.6,1185,15.9,6.1,52,6.70,35,5.5,299.4,319.4,300.6
884.0,1190,15.9,6.2,52,6.73,35,5.5,299.4,319.5,300.6
883.5,1196,15.8,6.2,53,6.75,35,5.4,299.4,319.6,300.6
882.9,1201,15.8,6.2,53,6.75,35,5.4,299.4,319.6,300.6
882.4,1206,15.7,6.2,53,6.74,35,5.3,299.4,319.5,300.6
881.8,1212,15.7,6.2,53,6.75,35,5.3,299.4,319.6,300.6
881.3,1217,15.6,6.2,54,6.77,34,5.2,299.4,319.6,300.6
880.7,1222,15.6,6.3,54,6.80,34,5.1,299.4,319.7,300.6
880.2,1227,15.5,6.3,54,6.81,34,5.1,299.4,319.8,300.6
879.6,1233,15.5,6.3,54,6.80,34,5.0,299.4,319.8,300.6
879.1,1238,15.4,6.2,54,6.80,34,4.9,299.4,319.7,300.6
878.5,1243,15.4,6.2,54,6.79,33,4.8,299.4,319.7,300.6
878.0,1248,15.3,6.2,54,6.79,33,4.7,299.4,319.7,300.6
877.5,1253,15.3,6.2,55,6.81,33,4.6,299.4,319.8,300.6
877.0,1259,15.2,6.2,55,6.81,32,4.5,299.4,319.8,300.6
876.4,1264,15.2,6.2,55,6.80,32,4.4,299.4,319.7,300.6
875.9,1269,15.1,6.2,55,6.78,31,4.3,299.4,319.7,300.6
875.4,1274,15.1,6.1,55,6.77,30,4.2,299.4,319.7,300.6
874.9,1279,15.0,6.1,55,6.76,30,4.1,299.4,319.6,300.6
874.3,1284,15.0,6.1,55,6.76,29,3.9,299.4,319.6,300.6
873.8,1289,15.0,6.1,55,6.77,28,3.8,299.4,319.7,300.7
873.3,1294,14.9,6.1,56,6.78,28,3.7,299.4,319.7,300.7
872.7,1300,14.9,6.1,56,6.79,27,3.6,299.4,319.7,300.7
872.2,1305,14.8,6.1,56,6.80,26,3.5,299.4,319.7,300.7
871.6,1310,14.7,6.1,56,6.79,25,3.4,299.4,319.7,300.6
871.1,1315,14.7,6.1,56,6.77,25,3.3,299.4,319.7,300.6
870.6,1321,14.7,6.0,56,6.77,24,3.1,299.4,319.7,300.7
870.0,1326,14.6,6.0,56,6.77,23,3.0,299.5,319.7,300.7
869.5,1331,14.6,6.1,57,6.79,22,2.9,299.5,319.8,300.7
868.9,1337,14.5,6.1,57,6.79,22,2.8,299.5,319.8,300.7
868.3,1342,14.5,6.0,57,6.78,21,2.7,299.5,319.7,300.7
867.8,1348,14.4,6.0,57,6.76,20,2.6,299.5,319.7,300.7
867.2,1353,14.4,5.9,57,6.75,20,2.6,299.5,319.7,300.7
866.6,1359,14.4,6.0,57,6.76,19,2.5,299.5,319.7,300.7
866.1,1364,14.3,6.0,57,6.77,19,2.4,299.5,319.8,300.8
865.5,1370,14.3,5.9,57,6.75,19,2.3,299.6,319.8,300.8
865.0,1375,14.3,5.9,57,6.74,19,2.2,299.6,319.8,300.8
864.5,1380,14.3,5.9,57,6.74,18,2.2,299.6,319.8,300.8
863.9,1385,14.2,5.9,57,6.77,18,2.1,299.6,319.9,300.8
863.4,1390,14.2,6.0,58,6.79,18,2.0,299.6,319.9,300.9
862.9,1395,14.1,6.0,58,6.81,18,2.0,299.6,320.0,300.9
862.4,1401,14.1,6.0,58,6.82,18,1.9,299.6,320.0,300.8
861.8,1406,14.0,6.0,58,6.80,19,1.9,299.6,320.0,300.8
861.3,1411,13.9,5.9,58,6.77,19,1.8,299.6,319.9,300.8
860.7,1417,13.9,5.9,58,6.76,19,1.8,299.6,319.8,300.8
860.1,1422,13.9,5.8,58,6.75,19,1.7,299.7,319.9,300.9
859.6,1428,14.0,5.8,58,6.76,19,1.7,299.8,320.1,301.0
858.9,1434,14.0,5.8,58,6.74,19,1.6,299.9,320.1,301.1
858.3,1440,13.9,5.8,58,6.73,20,1.6,299.9,320.0,301.1
857.7,1446,13.8,5.7,58,6.73,20,1.6,299.9,320.0,301.1
857.1,1452,13.8,5.7,58,6.72,20,1.5,299.9,320.0,301.1
856.5,1458,13.7,5.7,58,6.71,20,1.5,299.9,320.0,301.1
856.0,1463,13.7,5.6,58,6.68,20,1.4,299.9,319.9,301.1
855.4,1469,13.8,5.6,58,6.69,20,1.4,300.0,320.1,301.2
854.8,1474,13.8,5.6,58,6.68,21,1.3,300.1,320.1,301.3
854.3,1480,13.8,5.5,58,6.66,21,1.3,300.1,320.1,301.3
853.8,1485,13.7,5.6,58,6.67,21,1.2,300.1,320.1,301.3
853.2,1490,13.7,5.6,58,6.68,22,1.2,300.1,320.1,301.3
852.7,1496,13.6,5.6,58,6.69,23,1.1,300.1,320.2,301.3
852.1,1501,13.6,5.6,59,6.72,24,1.1,300.2,320.3,301.4
851.5,1507,13.6,5.6,59,6.73,25,1.0,300.2,320.4,301.4
850.9,1513,13.5,5.7,59,6.76,27,0.9,300.2,320.5,301.4
850.3,1519,13.5,5.8,60,6.83,29,0.9,300.3,320.8,301.5
850.0,1522,13.5,5.9,60,6.86,32,0.8,300.3,320.9,301.5
849.6,1526,13.5,6.0,60,6.91,32,0.8,300.4,321.1,301.6
849.0,1532,13.5,6.0,60,6.93,36,0.7,300.4,321.2,301.6
848.4,1538,13.5,6.0,60,6.91,41,0.7,300.4,321.1,301.6
847.8,1544,13.4,5.9,60,6.88,48,0.6,300.4,321.0,301.6
847.3,1549,13.4,5.8,60,6.86,55,0.6,300.4,321.0,301.6
846.7,1555,13.3,5.8,60,6.86,64,0.6,300.4,321.0,301.7
846.2,1560,13.3,5.8,61,6.87,74,0.6,300.4,321.0,301.7
845.7,1565,13.2,5.8,61,6.86,83,0.6,300.4,321.0,301.7
845.2,1570,13.2,5.8,61,6.85,92,0.6,300.4,321.0,301.7
844.7,1574,13.1,5.8,61,6.85,99,0.7,300.4,321.0,301.6
844.3,1579,13.1,5.8,61,6.86,105,0.7,300.4,321.0,301.6
843.8,1584,13.0,5.8,62,6.87,109,0.8,300.4,321.0,301.6
843.3,1589,13.0,5.8,62,6.87,112,0.9,300.4,321.0,301.7
842.8,1594,12.9,5.8,62,6.86,114,0.9,300.4,321.0,301.7
842.3,1599,12.9,5.7,62,6.84,116,1.0,300.4,320.9,301.6
841.8,1604,12.8,5.7,62,6.85,117,1.1,300.4,320.9,301.6
841.3,1609,12.8,5.8,63,6.89,117,1.2,300.4,321.0,301.6
840.8,1614,12.7,5.8,63,6.91,116,1.2,300.4,321.1,301.6
840.3,1619,12.7,5.8,63,6.91,116,1.3,300.4,321.1,301.6
839.8,1624,12.6,5.8,63,6.92,115,1.4,300.4,321.1,301.6
839.3,1629,12.6,5.9,64,6.94,114,1.4,300.4,321.2,301.6
838.7,1634,12.5,5.9,64,6.97,112,1.5,300.4,321.3,301.7
838.2,1640,12.5,5.9,64,6.99,111,1.6,300.4,321.3,301.6
837.7,1645,12.4,5.9,65,6.97,110,1.7,300.4,321.3,301.6
837.1,1650,12.4,6.0,65,7.01,108,1.8,300.4,321.4,301.7
836.6,1656,12.4,6.1,66,7.08,107,1.8,300.4,321.6,301.7
836.0,1662,12.3,6.1,66,7.08,106,1.9,300.5,321.7,301.8
835.5,1667,12.3,6.1,66,7.07,104,2.0,300.5,321.7,301.8
834.9,1673,12.3,6.0,66,7.06,104,2.1,300.5,321.7,301.8
834.4,1678,12.2,6.0,66,7.05,103,2.2,300.5,321.6,301.8
833.8,1684,12.2,6.0,66,7.04,103,2.3,300.5,321.6,301.8
833.3,1689,12.1,6.0,66,7.04,102,2.4,300.5,321.7,301.8
832.7,1695,12.1,6.0,66,7.04,102,2.6,300.6,321.7,301.8
832.2,1701,12.0,5.9,66,7.03,103,2.7,300.5,321.6,301.8
831.6,1706,12.0,5.9,66,7.02,103,2.8,300.5,321.6,301.8
831.1,1711,11.9,5.8,66,6.99,104,3.0,300.5,321.5,301.8
830.6,1716,11.9,5.8,66,6.98,105,3.1,300.5,321.5,301.8
830.1,1721,11.9,5.8,66,6.97,106,3.2,300.6,321.5,301.9
829.7,1726,11.9,5.7,66,6.95,107,3.4,300.7,321.5,301.9
829.2,1730,11.9,5.7,66,6.94,109,3.6,300.7,321.6,302.0
828.8,1735,11.9,5.7,66,6.97,110,3.8,300.8,321.7,302.0
828.3,1739,11.8,5.8,67,7.00,111,3.9,300.7,321.8,302.0
827.9,1744,11.8,5.8,67,7.02,113,4.1,300.7,321.8,302.0
827.4,1749,11.7,5.8,67,7.03,114,4.3,300.7,321.7,301.9
826.9,1753,11.6,5.9,68,7.04,115,4.5,300.6,321.8,301.9
826.4,1758,11.6,5.9,68,7.07,117,4.7,300.7,321.9,302.0
826.0,1763,11.6,5.9,68,7.08,118,4.9,300.7,322.0,302.0
825.5,1768,11.6,5.9,68,7.05,119,5.1,300.8,322.0,302.1
825.0,1773,11.6,5.8,67,7.00,120,5.3,300.8,321.8,302.1
824.6,1777,11.6,5.7,67,6.98,121,5.5,300.8,321.8,302.1
824.1,1782,11.5,5.7,67,6.98,122,5.7,300.8,321.8,302.1
823.7,1786,11.5,5.7,67,6.98,122,5.9,300.9,321.8,302.1
823.3,1790,11.5,5.7,68,6.98,123,6.0,300.9,321.8,302.1
822.8,1795,11.4,5.7,68,6.99,124,6.2,300.9,321.9,302.2
822.4,1799,11.4,5.7,68,6.99,124,6.3,300.9,321.9,302.1
822.0,1803,11.3,5.6,68,6.97,125,6.5,300.9,321.8,302.1
821.6,1808,11.3,5.5,67,6.93,125,6.6,300.9,321.7,302.2
821.1,1812,11.5,5.6,67,6.95,125,6.7,301.1,322.0,302.4
820.7,1817,11.6,5.6,67,6.96,126,6.8,301.2,322.2,302.5
820.2,1821,11.6,5.6,67,6.95,126,6.9,301.3,322.2,302.6
819.8,1826,11.5,5.5,67,6.93,126,7.0,301.3,322.2,302.5
819.3,1831,11.5,5.5,66,6.91,126,7.0,301.3,322.1,302.6
818.9,1835,11.5,5.4,66,6.88,126,7.1,301.3,322.0,302.6
818.5,1840,11.5,5.4,66,6.88,127,7.1,301.4,322.1,302.6
818.0,1844,11.5,5.4,66,6.90,127,7.2,301.4,322.2,302.7
817.6,1848,11.4,5.4,67,6.91,127,7.2,301.4,322.2,302.7
817.2,1853,11.4,5.4,67,6.91,127,7.2,301.4,322.2,302.7
816.8,1857,11.3,5.4,67,6.89,127,7.3,301.4,322.2,302.7
816.3,1861,11.3,5.3,67,6.87,127,7.3,301.4,322.1,302.7
815.9,1865,11.3,5.3,67,6.86,128,7.3,301.4,322.1,302.7
815.5,1869,11.2,5.3,67,6.87,128,7.3,301.5,322.2,302.7
815.1,1873,11.2,5.3,67,6.88,128,7.3,301.5,322.2,302.7
814.7,1878,11.2,5.3,67,6.87,128,7.4,301.5,322.1,302.7
814.3,1882,11.1,5.3,67,6.85,128,7.4,301.5,322.1,302.7
813.9,1886,11.1,5.3,67,6.86,128,7.4,301.5,322.1,302.7
