PRES,HGHT,TEMP,DWPT,RELH,MIXR,DRCT,SPED,THTA,THTE,THTV
1013.8,31,27.0,20.4,67,15.03,86,4.3,299.0,343.0,301.7
1013.2,36,26.4,20.5,70,15.15,73,3.4,298.4,342.6,301.1
1012.8,40,25.8,20.3,72,14.98,67,3.2,297.9,341.5,300.5
1012.2,44,25.3,20.1,73,14.81,65,3.4,297.4,340.5,300.1
1011.4,51,25.0,19.9,73,14.63,65,3.6,297.2,339.7,299.8
1010.7,57,25.0,19.7,73,14.43,65,3.8,297.2,339.1,299.8
1010.3,61,25.0,19.6,72,14.34,66,4.0,297.3,339.0,299.8
1009.7,66,25.1,19.6,71,14.33,65,4.2,297.4,339.1,300.0
1009.2,71,25.1,19.5,71,14.26,65,4.4,297.5,339.0,300.1
1008.6,76,25.1,19.4,70,14.18,65,4.5,297.6,338.9,300.1
1008.0,81,25.1,19.4,70,14.16,65,4.7,297.6,338.8,300.1
1007.4,86,25.1,19.3,70,14.15,64,4.8,297.7,338.9,300.2
1006.9,91,25.2,19.4,70,14.18,64,4.9,297.7,339.0,300.2
1006.3,96,25.0,19.3,70,14.11,64,5.1,297.6,338.7,300.2
1005.7,101,24.8,19.0,70,13.91,64,5.2,297.4,337.9,299.9
1005.1,107,24.6,19.0,71,13.90,63,5.2,297.3,337.8,299.8
1004.5,112,24.6,19.1,72,13.97,63,5.3,297.3,338.0,299.8
1003.9,117,24.5,19.0,72,13.93,63,5.4,297.3,337.8,299.8
1003.4,122,24.3,18.8,72,13.76,63,5.5,297.1,337.1,299.6
1002.8,126,24.1,18.7,72,13.63,63,5.5,297.0,336.6,299.4
1002.3,131,24.0,18.6,72,13.62,62,5.6,297.0,336.5,299.4
1001.7,136,24.0,18.7,72,13.65,62,5.6,297.0,336.6,299.4
1001.2,141,23.9,18.7,72,13.64,62,5.6,297.0,336.6,299.4
1000.6,146,23.9,18.6,72,13.57,62,5.7,297.0,336.4,299.4
1000.0,151,23.9,18.5,72,13.54,62,5.7,297.0,336.4,299.4
999.4,156,23.8,18.5,72,13.56,62,5.7,297.0,336.4,299.4
998.9,161,23.8,18.5,73,13.58,61,5.8,297.0,336.4,299.4
998.3,166,23.7,18.6,73,13.59,61,5.8,297.0,336.5,299.4
997.7,171,23.7,18.6,73,13.62,61,5.8,297.0,336.6,299.4
997.2,176,23.6,18.5,73,13.59,61,5.8,297.0,336.5,299.4
996.6,181,23.6,18.5,73,13.56,61,5.8,297.0,336.4,299.4
996.1,185,23.5,18.5,73,13.54,61,5.8,297.0,336.4,299.4
995.6,190,23.5,18.4,73,13.53,61,5.9,297.0,336.3,299.4
995.0,195,23.5,18.4,73,13.54,61,5.9,297.0,336.4,299.4
994.5,199,23.4,18.5,74,13.56,62,5.9,297.0,336.4,299.4
994.0,204,23.4,18.5,74,13.59,62,5.9,297.0,336.5,299.4
993.5,208,23.3,18.6,75,13.67,62,5.9,297.0,336.7,299.4
993.0,213,23.3,18.6,75,13.69,62,5.9,297.0,336.8,299.4
992.4,218,23.2,18.5,75,13.60,62,5.9,297.0,336.5,299.4
991.9,222,23.2,18.3,74,13.48,63,5.9,297.0,336.2,299.4
991.4,227,23.1,18.3,74,13.46,63,6.0,297.0,336.1,299.4
990.9,231,23.1,18.3,75,13.50,63,6.0,297.0,336.3,299.4
990.3,236,23.1,18.4,75,13.54,63,6.0,297.0,336.4,299.4
989.8,241,23.0,18.4,75,13.55,63,6.0,297.0,336.4,299.4
989.3,245,23.0,18.3,75,13.53,63,6.0,297.0,336.3,299.4
988.7,250,22.9,18.3,75,13.52,64,6.0,297.0,336.3,299.4
988.2,255,22.9,18.3,76,13.55,64,6.0,297.0,336.4,299.4
987.6,260,22.8,18.4,76,13.60,64,6.0,297.0,336.5,299.4
987.0,265,22.8,18.4,77,13.63,64,6.0,297.0,336.6,299.4
986.4,271,22.7,18.4,77,13.61,64,6.0,297.0,336.6,299.4
985.8,276,22.7,18.3,77,13.58,64,6.0,297.0,336.5,299.4
985.2,281,22.6,18.3,77,13.56,64,6.0,297.0,336.4,299.4
984.6,287,22.5,18.3,77,13.58,64,6.0,297.0,336.4,299.4
984.0,292,22.5,18.3,77,13.60,64,6.0,297.0,336.5,299.4
983.4,298,22.4,18.3,78,13.61,64,6.0,297.0,336.5,299.4
982.7,303,22.4,18.4,78,13.64,64,6.0,297.0,336.6,299.4
982.1,309,22.3,18.4,78,13.69,64,6.0,297.0,336.8,299.4
981.5,314,22.3,18.5,79,13.76,64,6.1,297.0,337.0,299.5
980.9,319,22.2,18.5,79,13.79,64,6.1,297.0,337.0,299.4
980.3,325,22.2,18.4,79,13.73,64,6.1,297.0,336.9,299.4
979.8,330,22.1,18.3,79,13.67,63,6.1,297.0,336.7,299.4
979.2,335,22.1,18.3,79,13.68,63,6.1,297.0,336.7,299.4
978.7,340,22.0,18.4,80,13.73,63,6.1,297.0,336.9,299.4
978.1,345,22.0,18.4,80,13.76,63,6.2,297.0,337.0,299.5
977.5,350,21.9,18.4,80,13.74,63,6.2,297.0,336.9,299.5
977.0,354,21.9,18.4,80,13.72,63,6.2,297.0,336.8,299.4
976.4,359,21.8,18.3,81,13.70,63,6.2,297.0,336.8,299.4
975.9,364,21.8,18.3,81,13.72,64,6.2,297.0,336.8,299.4
975.3,369,21.7,18.3,81,13.73,64,6.2,297.0,336.9,299.4
974.8,374,21.7,18.4,81,13.76,64,6.2,297.0,336.9,299.4
974.2,379,21.6,18.3,81,13.73,64,6.2,297.0,336.9,299.4
973.6,384,21.6,18.3,81,13.70,64,6.2,297.0,336.8,299.4
973.1,390,21.5,18.3,82,13.70,65,6.3,297.0,336.8,299.4
972.5,395,21.5,18.3,82,13.74,65,6.3,297.0,336.9,299.4
971.9,400,21.4,18.3,83,13.77,65,6.3,297.0,337.0,299.4
971.2,406,21.4,18.3,83,13.77,65,6.2,297.0,337.0,299.4
970.6,411,21.3,18.3,83,13.73,66,6.2,297.0,336.9,299.4
970.1,416,21.3,18.2,83,13.69,66,6.2,297.0,336.7,299.4
969.5,422,21.2,18.1,83,13.64,66,6.2,297.0,336.6,299.4
968.9,427,21.2,18.1,83,13.62,67,6.2,297.0,336.5,299.4
968.3,432,21.1,18.1,83,13.61,67,6.2,297.0,336.5,299.4
967.8,437,21.1,18.1,83,13.61,67,6.2,297.0,336.5,299.4
967.2,442,21.0,18.1,83,13.66,67,6.1,297.0,336.7,299.4
966.7,447,21.0,18.1,84,13.68,67,6.1,297.0,336.7,299.4
966.2,451,20.9,18.1,84,13.69,68,6.1,297.0,336.7,299.4
965.7,456,20.9,18.1,84,13.69,68,6.1,297.0,336.7,299.4
965.1,461,20.9,18.1,84,13.68,68,6.1,297.0,336.7,299.4
964.6,465,20.8,18.1,84,13.66,68,6.0,297.0,336.7,299.4
964.1,470,20.8,18.1,84,13.64,68,6.0,297.0,336.6,299.4
963.5,475,20.7,18.0,85,13.63,68,6.0,297.0,336.6,299.4
963.0,480,20.7,18.0,85,13.62,67,6.0,297.0,336.6,299.4
962.4,485,20.6,18.0,85,13.66,67,6.0,297.0,336.7,299.4
961.9,490,20.6,18.1,86,13.73,67,5.9,297.0,336.8,299.4
961.4,495,20.5,18.1,86,13.72,67,5.9,297.0,336.8,299.4
960.8,499,20.5,18.0,86,13.68,67,5.9,297.0,336.7,299.4
960.3,504,20.4,18.0,86,13.65,66,5.9,297.0,336.6,299.4
959.8,509,20.4,18.0,86,13.62,66,5.9,297.0,336.6,299.4
959.3,513,20.4,17.9,86,13.60,66,5.9,297.0,336.5,299.4
958.8,518,20.3,17.9,86,13.60,65,5.8,297.0,336.5,299.4
958.3,522,20.3,18.0,87,13.65,65,5.8,297.0,336.6,299.4
957.7,527,20.2,18.0,87,13.69,65,5.8,297.0,336.8,299.4
957.2,532,20.2,18.0,88,13.72,64,5.8,297.0,336.9,299.4
956.6,537,20.1,18.1,88,13.75,64,5.8,297.0,336.9,299.4
956.1,542,20.1,18.1,88,13.76,64,5.8,297.0,336.9,299.4
955.5,547,20.0,18.0,88,13.76,63,5.8,297.0,336.9,299.4
955.0,552,20.0,18.0,89,13.76,63,5.8,297.0,336.9,299.4
954.4,557,19.9,18.0,89,13.76,63,5.8,297.0,336.9,299.4
953.9,562,19.9,18.0,89,13.75,63,5.7,297.0,336.9,299.4
953.3,567,19.8,18.0,89,13.73,63,5.7,297.0,336.8,299.4
952.8,572,19.8,17.9,89,13.71,63,5.7,297.0,336.8,299.4
952.2,577,19.7,17.9,89,13.70,63,5.7,297.0,336.8,299.4
951.7,582,19.7,17.9,90,13.70,63,5.7,297.0,336.8,299.4
951.1,587,19.6,17.9,90,13.65,63,5.7,297.0,336.6,299.4
950.6,592,19.6,17.7,89,13.56,63,5.7,297.0,336.4,299.4
950.0,597,19.6,17.6,89,13.48,63,5.7,297.0,336.2,299.4
949.5,602,19.5,17.5,88,13.37,63,5.6,297.0,335.9,299.4
949.0,607,19.5,17.4,88,13.29,63,5.6,297.0,335.7,299.4
948.5,611,19.5,17.3,87,13.22,64,5.6,297.1,335.5,299.4
948.0,616,19.4,17.1,86,13.04,64,5.6,297.1,335.0,299.4
947.4,621,19.4,16.8,85,12.83,64,5.6,297.1,334.4,299.4
946.9,625,19.4,16.8,85,12.80,64,5.6,297.2,334.4,299.4
946.4,630,19.4,16.9,86,12.91,64,5.6,297.2,334.7,299.5
945.9,635,19.3,17.0,87,13.03,65,5.6,297.2,335.0,299.5
945.3,640,19.3,17.1,87,13.11,65,5.6,297.1,335.2,299.5
944.8,645,19.2,17.1,88,13.11,65,5.6,297.1,335.2,299.5
944.3,649,19.2,17.1,88,13.09,65,5.5,297.1,335.2,299.5
943.8,654,19.1,17.1,88,13.09,66,5.5,297.1,335.2,299.5
943.2,659,19.1,17.1,88,13.12,66,5.5,297.1,335.3,299.5
942.7,664,19.0,17.2,89,13.18,66,5.5,297.1,335.4,299.5
942.2,669,19.0,17.2,89,13.19,66,5.5,297.1,335.5,299.5
941.6,674,18.9,17.2,90,13.19,67,5.5,297.1,335.5,299.5
941.1,678,18.9,17.1,90,13.17,67,5.5,297.1,335.4,299.5
940.6,683,18.8,17.1,90,13.15,67,5.5,297.1,335.3,299.5
940.1,688,18.8,17.0,90,13.11,67,5.5,297.1,335.2,299.5
939.6,693,18.7,17.0,89,13.04,68,5.5,297.1,335.1,299.5
939.1,697,18.7,16.8,89,12.93,68,5.5,297.1,334.7,299.5
938.6,702,18.7,16.6,87,12.72,68,5.5,297.2,334.2,299.4
938.0,707,18.7,16.3,86,12.49,68,5.5,297.2,333.6,299.5
937.5,712,18.7,16.0,84,12.29,68,5.5,297.3,333.1,299.5
937.0,716,18.7,15.7,83,12.09,69,5.5,297.3,332.6,299.5
936.4,721,18.7,15.4,81,11.82,69,5.5,297.4,331.8,299.5
935.9,726,18.7,14.9,79,11.47,69,5.5,297.5,330.9,299.5
935.3,731,18.8,14.4,76,11.08,69,5.5,297.5,329.9,299.5
934.8,736,18.8,14.0,74,10.84,70,5.5,297.6,329.3,299.5
934.2,742,18.8,14.0,74,10.82,70,5.5,297.7,329.3,299.6
933.7,747,18.8,14.0,74,10.85,70,5.5,297.7,329.4,299.6
933.1,752,18.7,14.0,74,10.83,70,5.5,297.7,329.4,299.6
932.6,757,18.7,14.0,74,10.80,70,5.5,297.7,329.3,299.6
932.0,762,18.6,13.9,74,10.79,70,5.5,297.7,329.3,299.7
931.5,767,18.6,13.9,74,10.77,70,5.5,297.7,329.2,299.7
930.9,772,18.6,13.9,74,10.75,71,5.5,297.7,329.2,299.7
930.3,778,18.5,13.8,74,10.72,71,5.5,297.8,329.1,299.7
929.8,783,18.5,13.7,74,10.69,71,5.5,297.8,329.1,299.7
929.2,788,18.5,13.7,74,10.68,71,5.5,297.8,329.1,299.7
928.6,793,18.5,13.7,74,10.67,71,5.5,297.8,329.1,299.8
928.1,799,18.4,13.6,74,10.62,71,5.5,297.9,329.0,299.8
927.5,804,18.4,13.6,73,10.59,71,5.4,297.9,328.9,299.8
927.0,809,18.4,13.6,74,10.61,70,5.4,297.9,329.0,299.8
926.4,814,18.3,13.6,74,10.63,70,5.4,297.9,329.0,299.8
925.8,819,18.3,13.6,74,10.60,70,5.4,298.0,329.0,299.9
925.2,825,18.3,13.4,73,10.52,70,5.4,298.0,328.8,299.9
925.0,827,18.3,13.3,73,10.46,70,5.4,298.0,328.7,299.9
924.7,830,18.3,13.2,72,10.38,70,5.4,298.0,328.5,299.9
924.1,835,18.3,13.0,71,10.21,69,5.3,298.1,328.1,299.9
923.5,841,18.3,12.8,70,10.08,69,5.3,298.2,327.8,300.0
922.9,847,18.3,12.7,70,10.03,68,5.3,298.2,327.7,300.0
922.3,852,18.3,12.7,70,10.03,68,5.3,298.3,327.7,300.1
921.7,858,18.3,12.7,70,10.03,67,5.3,298.3,327.7,300.1
921.0,864,18.2,12.6,70,10.03,67,5.3,298.3,327.8,300.1
920.4,870,18.2,12.7,70,10.04,66,5.3,298.3,327.8,300.1
919.7,876,18.1,12.7,70,10.06,66,5.3,298.3,327.9,300.1
919.1,882,18.1,12.7,71,10.08,65,5.3,298.3,327.9,300.1
918.5,888,18.0,12.7,71,10.11,64,5.3,298.3,328.0,300.2
917.9,893,18.0,12.8,72,10.15,64,5.3,298.4,328.2,300.2
917.3,899,17.9,12.8,72,10.19,63,5.3,298.4,328.3,300.2
916.7,904,17.9,12.8,72,10.21,63,5.3,298.4,328.4,300.2
916.1,910,17.9,12.8,72,10.21,62,5.3,298.4,328.4,300.2
915.6,915,17.8,12.8,72,10.16,62,5.4,298.4,328.3,300.2
915.0,920,17.8,12.7,72,10.12,61,5.4,298.4,328.2,300.3
914.5,925,17.8,12.6,72,10.08,61,5.4,298.4,328.1,300.3
913.9,930,17.7,12.6,72,10.07,60,5.5,298.5,328.1,300.3
913.3,936,17.7,12.5,72,10.03,60,5.5,298.5,328.0,300.3
912.8,941,17.6,12.3,71,9.91,60,5.6,298.5,327.6,300.3
912.2,946,17.6,12.1,70,9.76,59,5.6,298.5,327.2,300.3
911.7,951,17.6,11.9,69,9.67,59,5.7,298.6,327.0,300.3
911.1,957,17.6,12.1,70,9.76,59,5.7,298.6,327.3,300.4
910.6,962,17.6,12.3,71,9.94,59,5.7,298.6,327.9,300.4
910.0,967,17.5,12.4,72,10.01,59,5.8,298.6,328.1,300.4
909.5,972,17.5,12.3,72,9.94,59,5.8,298.6,327.9,300.4
909.0,977,17.5,12.1,71,9.79,59,5.9,298.7,327.5,300.4
908.4,982,17.5,11.9,70,9.66,59,5.9,298.7,327.1,300.4
907.9,987,17.4,11.7,69,9.58,59,5.9,298.7,327.0,300.4
907.4,992,17.4,11.6,69,9.52,59,5.9,298.7,326.8,300.4
906.9,997,17.4,11.5,69,9.47,59,6.0,298.8,326.7,300.5
906.4,1002,17.4,11.4,68,9.39,59,6.0,298.8,326.5,300.5
905.8,1006,17.4,11.3,68,9.31,59,6.0,298.8,326.3,300.5
905.3,1011,17.3,11.2,67,9.28,59,6.0,298.9,326.2,300.5
904.8,1016,17.3,11.3,68,9.32,59,6.0,298.9,326.4,300.6
904.3,1021,17.3,11.4,68,9.40,59,6.0,298.9,326.6,300.6
903.8,1026,17.2,11.5,69,9.49,59,6.0,298.9,326.9,300.6
903.2,1031,17.2,11.6,70,9.54,59,6.0,298.9,327.0,300.6
902.7,1036,17.1,11.6,70,9.54,59,5.9,298.9,327.0,300.6
902.1,1041,17.1,11.5,70,9.49,59,5.9,298.9,326.9,300.6
901.6,1047,17.1,11.4,69,9.42,59,5.9,298.9,326.7,300.6
901.0,1052,17.0,11.3,69,9.36,59,5.9,298.9,326.6,300.6
900.4,1057,17.0,11.1,68,9.28,59,5.9,299.0,326.4,300.6
899.9,1063,17.0,10.9,68,9.15,59,5.8,299.0,326.0,300.6
899.3,1068,17.0,10.7,66,9.01,59,5.8,299.0,325.7,300.7
898.8,1073,17.0,10.6,66,8.94,58,5.8,299.1,325.5,300.7
898.2,1079,16.9,10.5,66,8.92,58,5.8,299.1,325.5,300.7
897.6,1084,16.9,10.5,66,8.90,58,5.7,299.1,325.5,300.7
897.0,1090,16.9,10.5,66,8.92,58,5.7,299.2,325.6,300.8
896.4,1096,16.8,10.6,67,9.00,57,5.7,299.2,325.8,300.8
895.8,1102,16.7,10.7,68,9.06,57,5.7,299.1,325.9,300.8
895.1,1108,16.7,10.7,68,9.07,57,5.6,299.2,326.0,300.8
894.5,1114,16.6,10.7,68,9.05,57,5.6,299.1,325.9,300.8
893.8,1120,16.6,10.6,68,8.99,56,5.6,299.2,325.7,300.8
893.2,1126,16.5,10.4,67,8.91,56,5.5,299.2,325.6,300.8
892.6,1132,16.5,10.3,67,8.87,56,5.5,299.2,325.4,300.8
892.0,1138,16.5,10.3,67,8.87,56,5.5,299.2,325.5,300.8
891.4,1143,16.4,10.4,67,8.91,55,5.4,299.2,325.6,300.8
890.9,1149,16.4,10.5,68,8.96,55,5.4,299.2,325.7,300.8
890.3,1154,16.3,10.5,69,9.02,55,5.4,299.2,325.9,300.9
889.8,1159,16.3,10.6,69,9.07,55,5.4,299.2,326.0,300.9
889.2,1164,16.2,10.7,70,9.10,55,5.3,299.2,326.1,300.9
888.7,1170,16.2,10.7,70,9.11,55,5.3,299.2,326.2,300.9
888.1,1175,16.1,10.7,70,9.14,55,5.3,299.2,326.2,300.9
887.6,1180,16.1,10.8,71,9.19,55,5.2,299.2,326.4,300.9
887.0,1185,16.0,10.9,72,9.27,55,5.2,299.2,326.6,300.9
886.5,1191,16.0,11.0,72,9.35,55,5.2,299.2,326.9,300.9
885.9,1196,15.9,11.1,73,9.39,55,5.2,299.2,327.0,300.9
885.3,1202,15.9,11.1,73,9.39,55,5.1,299.2,327.0,300.9
884.8,1207,15.8,11.1,73,9.41,55,5.1,299.2,327.0,300.9
884.2,1213,15.8,11.1,74,9.44,55,5.1,299.3,327.2,301.0
883.6,1218,15.8,11.1,74,9.43,55,5.1,299.3,327.2,301.0
883.0,1224,15.7,11.0,73,9.37,55,5.1,299.3,327.1,301.0
882.4,1230,15.7,10.9,73,9.29,55,5.1,299.4,326.9,301.1
881.8,1236,15.7,10.7,72,9.17,55,5.1,299.4,326.6,301.1
881.2,1242,15.7,10.4,71,9.04,56,5.1,299.5,326.2,301.1
880.6,1248,15.7,10.2,70,8.93,56,5.1,299.5,326.0,301.1
879.9,1254,15.6,10.2,70,8.91,56,5.1,299.5,325.9,301.1
879.3,1260,15.6,10.2,70,8.91,56,5.1,299.6,326.0,301.2
878.6,1266,15.6,10.1,70,8.89,56,5.1,299.6,325.9,301.2
878.0,1273,15.5,10.1,70,8.86,56,5.1,299.6,325.9,301.2
877.3,1279,15.5,10.0,70,8.85,56,5.1,299.7,325.9,301.2
876.7,1285,15.5,10.0,70,8.84,56,5.2,299.7,325.9,301.3
876.1,1291,15.4,10.0,70,8.84,56,5.2,299.7,325.9,301.3
875.5,1297,15.4,10.0,70,8.83,56,5.2,299.7,325.9,301.3
874.9,1302,15.3,9.9,70,8.81,56,5.2,299.7,325.8,301.3
874.4,1308,15.3,9.9,70,8.80,56,5.2,299.7,325.8,301.3
873.8,1313,15.3,9.9,70,8.79,56,5.2,299.7,325.8,301.3
873.3,1318,15.2,9.9,70,8.80,56,5.2,299.8,325.9,301.3
872.7,1323,15.2,9.9,71,8.83,56,5.2,299.8,326.0,301.4
872.2,1328,15.1,10.0,71,8.88,55,5.2,299.8,326.1,301.4
871.7,1334,15.1,10.1,72,8.91,55,5.2,299.8,326.2,301.4
871.2,1339,15.0,10.0,72,8.90,55,5.2,299.8,326.2,301.4
870.6,1344,15.0,10.0,72,8.87,54,5.2,299.8,326.1,301.4
870.1,1349,15.0,9.9,72,8.85,54,5.2,299.8,326.0,301.4
869.5,1355,14.9,9.9,72,8.86,53,5.2,299.8,326.1,301.4
869.0,1360,14.9,9.9,72,8.85,53,5.2,299.8,326.1,301.4
868.4,1365,14.8,9.9,72,8.84,52,5.2,299.8,326.0,301.4
867.9,1371,14.8,9.9,72,8.83,52,5.2,299.8,326.0,301.4
867.3,1376,14.7,9.9,72,8.84,51,5.2,299.8,326.1,301.4
866.8,1382,14.7,9.9,73,8.85,51,5.2,299.8,326.1,301.4
866.2,1387,14.7,9.9,73,8.88,50,5.2,299.9,326.2,301.5
865.7,1393,14.6,10.0,74,8.92,50,5.3,299.9,326.3,301.5
865.1,1398,14.6,10.0,74,8.97,49,5.3,299.9,326.5,301.5
864.5,1404,14.5,10.1,75,9.02,49,5.3,299.9,326.6,301.5
863.9,1410,14.5,10.2,76,9.07,48,5.3,299.9,326.8,301.5
863.2,1416,14.4,10.3,76,9.14,48,5.3,299.9,327.0,301.5
862.6,1422,14.4,10.4,77,9.19,47,5.3,299.9,327.1,301.6
862.1,1428,14.3,10.4,77,9.20,47,5.3,299.9,327.2,301.6
861.5,1433,14.3,10.3,77,9.18,46,5.3,299.9,327.1,301.6
861.0,1438,14.2,10.3,77,9.19,46,5.4,299.9,327.2,301.6
860.5,1443,14.2,10.4,78,9.26,45,5.4,300.0,327.4,301.6
860.0,1448,14.2,10.5,79,9.31,45,5.4,300.0,327.6,301.7
859.5,1453,14.2,10.5,79,9.32,44,5.4,300.0,327.6,301.7
859.0,1458,14.1,10.5,79,9.32,44,5.4,300.0,327.6,301.7
858.5,1463,14.1,10.5,79,9.34,44,5.3,300.0,327.7,301.7
858.0,1468,14.1,10.5,79,9.35,43,5.3,300.0,327.8,301.7
857.5,1472,14.0,10.5,80,9.35,43,5.3,300.0,327.8,301.7
857.0,1477,14.0,10.4,79,9.30,43,5.3,300.1,327.6,301.7
856.6,1482,13.9,10.3,79,9.24,42,5.3,300.1,327.5,301.7
856.1,1486,13.9,10.3,79,9.22,42,5.2,300.1,327.4,301.7
855.6,1491,13.9,10.3,79,9.24,42,5.2,300.1,327.5,301.8
855.1,1496,13.8,10.4,80,9.29,41,5.1,300.1,327.6,301.8
854.6,1501,13.8,10.4,80,9.31,41,5.1,300.1,327.7,301.8
854.1,1507,13.7,10.4,80,9.30,41,5.0,300.1,327.6,301.8
853.5,1512,13.6,10.3,80,9.27,41,5.0,300.1,327.6,301.7
852.9,1518,13.6,10.3,80,9.24,41,4.9,300.1,327.5,301.7
852.4,1523,13.5,10.2,80,9.22,40,4.9,300.1,327.4,301.7
851.8,1529,13.5,10.2,80,9.21,40,4.8,300.1,327.4,301.7
851.2,1535,13.4,10.2,81,9.22,40,4.7,300.1,327.4,301.7
850.6,1540,13.4,10.2,81,9.22,40,4.7,300.1,327.4,301.8
850.1,1546,13.3,10.2,81,9.22,40,4.6,300.1,327.4,301.7
850.0,1547,13.3,10.2,81,9.22,40,4.5,300.1,327.4,301.7
849.6,1551,13.3,10.2,81,9.21,40,4.5,300.1,327.4,301.7
849.1,1556,13.2,10.1,81,9.20,40,4.5,300.1,327.4,301.7
848.6,1561,13.2,10.1,82,9.21,40,4.4,300.1,327.4,301.8
848.1,1566,13.2,10.2,82,9.23,39,4.4,300.1,327.5,301.8
847.6,1571,13.1,10.2,82,9.24,39,4.3,300.1,327.5,301.8
847.1,1576,13.1,10.2,82,9.24,39,4.3,300.1,327.5,301.8
846.6,1581,13.0,10.1,82,9.23,39,4.2,300.1,327.5,301.8
846.1,1586,13.0,10.1,82,9.20,39,4.2,300.1,327.4,301.8
845.5,1591,13.0,10.1,83,9.19,39,4.1,300.2,327.4,301.8
845.0,1596,12.9,10.0,83,9.18,39,4.1,300.2,327.4,301.8
844.5,1602,12.9,10.0,83,9.19,39,4.0,300.2,327.4,301.8
843.9,1607,12.8,10.0,83,9.20,39,4.0,300.2,327.5,301.8
843.4,1613,12.8,10.0,84,9.21,39,4.0,300.2,327.5,301.8
842.8,1618,12.7,10.0,84,9.21,38,3.9,300.2,327.5,301.8
842.3,1624,12.7,10.0,84,9.21,38,3.9,300.2,327.5,301.8
841.7,1629,12.6,10.0,84,9.19,38,3.9,300.2,327.5,301.8
841.1,1635,12.6,9.9,83,9.12,38,3.9,300.2,327.3,301.8
840.5,1641,12.6,9.6,82,8.96,37,3.9,300.2,326.9,301.9
839.9,1647,12.6,9.2,80,8.73,37,3.9,300.3,326.3,301.9
839.3,1653,12.6,8.9,78,8.54,37,3.8,300.4,325.8,302.0
838.8,1658,12.7,8.7,77,8.43,36,3.8,300.5,325.6,302.0
838.3,1664,12.7,8.6,76,8.39,36,3.8,300.6,325.6,302.1
837.8,1669,12.7,8.5,76,8.36,35,3.9,300.6,325.6,302.1
837.3,1673,12.7,8.5,76,8.34,35,3.9,300.7,325.6,302.2
836.9,1678,12.7,8.4,75,8.30,35,3.9,300.7,325.5,302.2
836.4,1683,12.6,8.2,75,8.21,34,3.9,300.8,325.3,302.2
835.9,1687,12.6,8.0,74,8.10,33,3.9,300.8,325.0,302.3
835.4,1692,12.6,7.9,73,8.01,33,4.0,300.8,324.8,302.3
834.9,1697,12.6,7.9,73,8.01,32,4.0,300.9,324.8,302.3
834.4,1703,12.6,8.0,74,8.09,32,4.0,300.9,325.1,302.4
833.9,1708,12.5,8.1,74,8.16,31,4.1,300.9,325.3,302.4
833.3,1714,12.5,8.2,75,8.23,30,4.1,300.9,325.5,302.4
832.7,1719,12.5,8.1,75,8.19,30,4.1,301.0,325.4,302.4
832.2,1725,12.4,7.9,74,8.08,29,4.2,301.0,325.1,302.4
831.6,1731,12.4,7.9,74,8.05,28,4.2,301.0,325.1,302.5
831.0,1737,12.4,7.9,74,8.10,27,4.2,301.0,325.2,302.5
830.4,1743,12.3,8.0,75,8.15,27,4.3,301.0,325.4,302.5
829.9,1748,12.3,8.0,75,8.15,26,4.3,301.0,325.4,302.5
829.3,1754,12.2,7.9,75,8.07,25,4.3,301.1,325.2,302.5
828.8,1760,12.2,7.6,73,7.92,24,4.4,301.1,324.8,302.5
828.2,1765,12.2,7.4,72,7.81,24,4.4,301.2,324.6,302.6
827.6,1771,12.2,7.3,72,7.76,23,4.4,301.2,324.5,302.6
827.1,1777,12.2,7.3,72,7.78,22,4.4,301.3,324.6,302.7
826.5,1783,12.2,7.3,72,7.81,21,4.4,301.3,324.7,302.7
825.9,1789,12.1,7.3,72,7.79,21,4.4,301.3,324.7,302.7
825.3,1794,12.1,7.2,72,7.72,20,4.4,301.3,324.5,302.7
824.7,1800,12.1,7.0,71,7.63,19,4.4,301.4,324.3,302.8
824.1,1806,12.0,6.8,70,7.54,19,4.4,301.4,324.0,302.8
823.6,1812,12.0,6.8,70,7.53,18,4.4,301.4,324.0,302.8
823.0,1818,12.0,6.9,71,7.60,17,4.3,301.4,324.2,302.8
822.4,1824,11.9,6.9,71,7.59,17,4.3,301.4,324.2,302.8
821.8,1830,11.9,6.6,70,7.44,16,4.3,301.5,323.8,302.8
821.2,1836,11.9,6.2,68,7.24,16,4.3,301.5,323.3,302.8
820.6,1842,11.9,5.8,66,7.07,15,4.2,301.6,322.9,302.9
820.1,1848,11.8,5.6,66,6.98,14,4.2,301.6,322.6,302.9
819.5,1854,11.8,5.7,66,7.00,14,4.2,301.7,322.8,302.9
818.9,1860,11.8,5.9,67,7.14,13,4.1,301.7,323.2,303.0
818.3,1866,11.8,6.3,69,7.32,12,4.1,301.8,323.8,303.1
817.8,1871,11.8,6.2,69,7.31,12,4.1,301.8,323.8,303.1
817.2,1877,11.8,5.7,66,7.04,11,4.1,301.9,323.1,303.2
816.7,1883,11.8,4.9,63,6.67,10,4.0,301.9,322.1,303.1
816.2,1888,11.8,4.5,61,6.47,10,4.0,302.0,321.6,303.2
815.7,1893,11.8,4.4,60,6.43,9,4.0,302.0,321.5,303.2
815.2,1898,11.8,4.3,60,6.40,8,4.0,302.0,321.4,303.2
814.7,1903,11.8,4.1,60,6.33,7,4.0,302.1,321.3,303.2
814.2,1908,11.7,4.1,59,6.31,6,3.9,302.1,321.3,303.3
813.7,1913,11.7,4.1,60,6.32,6,3.9,302.2,321.3,303.3
813.2,1918,11.7,4.1,59,6.30,5,3.9,302.2,321.3,303.3
812.8,1923,11.7,3.9,59,6.25,4,3.9,302.2,321.1,303.3
812.3,1928,11.6,3.8,59,6.19,3,3.9,302.2,321.0,303.3
811.8,1932,11.6,3.7,58,6.16,2,3.9,302.2,320.9,303.4
811.4,1937,11.6,3.7,58,6.15,1,3.9,302.3,320.9,303.4
810.9,1942,11.6,3.6,58,6.13,360,3.9,302.3,320.9,303.4
810.4,1947,11.5,3.4,57,6.05,359,3.9,302.3,320.7,303.4
