PRES,HGHT,TEMP,DWPT,RELH,MIXR,DRCT,SPED,THTA,THTE,THTV
1013.1,31,24.5,21.0,81,15.68,26,1.6,296.5,342.0,299.3
1012.5,36,24.9,21.1,79,15.73,12,1.7,297.0,342.7,299.8
1011.9,41,24.9,21.1,80,15.75,9,1.8,297.0,342.7,299.8
1011.3,46,24.9,21.1,79,15.77,9,1.9,297.1,342.9,299.9
1010.6,52,25.0,21.1,79,15.73,10,2.1,297.3,343.0,300.1
1009.8,59,24.9,20.9,78,15.62,11,2.2,297.2,342.6,300.0
1009.2,65,24.8,20.8,78,15.52,12,2.4,297.2,342.2,299.9
1008.5,71,24.7,20.8,79,15.47,13,2.5,297.1,342.1,299.9
1007.8,77,24.7,20.7,79,15.45,14,2.7,297.2,342.0,299.9
1007.1,83,24.6,20.7,79,15.44,15,2.8,297.2,342.0,299.9
1006.4,89,24.6,20.7,79,15.43,16,3.0,297.2,342.0,299.9
1005.7,95,24.6,20.7,79,15.42,17,3.1,297.2,342.0,300.0
1005.1,101,24.5,20.7,79,15.43,18,3.2,297.2,342.1,300.0
1004.4,106,24.5,20.6,79,15.43,19,3.4,297.3,342.1,300.0
1003.8,112,24.5,20.6,79,15.42,21,3.5,297.3,342.2,300.1
1003.2,117,24.5,20.6,79,15.42,22,3.6,297.4,342.2,300.1
1002.6,122,24.5,20.6,79,15.44,24,3.7,297.4,342.3,300.1
1002.0,127,24.4,20.6,80,15.46,25,3.8,297.4,342.3,300.1
1001.5,132,24.3,20.7,80,15.48,26,3.9,297.3,342.3,300.1
1000.9,137,24.2,20.7,81,15.51,28,4.0,297.3,342.4,300.1
1000.4,142,24.2,20.7,81,15.51,29,4.1,297.3,342.3,300.0
1000.0,145,24.2,20.7,81,15.55,29,4.1,297.3,342.5,300.1
999.8,147,24.2,20.7,81,15.56,31,4.2,297.4,342.6,300.1
999.3,151,24.3,20.8,81,15.63,33,4.3,297.5,342.9,300.3
998.8,156,24.3,20.7,81,15.62,34,4.4,297.5,342.9,300.3
998.2,161,24.2,20.7,81,15.59,36,4.5,297.5,342.8,300.2
997.7,165,24.1,20.7,81,15.57,37,4.6,297.4,342.7,300.2
997.1,170,24.0,20.7,82,15.59,39,4.7,297.4,342.7,300.2
996.6,175,24.0,20.7,82,15.62,40,4.8,297.4,342.8,300.2
996.0,180,24.0,20.7,82,15.63,41,4.9,297.4,342.9,300.2
995.5,185,24.0,20.7,82,15.63,42,5.0,297.5,342.9,300.3
994.9,190,23.9,20.7,82,15.62,44,5.0,297.5,342.9,300.3
994.4,194,23.9,20.7,82,15.65,45,5.1,297.6,343.1,300.3
993.8,199,23.9,20.7,82,15.65,46,5.2,297.6,343.1,300.4
993.3,204,23.8,20.6,82,15.61,47,5.3,297.5,342.9,300.3
992.7,209,23.8,20.6,83,15.62,48,5.4,297.5,342.9,300.3
992.2,214,23.7,20.7,83,15.65,48,5.4,297.5,343.1,300.3
991.6,219,23.7,20.7,83,15.68,49,5.5,297.6,343.2,300.4
991.1,224,23.7,20.7,83,15.70,50,5.6,297.6,343.3,300.4
990.5,228,23.7,20.8,84,15.76,50,5.6,297.7,343.5,300.5
990.0,233,23.7,20.8,84,15.83,51,5.7,297.7,343.8,300.5
989.4,238,23.7,20.8,84,15.83,51,5.7,297.7,343.8,300.6
988.9,243,23.6,20.8,84,15.79,51,5.7,297.7,343.7,300.5
988.3,248,23.6,20.7,84,15.76,51,5.7,297.7,343.6,300.5
987.7,253,23.5,20.7,84,15.74,52,5.8,297.7,343.5,300.5
987.2,258,23.5,20.7,84,15.73,52,5.8,297.7,343.5,300.5
986.6,263,23.5,20.7,84,15.74,52,5.8,297.7,343.6,300.6
986.1,268,23.4,20.7,85,15.79,52,5.8,297.8,343.7,300.6
985.5,273,23.4,20.7,85,15.81,52,5.8,297.8,343.8,300.6
984.9,278,23.3,20.7,85,15.81,52,5.8,297.8,343.8,300.6
984.3,284,23.3,20.7,86,15.85,52,5.8,297.8,343.9,300.6
983.7,290,23.2,20.8,86,15.89,52,5.7,297.7,344.0,300.6
983.0,295,23.1,20.8,87,15.89,52,5.7,297.7,343.9,300.5
982.4,301,23.0,20.7,87,15.87,52,5.7,297.7,343.8,300.5
981.7,307,22.9,20.7,87,15.86,51,5.7,297.7,343.8,300.5
981.0,313,22.9,20.7,88,15.89,51,5.7,297.7,343.9,300.5
980.4,319,22.8,20.7,88,15.89,51,5.6,297.6,343.9,300.5
979.7,325,22.8,20.7,88,15.84,51,5.6,297.7,343.8,300.5
979.1,330,22.8,20.6,87,15.77,51,5.6,297.7,343.6,300.5
978.5,336,22.8,20.5,87,15.75,51,5.6,297.7,343.6,300.5
977.9,341,22.7,20.6,88,15.77,52,5.5,297.8,343.7,300.6
977.3,347,22.7,20.5,88,15.74,52,5.5,297.8,343.6,300.6
976.6,352,22.6,20.4,87,15.63,52,5.5,297.8,343.3,300.6
976.0,358,22.6,20.2,86,15.49,52,5.5,297.8,342.9,300.6
975.4,363,22.6,20.2,86,15.43,53,5.5,297.9,342.8,300.6
974.8,369,22.6,20.2,86,15.44,53,5.5,297.9,342.9,300.6
974.1,375,22.5,20.2,87,15.47,54,5.5,297.9,343.0,300.6
973.5,381,22.5,20.2,87,15.50,54,5.5,297.9,343.0,300.6
972.8,387,22.4,20.2,88,15.52,55,5.5,297.9,343.1,300.6
972.1,393,22.3,20.2,88,15.54,56,5.5,297.9,343.1,300.6
971.5,399,22.3,20.2,88,15.54,57,5.6,297.9,343.1,300.6
970.8,405,22.2,20.2,88,15.55,57,5.6,297.9,343.2,300.7
970.1,411,22.2,20.2,89,15.57,58,5.6,297.9,343.2,300.7
969.4,417,22.1,20.2,89,15.56,59,5.7,297.9,343.2,300.7
968.7,424,22.0,20.1,89,15.50,60,5.7,297.9,343.0,300.6
968.0,430,22.0,20.1,89,15.45,61,5.8,297.9,342.9,300.6
967.3,436,21.9,20.0,89,15.43,61,5.8,297.9,342.8,300.6
966.6,442,21.9,20.0,89,15.42,62,5.9,297.9,342.8,300.6
965.9,448,21.8,20.0,90,15.42,63,6.0,297.9,342.8,300.6
965.3,454,21.8,20.0,90,15.43,64,6.0,297.9,342.8,300.6
964.6,461,21.7,20.0,90,15.46,64,6.1,297.9,342.9,300.6
963.9,467,21.6,20.0,91,15.49,65,6.2,297.9,343.0,300.7
963.2,473,21.6,20.1,91,15.51,65,6.2,297.9,343.1,300.7
962.5,479,21.5,20.0,91,15.52,65,6.3,297.9,343.1,300.7
961.8,486,21.5,20.0,92,15.52,66,6.3,297.9,343.1,300.7
961.1,492,21.4,20.0,92,15.51,66,6.4,297.9,343.1,300.7
960.4,498,21.3,20.0,92,15.50,66,6.5,297.9,343.0,300.7
959.7,504,21.3,20.0,92,15.48,66,6.5,297.9,343.0,300.7
959.1,510,21.2,20.0,93,15.49,65,6.5,297.9,343.0,300.6
958.4,516,21.2,20.0,93,15.51,65,6.6,297.9,343.1,300.7
957.8,522,21.1,20.0,93,15.53,65,6.6,297.9,343.1,300.7
957.2,528,21.1,20.0,94,15.54,64,6.6,297.9,343.1,300.7
956.5,534,21.0,20.0,94,15.56,64,6.7,297.9,343.2,300.7
955.9,540,20.9,20.0,94,15.58,63,6.7,297.9,343.3,300.7
955.2,546,20.9,20.0,95,15.64,63,6.7,297.9,343.4,300.7
954.5,552,20.8,20.1,96,15.73,62,6.7,297.9,343.7,300.7
953.9,558,20.8,20.2,97,15.81,61,6.7,297.9,343.9,300.7
953.2,564,20.7,20.2,97,15.84,61,6.7,297.9,344.0,300.7
952.5,570,20.6,20.2,97,15.84,60,6.7,297.9,344.0,300.7
951.8,576,20.6,20.2,98,15.85,59,6.7,297.9,344.0,300.7
951.2,582,20.5,20.2,98,15.87,58,6.7,297.9,344.1,300.7
950.5,588,20.5,20.2,98,15.88,57,6.7,297.9,344.1,300.7
949.9,594,20.4,20.2,99,15.87,57,6.6,297.9,344.1,300.7
949.3,599,20.4,20.2,99,15.86,56,6.6,297.9,344.1,300.7
948.7,605,20.3,20.1,99,15.85,55,6.6,297.9,344.0,300.7
948.1,611,20.3,20.1,99,15.85,55,6.6,297.9,344.0,300.7
947.5,616,20.2,20.1,100,15.85,54,6.5,297.9,344.1,300.7
946.8,622,20.2,20.1,100,15.81,53,6.5,297.9,344.0,300.7
946.2,627,20.1,20.0,100,15.76,53,6.4,297.9,343.8,300.7
945.6,633,20.0,20.0,99,15.71,52,6.4,297.9,343.7,300.7
945.1,638,20.0,19.9,99,15.68,52,6.4,297.9,343.6,300.7
944.5,644,20.0,19.9,99,15.66,52,6.3,298.0,343.6,300.8
943.9,649,20.0,19.9,99,15.66,51,6.3,298.0,343.6,300.8
943.4,654,19.9,19.9,100,15.68,51,6.3,298.0,343.7,300.8
942.8,659,19.9,19.9,100,15.67,51,6.2,298.0,343.7,300.8
942.2,664,19.9,19.8,100,15.61,51,6.2,298.0,343.5,300.8
941.7,669,19.8,19.7,99,15.49,51,6.2,298.0,343.2,300.8
941.1,674,19.8,19.4,98,15.22,51,6.2,298.0,342.4,300.8
940.5,680,19.7,19.0,96,14.88,51,6.1,298.0,341.4,300.7
940.0,685,19.6,19.0,96,14.88,51,6.1,298.0,341.4,300.7
939.4,690,19.6,19.1,97,15.01,51,6.1,298.0,341.8,300.7
938.9,695,19.5,19.0,97,14.92,51,6.1,298.0,341.5,300.7
938.3,700,19.5,18.9,97,14.82,52,6.1,298.0,341.2,300.6
937.8,705,19.5,18.8,96,14.76,52,6.1,298.0,341.0,300.7
937.3,710,19.4,18.7,95,14.63,52,6.2,298.1,340.7,300.7
936.8,714,19.4,18.5,95,14.48,52,6.2,298.1,340.3,300.7
936.2,719,19.4,18.4,94,14.33,52,6.2,298.1,339.9,300.7
935.7,724,19.4,18.1,92,14.07,52,6.3,298.1,339.2,300.6
935.1,729,19.4,17.7,90,13.78,53,6.3,298.2,338.4,300.7
934.6,735,19.4,17.6,89,13.69,53,6.4,298.3,338.2,300.7
934.0,740,19.4,17.8,90,13.82,53,6.4,298.3,338.6,300.7
933.5,745,19.3,18.0,92,14.06,53,6.5,298.3,339.3,300.8
932.9,750,19.3,18.4,95,14.44,53,6.5,298.3,340.4,300.8
932.3,756,19.1,18.8,98,14.77,53,6.6,298.2,341.3,300.8
931.7,761,19.1,18.9,99,14.89,53,6.6,298.2,341.6,300.8
931.2,766,19.0,18.8,99,14.81,53,6.7,298.2,341.3,300.8
930.6,771,18.9,18.7,98,14.72,53,6.7,298.1,341.0,300.8
930.0,777,18.9,18.7,99,14.74,53,6.8,298.1,341.1,300.8
929.5,782,18.9,18.8,99,14.84,53,6.8,298.2,341.5,300.8
928.9,787,18.9,18.9,100,14.94,53,6.9,298.3,341.9,300.9
928.4,792,18.9,18.9,100,14.98,53,6.9,298.4,342.1,301.0
927.8,798,18.9,18.9,100,15.01,53,7.0,298.4,342.2,301.1
927.2,803,19.0,19.0,100,15.05,53,7.0,298.5,342.4,301.2
926.6,808,19.0,19.0,100,15.10,53,7.0,298.6,342.7,301.3
926.0,814,19.0,19.0,100,15.10,53,7.1,298.6,342.7,301.3
925.4,819,19.0,19.0,100,15.13,53,7.1,298.7,342.9,301.4
925.0,824,19.0,19.0,100,15.11,53,7.1,298.7,342.9,301.4
924.9,825,19.0,19.0,100,15.11,53,7.1,298.7,342.9,301.4
924.3,830,18.9,18.9,100,14.99,54,7.1,298.7,342.5,301.4
923.7,835,18.9,18.7,99,14.90,54,7.1,298.7,342.3,301.4
923.2,840,18.8,18.7,99,14.82,54,7.1,298.7,342.0,301.4
922.7,845,18.7,18.5,98,14.65,54,7.1,298.7,341.5,301.3
922.2,850,18.5,18.1,98,14.33,55,7.2,298.5,340.3,301.1
921.6,855,18.3,17.8,97,14.01,55,7.1,298.3,339.2,300.8
921.1,860,18.1,17.6,97,13.88,56,7.1,298.2,338.7,300.7
920.6,865,18.1,17.5,96,13.81,56,7.1,298.2,338.6,300.7
920.1,869,18.1,17.0,93,13.35,56,7.1,298.2,337.2,300.6
919.6,874,18.0,16.4,90,12.84,57,7.1,298.2,335.7,300.5
919.1,879,17.9,16.2,90,12.70,57,7.1,298.2,335.3,300.4
918.6,883,17.9,16.3,90,12.76,58,7.1,298.2,335.5,300.5
918.1,888,17.9,16.2,90,12.71,58,7.1,298.2,335.4,300.5
917.6,893,17.9,16.0,89,12.58,59,7.0,298.2,335.0,300.5
917.1,898,17.9,15.9,89,12.52,59,7.0,298.3,334.9,300.5
916.6,902,17.8,15.9,89,12.53,59,7.0,298.3,335.0,300.6
916.0,907,17.8,15.9,89,12.54,60,7.0,298.4,335.0,300.6
915.5,912,17.8,15.9,89,12.53,60,7.0,298.4,335.1,300.7
915.0,917,17.9,15.9,89,12.54,60,6.9,298.5,335.2,300.7
914.4,922,17.9,16.0,89,12.61,60,6.9,298.6,335.5,300.8
913.9,928,17.9,16.1,89,12.68,61,6.9,298.6,335.7,300.9
913.3,933,17.9,16.1,89,12.70,61,6.9,298.7,335.8,300.9
912.8,938,17.9,16.0,89,12.66,61,6.8,298.7,335.7,301.0
912.2,943,17.8,15.9,89,12.57,61,6.8,298.7,335.5,301.0
911.7,948,17.8,15.8,88,12.50,61,6.8,298.7,335.3,301.0
911.2,953,17.8,15.8,88,12.46,61,6.8,298.8,335.2,301.0
910.6,958,17.7,15.8,88,12.50,60,6.7,298.8,335.4,301.0
910.1,963,17.7,16.0,89,12.63,60,6.7,298.8,335.8,301.0
909.6,968,17.7,16.1,91,12.75,60,6.7,298.8,336.1,301.1
909.1,973,17.6,16.2,91,12.81,60,6.7,298.8,336.3,301.1
908.5,978,17.6,16.2,91,12.83,60,6.7,298.8,336.4,301.1
908.0,983,17.5,16.2,92,12.86,60,6.7,298.8,336.4,301.1
907.5,988,17.5,16.2,92,12.89,60,6.6,298.8,336.6,301.1
906.9,993,17.4,16.2,93,12.92,60,6.6,298.8,336.6,301.1
906.4,998,17.4,16.3,93,12.94,60,6.6,298.8,336.7,301.2
905.9,1003,17.4,16.3,93,12.96,60,6.6,298.8,336.8,301.2
905.3,1008,17.3,16.3,94,12.98,60,6.6,298.9,336.9,301.2
904.8,1013,17.3,16.2,94,12.95,60,6.6,298.9,336.8,301.2
904.3,1018,17.3,16.2,93,12.89,60,6.6,298.9,336.6,301.2
903.7,1023,17.3,16.1,93,12.85,60,6.6,298.9,336.6,301.2
903.2,1028,17.2,16.1,93,12.84,60,6.6,298.9,336.6,301.2
902.6,1034,17.2,16.1,93,12.84,61,6.6,298.9,336.5,301.2
902.1,1039,17.1,16.0,93,12.80,61,6.6,298.9,336.5,301.2
901.6,1044,17.1,16.0,93,12.77,61,6.6,299.0,336.4,301.3
901.0,1049,17.1,16.0,93,12.76,62,6.6,299.0,336.4,301.3
900.5,1054,17.0,15.9,93,12.72,62,6.6,299.0,336.3,301.3
900.0,1059,17.0,15.8,93,12.68,63,6.6,299.0,336.2,301.3
899.4,1064,17.0,15.8,92,12.62,63,6.6,299.1,336.0,301.3
898.8,1070,17.0,15.6,92,12.52,64,6.6,299.1,335.8,301.3
898.3,1075,17.0,15.5,91,12.39,64,6.6,299.1,335.5,301.4
897.7,1080,17.0,15.2,89,12.21,65,6.6,299.2,335.1,301.4
897.2,1085,17.1,15.0,88,12.07,65,6.6,299.3,334.8,301.5
896.7,1090,17.1,15.0,88,12.03,65,6.6,299.4,334.8,301.6
896.1,1095,17.0,15.0,88,12.08,66,6.6,299.4,334.9,301.6
895.6,1100,17.0,15.1,89,12.13,66,6.6,299.4,335.1,301.6
895.1,1105,17.0,15.1,89,12.16,66,6.6,299.4,335.2,301.6
894.7,1110,16.9,15.1,89,12.14,66,6.6,299.4,335.1,301.6
894.2,1114,16.9,14.9,88,12.03,66,6.6,299.5,334.8,301.6
893.7,1119,16.9,14.8,87,11.89,66,6.6,299.5,334.5,301.7
893.1,1124,16.9,14.6,86,11.81,66,6.6,299.6,334.3,301.7
892.6,1129,16.9,14.6,86,11.77,66,6.6,299.6,334.2,301.7
892.0,1135,16.9,14.5,86,11.74,65,6.7,299.6,334.2,301.7
891.4,1140,16.8,14.5,86,11.70,65,6.7,299.6,334.1,301.7
890.8,1146,16.8,14.4,86,11.66,65,6.7,299.7,334.0,301.8
890.2,1152,16.8,14.4,86,11.63,65,6.7,299.7,333.9,301.8
889.6,1158,16.7,14.3,86,11.62,64,6.8,299.7,333.9,301.8
889.0,1164,16.7,14.3,86,11.62,64,6.8,299.7,334.0,301.8
888.4,1170,16.6,14.3,86,11.61,63,6.8,299.7,333.9,301.8
887.8,1176,16.6,14.2,86,11.57,63,6.8,299.7,333.8,301.8
887.2,1181,16.5,14.2,86,11.54,63,6.9,299.7,333.7,301.8
886.6,1187,16.5,14.1,86,11.51,63,6.9,299.8,333.7,301.8
886.1,1192,16.4,14.1,86,11.49,62,6.9,299.8,333.6,301.8
885.6,1197,16.4,14.0,86,11.45,62,7.0,299.8,333.6,301.9
885.0,1202,16.4,14.0,85,11.41,62,7.0,299.9,333.5,301.9
884.5,1207,16.4,13.9,85,11.36,62,7.0,299.9,333.4,301.9
884.0,1212,16.4,13.8,85,11.30,62,7.0,299.9,333.3,302.0
883.5,1217,16.4,13.7,84,11.24,62,7.0,299.9,333.1,302.0
882.9,1222,16.3,13.6,84,11.18,62,7.0,300.0,333.0,302.0
882.4,1227,16.3,13.5,84,11.12,62,7.0,300.0,332.8,302.0
881.9,1232,16.2,13.4,83,11.03,62,7.0,300.0,332.5,302.0
881.4,1238,16.2,13.3,83,10.94,62,6.9,300.0,332.3,302.0
880.8,1243,16.2,13.2,83,10.90,62,6.9,300.0,332.2,302.0
880.3,1248,16.1,13.2,83,10.89,62,6.9,300.0,332.2,302.0
879.8,1252,16.1,13.2,83,10.88,62,6.8,300.0,332.1,302.0
879.4,1257,16.0,13.1,83,10.85,63,6.8,300.0,332.1,302.0
878.9,1262,16.0,13.1,83,10.87,63,6.7,300.0,332.1,302.0
878.4,1266,16.0,13.2,84,10.95,63,6.7,300.0,332.4,302.0
878.0,1271,15.9,13.4,85,11.04,63,6.6,300.0,332.6,302.0
877.5,1275,15.9,13.3,85,11.02,63,6.5,300.0,332.6,302.0
877.0,1280,15.9,13.1,84,10.90,64,6.5,300.1,332.2,302.0
876.5,1284,15.9,12.9,82,10.70,64,6.4,300.1,331.7,302.0
876.0,1289,15.9,12.5,81,10.48,64,6.4,300.2,331.2,302.1
875.5,1294,15.9,12.2,78,10.22,64,6.3,300.2,330.5,302.1
875.0,1299,15.9,11.7,76,9.91,64,6.3,300.3,329.7,302.1
874.5,1304,15.9,11.2,73,9.57,64,6.3,300.4,328.8,302.1
873.9,1310,16.0,10.7,71,9.28,64,6.2,300.5,328.1,302.2
873.4,1315,16.1,10.4,69,9.11,64,6.2,300.6,327.7,302.3
872.8,1321,16.1,10.4,69,9.11,64,6.2,300.7,327.8,302.3
872.2,1326,16.0,10.6,70,9.23,64,6.2,300.7,328.1,302.4
871.6,1332,16.0,11.0,72,9.48,64,6.2,300.7,328.9,302.4
871.1,1338,15.9,11.4,75,9.76,64,6.2,300.7,329.6,302.4
870.5,1343,15.8,11.9,77,10.08,64,6.2,300.6,330.5,302.4
870.0,1348,15.5,12.2,81,10.33,64,6.2,300.4,331.0,302.2
869.5,1353,15.3,12.0,81,10.20,64,6.3,300.2,330.4,302.1
869.0,1358,15.4,11.5,78,9.89,64,6.3,300.4,329.7,302.2
868.5,1363,15.6,11.4,76,9.78,64,6.3,300.6,329.6,302.4
868.0,1367,15.5,11.5,77,9.84,64,6.4,300.6,329.8,302.4
867.6,1372,15.5,11.7,78,9.99,64,6.4,300.6,330.2,302.4
867.2,1376,15.5,12.2,81,10.33,64,6.4,300.6,331.2,302.5
866.7,1380,15.4,12.8,85,10.79,64,6.5,300.5,332.5,302.5
866.3,1384,15.2,13.2,88,11.07,64,6.5,300.4,333.1,302.4
865.9,1388,15.0,13.3,90,11.17,64,6.6,300.2,333.2,302.2
865.5,1392,14.8,13.4,91,11.24,64,6.6,300.1,333.2,302.1
865.1,1396,14.7,13.4,92,11.25,64,6.7,300.0,333.2,302.0
864.7,1400,14.6,13.2,92,11.11,65,6.7,299.9,332.7,301.9
864.3,1404,14.6,12.7,88,10.76,65,6.7,300.0,331.8,302.0
863.9,1408,14.9,12.2,84,10.39,65,6.7,300.3,331.1,302.2
863.5,1412,15.1,12.0,82,10.25,65,6.8,300.6,331.0,302.5
863.1,1415,15.2,12.2,82,10.40,66,6.8,300.7,331.5,302.6
862.7,1419,15.0,12.4,85,10.57,66,6.8,300.5,331.9,302.5
862.3,1423,14.8,12.5,86,10.65,66,6.8,300.4,332.0,302.4
861.9,1428,14.8,12.6,87,10.72,66,6.8,300.4,332.1,302.4
861.5,1432,14.7,12.7,88,10.79,67,6.8,300.4,332.3,302.3
861.1,1436,14.5,12.8,89,10.84,67,6.8,300.2,332.3,302.2
860.7,1440,14.4,12.7,89,10.81,67,6.9,300.2,332.1,302.1
860.2,1444,14.5,12.6,89,10.73,67,6.9,300.3,332.0,302.2
859.9,1448,14.5,12.6,88,10.73,68,6.9,300.4,332.1,302.3
859.5,1451,14.5,12.7,89,10.83,68,6.9,300.4,332.4,302.4
859.1,1455,14.4,12.8,90,10.88,68,6.9,300.3,332.5,302.3
858.7,1459,14.3,12.7,90,10.84,68,6.9,300.2,332.3,302.2
858.3,1463,14.4,12.6,89,10.76,68,6.9,300.4,332.2,302.3
857.9,1467,14.5,12.6,89,10.74,68,6.9,300.5,332.3,302.4
857.5,1471,14.4,12.8,90,10.88,68,6.9,300.5,332.7,302.4
857.1,1475,14.3,13.2,94,11.22,68,6.9,300.3,333.5,302.4
856.7,1479,14.1,13.7,97,11.55,68,6.9,300.3,334.4,302.4
856.3,1483,14.1,13.8,98,11.64,68,7.0,300.2,334.6,302.3
855.8,1487,14.0,13.6,97,11.54,68,7.0,300.2,334.3,302.3
855.4,1492,14.0,13.5,97,11.43,68,7.0,300.2,334.0,302.3
854.9,1496,13.9,13.3,96,11.33,68,7.1,300.2,333.7,302.3
854.5,1501,13.8,13.2,96,11.20,68,7.1,300.2,333.2,302.2
854.0,1505,13.8,12.9,94,11.01,67,7.2,300.2,332.7,302.2
853.5,1510,13.8,12.6,93,10.81,67,7.3,300.2,332.2,302.2
853.1,1514,13.8,12.3,91,10.61,67,7.3,300.2,331.6,302.2
852.7,1519,13.9,11.9,88,10.35,67,7.4,300.4,331.0,302.2
852.2,1523,13.9,11.5,85,10.05,66,7.5,300.5,330.3,302.3
851.8,1527,13.9,11.4,85,9.99,66,7.6,300.5,330.1,302.3
851.4,1532,13.8,11.8,87,10.24,66,7.7,300.5,330.8,302.3
850.9,1536,13.8,12.4,91,10.66,66,7.8,300.4,332.0,302.4
850.4,1541,13.7,12.9,95,11.04,66,7.9,300.4,333.0,302.4
850.0,1545,13.6,13.1,97,11.21,66,7.9,300.3,333.4,302.3
849.5,1550,13.5,13.0,97,11.17,66,8.0,300.3,333.3,302.3
849.0,1555,13.5,12.7,95,10.93,66,8.1,300.3,332.6,302.3
848.6,1559,13.5,12.3,92,10.64,66,8.2,300.4,331.9,302.3
848.1,1564,13.5,12.0,90,10.43,66,8.3,300.5,331.3,302.4
847.7,1568,13.6,11.9,90,10.41,66,8.4,300.6,331.4,302.5
847.3,1572,13.6,12.0,90,10.46,66,8.4,300.6,331.6,302.5
846.8,1577,13.5,12.0,91,10.50,66,8.5,300.6,331.7,302.5
846.4,1581,13.5,12.1,91,10.54,66,8.6,300.6,331.8,302.5
846.0,1585,13.5,12.0,91,10.46,66,8.6,300.7,331.6,302.5
845.6,1589,13.6,11.4,87,10.10,66,8.7,300.8,330.8,302.7
845.1,1593,13.8,10.8,82,9.65,66,8.7,301.1,329.8,302.9
844.7,1598,14.0,10.5,80,9.48,67,8.7,301.3,329.5,303.0
844.3,1602,14.0,10.6,80,9.52,67,8.7,301.4,329.7,303.1
843.8,1607,14.0,10.6,80,9.57,67,8.8,301.4,329.9,303.1
843.3,1611,13.9,10.6,80,9.57,67,8.8,301.4,329.9,303.1
842.9,1616,13.9,10.6,81,9.58,67,8.8,301.4,330.0,303.1
842.4,1621,13.9,10.7,81,9.63,67,8.8,301.4,330.1,303.2
841.9,1626,13.8,10.7,82,9.67,67,8.7,301.5,330.3,303.2
841.5,1630,13.8,10.6,81,9.61,68,8.7,301.5,330.1,303.2
841.0,1635,13.8,10.5,80,9.50,68,8.7,301.5,329.9,303.3
840.5,1640,13.8,10.3,79,9.40,68,8.7,301.6,329.6,303.3
840.0,1645,13.8,10.3,79,9.38,68,8.7,301.6,329.6,303.3
839.6,1649,13.8,10.3,79,9.42,68,8.6,301.6,329.7,303.3
839.1,1654,13.8,10.4,80,9.49,68,8.6,301.6,330.0,303.4
838.6,1659,13.7,10.5,81,9.52,68,8.6,301.7,330.1,303.4
838.1,1664,13.7,10.3,80,9.43,69,8.6,301.7,329.8,303.4
837.6,1669,13.6,10.0,79,9.27,69,8.5,301.7,329.4,303.4
837.2,1673,13.6,9.7,77,9.08,69,8.5,301.7,328.8,303.4
836.7,1678,13.6,9.4,76,8.90,69,8.5,301.8,328.4,303.4
836.3,1682,13.6,9.3,75,8.80,69,8.5,301.8,328.1,303.4
835.8,1687,13.6,9.2,75,8.76,69,8.4,301.8,328.0,303.4
835.4,1691,13.6,9.1,74,8.70,69,8.4,301.8,327.9,303.4
835.0,1696,13.5,9.0,74,8.64,70,8.4,301.8,327.7,303.4
834.5,1700,13.5,8.9,74,8.63,70,8.4,301.9,327.7,303.4
834.1,1705,13.5,9.0,74,8.65,70,8.3,301.9,327.7,303.4
833.7,1709,13.4,9.0,75,8.67,70,8.3,301.9,327.8,303.4
833.2,1713,13.4,9.0,75,8.71,70,8.3,301.9,327.9,303.4
832.8,1718,13.3,9.1,75,8.74,70,8.3,301.9,328.0,303.5
832.4,1722,13.3,9.1,76,8.75,70,8.2,301.9,328.0,303.4
831.9,1727,13.3,9.1,76,8.75,70,8.2,301.9,328.0,303.5
831.5,1731,13.2,9.1,76,8.75,70,8.2,301.9,328.1,303.5
831.0,1736,13.2,9.1,76,8.75,70,8.1,301.9,328.1,303.5
830.6,1740,13.1,9.1,77,8.76,69,8.1,301.9,328.1,303.4
830.2,1744,13.1,9.2,77,8.82,69,8.1,301.8,328.2,303.5
829.8,1749,13.0,9.3,78,8.88,69,8.0,301.8,328.4,303.5
829.3,1753,13.0,9.3,78,8.88,69,8.0,301.9,328.4,303.5
828.9,1757,13.0,9.1,77,8.80,68,8.0,301.9,328.2,303.5
828.5,1761,13.0,8.9,76,8.68,68,7.9,301.9,327.9,303.5
828.1,1766,13.0,8.7,75,8.53,68,7.9,302.0,327.5,303.5
827.6,1770,13.0,8.3,73,8.35,68,7.8,302.0,327.1,303.5
827.2,1775,13.0,8.0,72,8.18,67,7.8,302.1,326.6,303.5
826.7,1780,13.0,7.8,71,8.08,67,7.7,302.1,326.4,303.6
826.2,1785,13.0,7.7,70,8.02,66,7.7,302.2,326.3,303.6
825.7,1790,13.0,7.6,70,7.97,66,7.6,302.2,326.2,303.7
825.2,1795,13.0,7.5,69,7.92,66,7.6,302.3,326.2,303.8
824.6,1801,13.0,7.4,69,7.86,65,7.5,302.4,326.0,303.8
824.1,1806,13.0,7.2,68,7.74,65,7.5,302.4,325.7,303.8
823.6,1812,13.0,6.9,66,7.58,64,7.4,302.5,325.3,303.8
823.0,1817,13.0,6.5,65,7.42,64,7.4,302.5,324.9,303.9
822.5,1822,13.0,6.4,64,7.37,64,7.4,302.6,324.8,303.9
822.1,1827,13.0,6.5,65,7.42,63,7.3,302.6,325.0,303.9
821.6,1832,13.0,6.7,66,7.51,63,7.3,302.6,325.3,304.0
821.1,1837,12.9,6.8,66,7.55,63,7.2,302.7,325.4,304.0
820.7,1841,12.9,6.7,66,7.52,62,7.2,302.7,325.4,304.1
820.2,1846,12.9,6.6,65,7.46,62,7.1,302.7,325.3,304.1
819.8,1851,12.9,6.4,65,7.38,62,7.1,302.8,325.1,304.1
819.3,1856,12.9,6.2,64,7.29,62,7.0,302.8,324.8,304.1
818.8,1861,12.9,6.0,63,7.19,61,7.0,302.9,324.6,304.2
818.3,1866,12.9,5.9,62,7.12,61,6.9,302.9,324.5,304.2
