PRES,HGHT,TEMP,DWPT,RELH,MIXR,DRCT,SPED,THTA,THTE,THTV
1013.3,31,23.4,19.6,79,14.29,74,4.4,295.4,336.6,298.0
1012.5,38,23.4,19.7,80,14.41,72,3.5,295.5,337.1,298.1
1011.9,43,23.2,19.6,80,14.32,72,3.5,295.3,336.6,297.9
1011.2,48,23.1,19.5,80,14.24,72,3.7,295.3,336.3,297.8
1010.5,55,23.0,19.4,80,14.14,72,4.0,295.2,336.0,297.7
1009.8,61,22.9,19.2,80,13.99,72,4.2,295.2,335.5,297.7
1009.2,66,22.8,19.0,79,13.86,72,4.5,295.2,335.1,297.6
1008.6,72,22.8,19.0,79,13.80,72,4.7,295.2,335.0,297.6
1007.9,77,22.7,18.9,79,13.76,72,5.0,295.2,334.9,297.6
1007.3,83,22.7,18.8,79,13.72,72,5.2,295.2,334.7,297.6
1006.6,88,22.6,18.7,79,13.62,72,5.4,295.2,334.4,297.6
1006.0,94,22.5,18.6,78,13.49,72,5.6,295.1,334.0,297.5
1005.3,100,22.4,18.6,79,13.50,72,5.8,295.1,334.1,297.5
1004.7,105,22.4,18.6,79,13.58,72,6.0,295.2,334.3,297.6
1004.0,111,22.4,18.7,80,13.66,72,6.2,295.2,334.5,297.6
1003.3,117,22.3,18.8,80,13.71,72,6.3,295.2,334.7,297.6
1002.6,123,22.2,18.7,80,13.66,72,6.5,295.2,334.5,297.6
1001.9,130,22.2,18.6,80,13.59,72,6.6,295.2,334.3,297.6
1001.2,136,22.1,18.6,80,13.55,71,6.7,295.2,334.2,297.6
1000.5,142,22.1,18.6,81,13.57,71,6.8,295.2,334.3,297.6
1000.0,146,22.0,18.6,81,13.61,71,6.8,295.2,334.4,297.6
999.7,148,22.0,18.6,81,13.63,71,6.9,295.2,334.5,297.6
999.0,154,22.0,18.7,82,13.70,71,6.9,295.2,334.7,297.6
998.3,161,21.9,18.7,82,13.73,70,7.0,295.2,334.8,297.6
997.5,167,21.8,18.7,82,13.72,70,7.0,295.2,334.7,297.6
996.8,174,21.8,18.6,82,13.63,70,7.1,295.2,334.5,297.6
996.0,181,21.7,18.4,82,13.50,69,7.1,295.1,334.1,297.5
995.2,188,21.6,18.3,82,13.43,69,7.1,295.1,333.8,297.5
994.4,195,21.5,18.3,82,13.43,69,7.2,295.1,333.8,297.5
993.6,202,21.5,18.3,82,13.46,68,7.2,295.1,333.9,297.5
992.8,209,21.4,18.4,83,13.50,68,7.2,295.1,334.1,297.5
992.0,216,21.3,18.4,84,13.57,67,7.2,295.1,334.2,297.5
991.2,223,21.3,18.5,84,13.62,67,7.2,295.1,334.4,297.6
990.4,230,21.2,18.5,85,13.68,66,7.2,295.2,334.6,297.6
989.6,237,21.2,18.6,85,13.74,65,7.2,295.2,334.8,297.6
988.8,244,21.1,18.6,86,13.77,65,7.2,295.2,334.9,297.6
988.0,251,21.0,18.6,86,13.78,64,7.2,295.2,334.9,297.6
987.2,258,21.0,18.6,86,13.76,64,7.2,295.2,334.9,297.6
986.5,264,20.9,18.4,86,13.66,63,7.2,295.2,334.5,297.6
985.7,271,20.8,18.3,86,13.56,63,7.2,295.1,334.2,297.5
984.9,278,20.7,18.3,86,13.55,62,7.2,295.2,334.2,297.5
984.2,285,20.7,18.4,87,13.62,62,7.2,295.1,334.4,297.6
983.4,291,20.6,18.4,87,13.71,62,7.3,295.2,334.6,297.6
982.7,298,20.5,18.5,88,13.74,62,7.3,295.2,334.7,297.6
982.0,304,20.5,18.4,88,13.73,61,7.3,295.2,334.7,297.6
981.3,310,20.4,18.4,88,13.74,61,7.3,295.2,334.7,297.6
980.6,316,20.4,18.4,89,13.74,61,7.3,295.2,334.8,297.6
979.9,322,20.3,18.4,89,13.71,61,7.4,295.2,334.7,297.6
979.2,328,20.3,18.4,89,13.69,61,7.4,295.2,334.6,297.6
978.6,334,20.2,18.3,89,13.69,61,7.4,295.2,334.6,297.6
977.9,340,20.1,18.3,89,13.70,61,7.4,295.2,334.6,297.6
977.3,346,20.1,18.3,90,13.70,62,7.4,295.2,334.6,297.6
976.6,351,20.0,18.3,90,13.67,62,7.5,295.2,334.6,297.6
976.0,357,20.0,18.3,90,13.65,62,7.5,295.2,334.5,297.6
975.3,363,19.9,18.2,90,13.64,62,7.5,295.2,334.5,297.6
974.7,369,19.9,18.2,90,13.64,63,7.5,295.2,334.5,297.6
974.0,374,19.8,18.2,90,13.65,63,7.6,295.2,334.5,297.6
973.4,380,19.8,18.2,91,13.64,63,7.6,295.2,334.5,297.6
972.8,385,19.7,18.2,91,13.60,64,7.6,295.2,334.4,297.6
972.2,390,19.7,18.1,91,13.59,64,7.6,295.2,334.3,297.6
971.6,396,19.6,18.1,91,13.60,65,7.7,295.2,334.4,297.6
971.1,401,19.6,18.1,91,13.59,65,7.7,295.2,334.3,297.6
970.5,406,19.5,18.0,91,13.50,65,7.7,295.2,334.1,297.6
970.0,410,19.5,17.7,90,13.26,65,7.8,295.2,333.4,297.5
969.4,415,19.4,17.3,87,12.88,66,7.8,295.2,332.3,297.5
968.9,420,19.4,16.8,85,12.54,66,7.8,295.2,331.4,297.4
968.4,425,19.4,16.6,84,12.39,66,7.9,295.2,331.0,297.4
967.9,429,19.4,16.7,84,12.44,66,7.9,295.3,331.2,297.5
967.3,434,19.4,16.8,85,12.56,66,7.9,295.3,331.6,297.5
966.8,438,19.4,16.8,85,12.58,66,8.0,295.3,331.6,297.6
966.3,443,19.3,16.9,86,12.62,66,8.0,295.3,331.8,297.6
965.7,448,19.3,17.1,87,12.80,66,8.1,295.3,332.3,297.6
965.1,453,19.2,17.2,88,12.92,66,8.1,295.3,332.6,297.6
964.6,459,19.1,17.1,88,12.82,66,8.1,295.3,332.3,297.6
964.0,464,19.1,16.9,87,12.66,66,8.1,295.3,331.8,297.6
963.4,469,19.1,16.8,86,12.55,66,8.2,295.3,331.6,297.6
962.9,474,19.0,16.7,86,12.53,66,8.2,295.4,331.5,297.6
962.3,478,19.0,16.7,87,12.55,66,8.2,295.4,331.6,297.6
961.8,483,19.0,16.8,87,12.61,66,8.2,295.4,331.8,297.6
961.3,488,18.9,16.9,88,12.67,66,8.2,295.4,332.0,297.6
960.7,493,18.9,16.8,88,12.65,66,8.2,295.4,331.9,297.6
960.2,498,18.8,16.7,87,12.53,65,8.2,295.4,331.5,297.6
959.6,503,18.8,16.5,86,12.38,65,8.2,295.4,331.1,297.6
959.0,508,18.8,16.2,85,12.18,65,8.2,295.4,330.6,297.6
958.5,513,18.8,15.9,84,11.96,65,8.2,295.5,330.0,297.6
957.9,518,18.8,15.7,82,11.82,65,8.1,295.5,329.7,297.6
957.4,523,18.8,15.7,82,11.81,65,8.1,295.6,329.7,297.7
956.8,528,18.7,15.7,83,11.84,65,8.1,295.6,329.8,297.7
956.3,533,18.7,15.8,83,11.85,65,8.0,295.6,329.9,297.7
955.7,538,18.6,15.7,83,11.85,65,8.0,295.6,329.9,297.7
955.2,543,18.6,15.7,83,11.85,65,8.0,295.6,329.9,297.7
954.6,548,18.6,15.8,84,11.87,64,7.9,295.6,330.0,297.7
954.1,553,18.5,15.8,84,11.90,64,7.9,295.6,330.0,297.7
953.5,558,18.5,15.8,84,11.91,64,7.8,295.6,330.1,297.7
952.9,563,18.4,15.8,84,11.90,64,7.8,295.6,330.0,297.7
952.3,568,18.4,15.7,85,11.89,64,7.8,295.6,330.0,297.7
951.7,574,18.3,15.7,85,11.86,64,7.7,295.6,329.9,297.7
951.1,579,18.3,15.6,85,11.82,64,7.7,295.6,329.8,297.7
950.5,585,18.2,15.6,85,11.79,64,7.6,295.6,329.7,297.7
949.9,590,18.2,15.5,85,11.75,63,7.6,295.6,329.6,297.7
949.3,596,18.1,15.5,85,11.72,63,7.5,295.6,329.5,297.7
948.7,601,18.1,15.4,85,11.70,63,7.5,295.6,329.5,297.7
948.2,606,18.0,15.4,85,11.70,63,7.4,295.6,329.5,297.7
947.6,611,18.0,15.4,85,11.71,62,7.4,295.7,329.5,297.7
947.0,616,18.0,15.4,85,11.72,62,7.3,295.7,329.6,297.8
946.5,621,17.9,15.4,85,11.71,62,7.3,295.7,329.6,297.8
945.9,626,17.9,15.4,85,11.68,61,7.2,295.7,329.5,297.8
945.4,631,17.9,15.3,85,11.66,61,7.2,295.7,329.5,297.8
944.9,636,17.8,15.3,85,11.66,61,7.2,295.7,329.5,297.8
944.3,641,17.8,15.3,86,11.66,60,7.1,295.7,329.5,297.8
943.8,646,17.7,15.3,86,11.63,60,7.1,295.7,329.4,297.8
943.2,651,17.7,15.2,85,11.61,60,7.1,295.7,329.4,297.8
942.7,656,17.7,15.2,85,11.60,59,7.1,295.8,329.3,297.8
942.1,661,17.6,15.2,86,11.62,59,7.0,295.8,329.4,297.8
941.5,667,17.6,15.3,86,11.65,58,7.0,295.8,329.5,297.9
940.9,672,17.5,15.3,86,11.67,58,7.0,295.8,329.6,297.9
940.3,677,17.5,15.2,86,11.65,58,7.0,295.8,329.5,297.9
939.7,683,17.5,15.2,86,11.61,58,7.0,295.8,329.4,297.9
939.1,688,17.4,15.1,86,11.59,57,7.0,295.8,329.4,297.9
938.6,693,17.4,15.1,86,11.57,57,7.0,295.8,329.3,297.9
938.0,699,17.3,15.0,86,11.54,57,7.0,295.9,329.3,297.9
937.4,704,17.3,15.0,86,11.52,57,7.0,295.9,329.3,297.9
936.9,709,17.3,15.0,86,11.51,57,7.0,295.9,329.3,298.0
936.3,714,17.3,15.0,87,11.52,57,7.0,295.9,329.3,298.0
935.8,718,17.2,15.0,87,11.52,57,7.1,295.9,329.3,298.0
935.3,723,17.2,15.0,87,11.50,57,7.1,295.9,329.3,298.0
934.8,728,17.1,14.9,87,11.49,57,7.1,295.9,329.2,298.0
934.3,732,17.1,14.9,87,11.49,57,7.1,295.9,329.2,298.0
933.8,737,17.1,14.9,87,11.51,57,7.1,295.9,329.3,298.0
933.3,741,17.0,14.9,87,11.51,58,7.1,296.0,329.3,298.0
932.8,746,17.0,14.9,88,11.51,58,7.2,296.0,329.3,298.0
932.3,750,17.0,14.9,88,11.50,58,7.2,296.0,329.3,298.0
931.8,755,17.0,14.9,88,11.50,59,7.2,296.0,329.4,298.1
931.3,760,16.9,14.9,88,11.50,59,7.2,296.0,329.4,298.1
930.7,765,16.9,14.9,88,11.49,59,7.2,296.1,329.4,298.1
930.1,770,16.9,14.8,88,11.46,59,7.2,296.1,329.3,298.1
929.6,776,16.8,14.8,88,11.42,60,7.2,296.1,329.2,298.1
929.0,781,16.8,14.7,88,11.39,60,7.2,296.1,329.1,298.1
928.4,786,16.7,14.6,87,11.35,61,7.1,296.1,329.0,298.1
927.9,791,16.7,14.6,87,11.31,61,7.1,296.1,328.9,298.1
927.3,796,16.7,14.6,88,11.32,61,7.1,296.1,329.0,298.1
926.8,802,16.6,14.6,88,11.35,62,7.1,296.1,329.0,298.1
926.2,806,16.6,14.6,88,11.37,62,7.1,296.1,329.1,298.1
925.7,811,16.5,14.6,89,11.37,62,7.0,296.1,329.1,298.1
925.2,816,16.5,14.6,89,11.36,62,7.0,296.1,329.1,298.1
925.0,818,16.5,14.6,89,11.36,63,7.0,296.1,329.1,298.1
924.7,821,16.4,14.6,89,11.36,63,7.0,296.1,329.1,298.1
924.2,825,16.4,14.6,89,11.37,63,7.0,296.1,329.1,298.1
923.7,830,16.3,14.6,89,11.36,63,6.9,296.1,329.1,298.2
923.2,835,16.3,14.6,89,11.36,64,6.9,296.1,329.1,298.2
922.7,839,16.3,14.5,89,11.35,64,6.9,296.2,329.1,298.2
922.2,844,16.3,14.5,89,11.32,64,6.9,296.2,329.0,298.2
921.7,849,16.2,14.5,89,11.31,65,6.9,296.2,329.0,298.2
921.1,854,16.2,14.5,89,11.31,65,6.9,296.2,329.0,298.2
920.6,859,16.2,14.5,90,11.33,65,6.9,296.3,329.1,298.3
920.0,864,16.2,14.5,90,11.36,66,6.8,296.3,329.2,298.3
919.5,869,16.1,14.5,90,11.37,66,6.8,296.3,329.3,298.3
918.9,874,16.1,14.5,90,11.37,66,6.8,296.3,329.3,298.3
918.3,880,16.0,14.5,91,11.35,66,6.9,296.3,329.2,298.3
917.7,885,16.0,14.4,91,11.33,66,6.9,296.3,329.2,298.3
917.2,890,15.9,14.4,91,11.32,67,6.9,296.3,329.2,298.3
916.6,896,15.9,14.4,91,11.33,67,6.9,296.3,329.2,298.3
916.0,901,15.8,14.4,91,11.36,67,6.9,296.3,329.3,298.3
915.5,906,15.8,14.5,92,11.38,67,6.9,296.3,329.4,298.4
915.0,911,15.8,14.4,92,11.34,67,6.9,296.3,329.3,298.4
914.4,916,15.7,14.3,91,11.29,67,7.0,296.4,329.1,298.4
913.9,920,15.7,14.3,91,11.25,68,7.0,296.4,329.1,298.4
913.4,925,15.7,14.2,91,11.24,68,7.0,296.4,329.1,298.4
912.9,930,15.7,14.2,91,11.25,68,7.0,296.4,329.1,298.4
912.4,935,15.6,14.2,91,11.25,68,7.0,296.4,329.1,298.4
911.9,940,15.6,14.2,91,11.23,68,7.0,296.4,329.1,298.5
911.3,945,15.6,14.1,91,11.20,68,7.0,296.5,329.0,298.5
910.8,950,15.5,14.1,91,11.17,68,7.0,296.5,328.9,298.4
910.3,955,15.5,14.1,91,11.15,67,7.0,296.5,328.9,298.5
909.7,960,15.4,14.0,91,11.13,67,7.0,296.5,328.8,298.5
909.2,965,15.4,14.0,92,11.13,67,7.0,296.5,328.8,298.5
908.7,970,15.4,14.0,92,11.14,67,6.9,296.5,328.9,298.5
908.1,974,15.3,14.0,92,11.15,67,6.9,296.5,328.9,298.5
907.6,979,15.3,14.0,92,11.16,67,6.9,296.5,329.0,298.5
907.1,984,15.2,14.0,92,11.16,66,6.8,296.5,329.0,298.5
906.6,989,15.2,14.0,92,11.14,66,6.8,296.5,328.9,298.5
906.1,993,15.2,14.0,93,11.14,66,6.7,296.5,328.9,298.5
905.6,998,15.1,14.0,93,11.13,66,6.7,296.5,328.9,298.5
905.1,1003,15.1,13.9,93,11.12,66,6.6,296.6,328.9,298.5
904.6,1007,15.1,13.9,93,11.08,65,6.6,296.6,328.8,298.6
904.2,1012,15.0,13.8,92,11.05,65,6.5,296.6,328.8,298.6
903.7,1016,15.0,13.8,92,11.04,65,6.5,296.6,328.7,298.6
903.2,1021,15.0,13.8,92,11.04,65,6.4,296.6,328.8,298.6
902.7,1025,15.0,13.8,93,11.05,65,6.4,296.7,328.8,298.6
902.2,1030,14.9,13.8,93,11.06,65,6.3,296.7,328.8,298.6
901.8,1034,14.9,13.8,93,11.06,65,6.3,296.7,328.8,298.6
901.3,1039,14.8,13.8,93,11.06,65,6.2,296.7,328.8,298.6
900.7,1044,14.8,13.8,94,11.08,65,6.2,296.7,328.9,298.6
900.2,1049,14.7,13.8,94,11.10,65,6.2,296.7,328.9,298.6
899.6,1054,14.7,13.8,94,11.10,65,6.1,296.7,329.0,298.7
899.1,1060,14.6,13.8,94,11.07,65,6.1,296.7,328.9,298.6
898.5,1065,14.6,13.7,94,11.02,66,6.1,296.7,328.8,298.7
897.9,1071,14.6,13.6,94,10.99,66,6.1,296.7,328.7,298.7
897.3,1076,14.5,13.5,94,10.93,66,6.1,296.7,328.6,298.7
896.7,1082,14.5,13.4,93,10.86,67,6.0,296.7,328.4,298.7
896.1,1088,14.5,13.3,93,10.78,67,6.0,296.8,328.2,298.7
895.5,1093,14.4,13.2,92,10.71,68,6.0,296.8,328.0,298.7
894.9,1099,14.4,13.2,92,10.68,68,6.0,296.8,328.0,298.7
894.3,1105,14.4,13.2,92,10.71,69,6.0,296.9,328.1,298.8
893.7,1110,14.4,13.2,93,10.74,69,6.0,296.9,328.2,298.8
893.1,1116,14.3,13.2,93,10.76,70,6.0,296.9,328.2,298.8
892.5,1122,14.3,13.2,93,10.73,70,6.0,296.9,328.2,298.8
891.9,1127,14.2,13.1,93,10.69,70,6.0,296.9,328.1,298.8
891.4,1133,14.2,13.1,93,10.68,71,6.0,296.9,328.0,298.8
890.8,1138,14.1,13.1,93,10.69,71,5.9,296.9,328.1,298.8
890.3,1143,14.1,13.1,94,10.69,71,5.9,296.9,328.1,298.8
889.7,1148,14.1,13.1,94,10.68,71,5.9,297.0,328.1,298.9
889.2,1153,14.0,13.0,94,10.68,72,5.9,296.9,328.1,298.9
888.7,1158,14.0,13.0,94,10.67,72,5.8,297.0,328.1,298.9
888.1,1163,13.9,13.0,94,10.66,72,5.8,297.0,328.0,298.9
887.6,1168,13.9,13.0,94,10.65,71,5.8,297.0,328.0,298.9
887.1,1173,13.8,12.9,94,10.62,71,5.7,297.0,327.9,298.9
886.6,1178,13.8,12.9,94,10.61,71,5.7,297.0,327.9,298.9
886.1,1183,13.8,12.9,94,10.59,71,5.7,297.0,327.9,298.9
885.6,1188,13.7,12.9,95,10.59,70,5.6,297.0,327.9,298.9
885.1,1192,13.7,12.8,94,10.56,70,5.6,297.0,327.8,298.9
884.6,1197,13.7,12.7,94,10.51,69,5.6,297.0,327.7,298.9
884.0,1202,13.6,12.7,94,10.49,69,5.5,297.1,327.7,298.9
883.5,1207,13.6,12.7,94,10.51,68,5.5,297.1,327.8,299.0
883.0,1213,13.6,12.7,95,10.54,68,5.5,297.1,327.8,299.0
882.4,1218,13.5,12.7,95,10.55,67,5.5,297.1,327.9,299.0
881.9,1223,13.5,12.7,95,10.52,67,5.4,297.1,327.8,299.0
881.3,1229,13.5,12.6,94,10.46,66,5.4,297.1,327.7,299.0
880.7,1234,13.4,12.5,94,10.39,65,5.4,297.2,327.5,299.0
880.1,1240,13.4,12.4,94,10.33,65,5.4,297.2,327.4,299.0
879.6,1245,13.4,12.3,94,10.30,65,5.4,297.2,327.3,299.0
879.0,1251,13.3,12.3,94,10.28,64,5.4,297.2,327.2,299.1
878.5,1256,13.3,12.3,94,10.27,64,5.5,297.2,327.2,299.0
877.9,1261,13.2,12.3,94,10.26,64,5.5,297.2,327.2,299.1
877.4,1266,13.2,12.2,94,10.26,63,5.5,297.2,327.2,299.1
876.9,1271,13.2,12.2,94,10.27,63,5.5,297.2,327.2,299.1
876.4,1275,13.1,12.2,94,10.27,64,5.5,297.3,327.3,299.1
875.9,1280,13.1,12.3,95,10.29,64,5.5,297.3,327.3,299.1
875.5,1285,13.0,12.3,95,10.30,64,5.5,297.3,327.4,299.1
875.0,1289,13.0,12.2,95,10.28,64,5.5,297.3,327.3,299.1
874.5,1294,13.0,12.2,95,10.23,64,5.5,297.3,327.2,299.1
874.0,1299,13.0,12.1,94,10.18,65,5.6,297.3,327.1,299.1
873.5,1304,12.9,12.0,94,10.14,65,5.6,297.4,327.0,299.2
872.9,1309,12.9,12.0,94,10.12,66,5.6,297.4,327.0,299.2
872.4,1314,12.9,11.9,94,10.10,66,5.6,297.4,327.0,299.2
871.9,1319,12.9,11.9,94,10.08,67,5.6,297.4,326.9,299.2
871.4,1324,12.8,11.8,94,10.06,68,5.6,297.5,326.9,299.3
870.9,1329,12.8,11.8,93,10.01,68,5.6,297.5,326.8,299.3
870.4,1334,12.8,11.7,93,9.96,69,5.6,297.5,326.7,299.3
869.9,1339,12.8,11.6,93,9.94,70,5.6,297.5,326.7,299.3
869.4,1343,12.8,11.6,93,9.95,70,5.6,297.6,326.7,299.4
868.9,1348,12.8,11.6,93,9.95,71,5.6,297.6,326.8,299.4
868.4,1353,12.7,11.6,93,9.94,72,5.6,297.6,326.8,299.4
867.9,1358,12.7,11.5,93,9.90,72,5.5,297.7,326.7,299.5
867.4,1363,12.7,11.5,92,9.86,73,5.5,297.7,326.6,299.5
866.8,1368,12.7,11.5,92,9.85,74,5.5,297.8,326.6,299.5
866.3,1373,12.7,11.4,92,9.84,74,5.5,297.8,326.6,299.5
865.8,1378,12.6,11.4,92,9.84,75,5.5,297.8,326.6,299.6
865.4,1382,12.6,11.4,92,9.82,75,5.5,297.8,326.6,299.6
864.9,1387,12.6,11.4,92,9.81,76,5.5,297.8,326.6,299.6
864.4,1391,12.5,11.4,92,9.81,76,5.5,297.8,326.6,299.6
864.0,1396,12.5,11.3,93,9.80,77,5.5,297.8,326.6,299.6
863.6,1400,12.5,11.3,93,9.80,77,5.4,297.9,326.6,299.6
863.1,1404,12.5,11.3,93,9.81,78,5.4,297.9,326.6,299.6
862.7,1409,12.4,11.3,93,9.80,78,5.4,297.9,326.6,299.6
862.2,1413,12.4,11.3,93,9.79,78,5.4,297.9,326.6,299.7
861.8,1417,12.4,11.2,93,9.76,78,5.4,297.9,326.6,299.7
861.3,1422,12.4,11.2,92,9.73,79,5.4,298.0,326.5,299.7
860.8,1426,12.3,11.1,92,9.70,79,5.4,298.0,326.4,299.7
860.4,1431,12.3,11.1,92,9.69,79,5.4,298.0,326.4,299.7
859.9,1436,12.3,11.1,92,9.67,79,5.4,298.0,326.4,299.7
859.4,1440,12.2,11.0,92,9.65,79,5.4,298.0,326.3,299.7
858.9,1445,12.2,11.0,92,9.65,79,5.4,298.0,326.3,299.7
858.4,1450,12.2,11.0,93,9.65,79,5.4,298.0,326.3,299.8
858.0,1455,12.1,11.0,93,9.64,79,5.4,298.0,326.3,299.7
857.5,1459,12.1,11.0,93,9.63,79,5.4,298.0,326.3,299.8
857.0,1464,12.0,10.9,93,9.61,79,5.4,298.0,326.3,299.8
856.5,1469,12.0,10.9,93,9.59,79,5.4,298.1,326.2,299.8
856.0,1474,12.0,10.9,93,9.59,79,5.4,298.1,326.2,299.8
855.5,1479,11.9,10.9,93,9.61,78,5.4,298.1,326.3,299.8
855.0,1484,11.9,10.9,94,9.63,78,5.4,298.1,326.4,299.8
854.5,1489,11.9,10.9,94,9.64,78,5.4,298.1,326.4,299.8
854.0,1493,11.8,10.9,94,9.64,78,5.4,298.1,326.4,299.8
853.6,1498,11.8,10.9,94,9.64,78,5.4,298.1,326.4,299.8
853.1,1502,11.7,10.9,94,9.62,78,5.4,298.1,326.4,299.8
852.7,1507,11.7,10.8,94,9.59,78,5.4,298.1,326.3,299.8
852.2,1511,11.7,10.8,94,9.56,78,5.4,298.1,326.2,299.8
851.7,1516,11.6,10.7,94,9.56,78,5.4,298.1,326.2,299.8
851.2,1521,11.6,10.8,95,9.57,78,5.4,298.1,326.3,299.9
850.7,1526,11.5,10.7,95,9.56,78,5.4,298.2,326.3,299.9
850.2,1531,11.5,10.7,95,9.54,78,5.4,298.2,326.2,299.9
850.0,1533,11.5,10.7,95,9.53,78,5.3,298.2,326.2,299.9
849.7,1536,11.5,10.6,94,9.51,78,5.3,298.2,326.2,299.9
849.1,1541,11.5,10.6,94,9.49,78,5.3,298.2,326.1,299.9
848.6,1547,11.4,10.6,94,9.47,78,5.3,298.3,326.1,300.0
848.0,1552,11.4,10.5,94,9.45,78,5.3,298.3,326.1,300.0
847.5,1558,11.4,10.5,94,9.44,78,5.3,298.3,326.0,300.0
846.9,1563,11.3,10.4,94,9.40,78,5.3,298.3,326.0,300.0
846.4,1569,11.3,10.3,94,9.34,78,5.2,298.3,325.8,300.0
845.8,1574,11.3,10.2,93,9.28,78,5.2,298.4,325.7,300.0
845.3,1579,11.3,10.1,93,9.22,78,5.2,298.4,325.6,300.1
844.7,1585,11.3,10.0,92,9.18,78,5.2,298.5,325.5,300.1
844.2,1590,11.2,9.9,92,9.14,78,5.2,298.5,325.4,300.1
843.6,1596,11.2,9.9,91,9.11,78,5.2,298.5,325.4,300.2
843.1,1601,11.2,9.9,91,9.09,78,5.2,298.6,325.4,300.2
842.5,1607,11.2,9.9,92,9.11,77,5.2,298.6,325.4,300.2
841.9,1613,11.2,9.9,92,9.15,77,5.2,298.6,325.6,300.3
841.4,1618,11.1,10.0,93,9.19,77,5.2,298.6,325.7,300.3
840.8,1624,11.1,10.0,93,9.19,77,5.2,298.6,325.7,300.3
840.3,1629,11.0,9.9,93,9.16,77,5.2,298.7,325.6,300.3
839.7,1634,11.0,9.8,93,9.12,77,5.2,298.7,325.6,300.3
839.2,1640,10.9,9.8,93,9.12,77,5.2,298.7,325.6,300.3
838.7,1645,10.9,9.8,93,9.11,77,5.2,298.7,325.5,300.3
838.2,1650,10.9,9.8,93,9.10,77,5.2,298.7,325.5,300.3
837.7,1655,10.8,9.7,93,9.07,77,5.2,298.7,325.5,300.3
837.2,1660,10.8,9.6,92,9.00,77,5.3,298.7,325.3,300.3
836.7,1665,10.8,9.4,91,8.89,77,5.3,298.7,325.0,300.3
836.2,1670,10.7,9.2,90,8.77,77,5.3,298.8,324.7,300.4
835.7,1675,10.7,9.0,89,8.66,78,5.3,298.8,324.4,300.4
835.2,1680,10.7,8.8,88,8.56,78,5.3,298.9,324.2,300.4
834.7,1685,10.7,8.7,87,8.49,78,5.4,298.9,324.0,300.4
834.2,1690,10.7,8.6,87,8.42,78,5.4,298.9,323.8,300.5
833.7,1695,10.7,8.4,86,8.32,78,5.4,299.0,323.6,300.5
833.2,1700,10.7,8.3,85,8.25,78,5.4,299.0,323.5,300.5
832.7,1705,10.7,8.2,85,8.24,78,5.5,299.1,323.5,300.6
832.2,1710,10.7,8.3,85,8.26,78,5.5,299.1,323.6,300.6
831.7,1715,10.7,8.3,85,8.30,78,5.5,299.1,323.7,300.6
831.2,1720,10.6,8.3,86,8.31,78,5.6,299.2,323.8,300.7
830.7,1725,10.6,8.2,85,8.27,78,5.6,299.2,323.7,300.7
830.2,1730,10.6,8.1,85,8.18,77,5.7,299.2,323.5,300.7
829.7,1735,10.6,7.9,84,8.08,77,5.7,299.3,323.2,300.7
829.2,1740,10.6,7.7,83,8.00,77,5.8,299.3,323.1,300.7
828.7,1745,10.6,7.6,82,7.95,77,5.8,299.4,323.0,300.8
828.2,1750,10.6,7.5,82,7.90,77,5.8,299.4,322.9,300.8
827.7,1755,10.6,7.4,81,7.84,77,5.9,299.4,322.7,300.9
827.2,1760,10.5,7.3,80,7.76,77,6.0,299.5,322.6,300.9
826.7,1765,10.5,7.1,79,7.68,77,6.0,299.5,322.4,300.9
826.2,1770,10.5,7.0,79,7.61,77,6.1,299.6,322.2,300.9
825.7,1775,10.5,6.8,78,7.55,76,6.1,299.6,322.1,300.9
825.2,1780,10.5,6.6,77,7.44,76,6.2,299.6,321.8,301.0
824.7,1786,10.5,6.2,75,7.25,76,6.3,299.7,321.3,301.0
824.2,1791,10.5,5.8,73,7.04,76,6.3,299.8,320.8,301.0
823.7,1796,10.6,5.4,70,6.85,76,6.4,299.9,320.4,301.1
823.2,1801,10.6,5.0,68,6.64,76,6.5,300.0,319.9,301.2
822.7,1805,10.6,4.5,66,6.42,76,6.5,300.1,319.3,301.2
822.2,1810,10.7,4.0,63,6.20,76,6.6,300.1,318.8,301.3
821.8,1815,10.7,3.2,60,5.89,77,6.7,300.2,318.0,301.3
821.3,1820,10.8,2.3,56,5.52,77,6.7,300.3,317.0,301.3
820.9,1824,10.8,1.7,53,5.28,77,6.8,300.4,316.4,301.4
820.4,1829,10.8,1.6,53,5.26,77,6.9,300.5,316.4,301.4
820.0,1834,10.8,1.8,54,5.33,77,6.9,300.5,316.6,301.5
819.5,1838,10.8,2.1,55,5.42,77,7.0,300.5,317.0,301.5
819.0,1843,10.7,2.3,56,5.54,77,7.0,300.5,317.3,301.6
818.6,1848,10.7,2.6,57,5.65,77,7.0,300.5,317.6,301.6
818.1,1852,10.7,2.8,58,5.71,77,7.1,300.6,317.8,301.6
817.6,1857,10.6,2.6,58,5.66,77,7.1,300.6,317.7,301.6
817.1,1862,10.6,2.2,56,5.49,77,7.1,300.6,317.3,301.6
816.6,1867,10.6,1.6,54,5.27,77,7.1,300.7,316.7,301.7
816.1,1872,10.6,1.2,52,5.11,77,7.1,300.8,316.3,301.7
815.6,1877,10.6,0.9,51,5.01,77,7.1,300.8,316.1,301.7
815.1,1883,10.6,0.8,50,4.97,76,7.1,300.9,316.0,301.8
814.6,1888,10.6,0.8,51,5.00,76,7.1,300.9,316.1,301.8
814.1,1893,10.6,1.0,52,5.06,76,7.0,300.9,316.3,301.8
813.7,1898,10.5,1.1,52,5.08,75,7.0,300.9,316.3,301.8
813.2,1902,10.5,0.9,52,5.04,74,7.0,300.9,316.2,301.8
812.8,1907,10.5,0.7,51,4.96,74,6.9,300.9,316.0,301.8
812.3,1911,10.4,0.5,50,4.89,73,6.9,300.9,315.9,301.8
811.9,1916,10.4,0.3,49,4.82,72,6.8,301.0,315.7,301.9
811.5,1920,10.4,0.1,49,4.74,71,6.7,301.0,315.5,301.9
