PRES,HGHT,TEMP,DWPT,RELH,MIXR,DRCT,SPED,THTA,THTE,THTV
1011.6,31,25.9,21.4,76,16.03,84,6.2,298.1,344.8,300.9
1011.2,34,25.8,21.7,78,16.39,88,4.2,298.0,345.7,300.9
1010.5,40,25.5,21.7,79,16.38,89,4.0,297.8,345.5,300.7
1009.8,46,25.3,21.6,80,16.27,89,4.1,297.6,345.0,300.5
1008.8,55,25.0,21.2,79,15.87,89,4.3,297.4,343.5,300.2
1008.1,61,24.7,20.7,78,15.40,89,4.6,297.2,341.9,299.9
1007.5,66,24.4,20.3,78,15.01,89,4.9,296.9,340.5,299.6
1006.9,72,24.2,20.1,78,14.87,89,5.1,296.8,339.9,299.5
1006.2,78,24.1,19.9,77,14.69,89,5.4,296.8,339.4,299.4
1005.5,84,24.0,19.7,77,14.50,89,5.7,296.7,338.8,299.3
1004.9,89,23.9,19.6,77,14.45,89,5.9,296.7,338.5,299.2
1004.2,95,23.9,19.6,77,14.45,89,6.2,296.7,338.6,299.2
1003.5,101,23.8,19.6,77,14.43,89,6.4,296.7,338.5,299.2
1002.8,107,23.8,19.5,77,14.39,89,6.6,296.7,338.4,299.2
1002.2,113,23.7,19.5,77,14.36,89,6.8,296.7,338.3,299.2
1001.4,119,23.7,19.5,77,14.36,89,6.9,296.7,338.3,299.2
1000.7,125,23.6,19.5,78,14.37,89,7.1,296.7,338.3,299.2
1000.0,132,23.5,19.4,78,14.35,89,7.4,296.7,338.3,299.2
999.3,138,23.5,19.4,78,14.35,89,7.4,296.7,338.3,299.2
998.7,144,23.4,19.4,78,14.37,89,7.5,296.7,338.3,299.2
998.0,149,23.4,19.4,79,14.39,89,7.6,296.7,338.4,299.2
997.3,155,23.3,19.4,79,14.37,89,7.6,296.7,338.3,299.2
996.7,161,23.2,19.4,79,14.33,89,7.7,296.7,338.2,299.2
996.1,166,23.2,19.3,79,14.31,89,7.8,296.7,338.1,299.2
995.4,172,23.1,19.3,79,14.32,90,7.8,296.7,338.2,299.2
994.8,177,23.1,19.3,79,14.32,90,7.8,296.7,338.2,299.2
994.2,182,23.0,19.3,80,14.31,90,7.9,296.7,338.1,299.2
993.7,188,23.0,19.3,80,14.35,90,7.9,296.6,338.2,299.2
993.1,193,22.9,19.3,80,14.37,90,7.9,296.6,338.3,299.2
992.5,197,22.9,19.3,80,14.37,91,7.9,296.6,338.3,299.2
992.0,202,22.8,19.3,81,14.38,91,8.0,296.7,338.3,299.2
991.5,207,22.8,19.4,81,14.42,91,8.0,296.7,338.5,299.2
991.0,211,22.7,19.4,81,14.45,91,8.0,296.7,338.5,299.2
990.4,216,22.7,19.4,82,14.49,92,8.0,296.7,338.7,299.2
989.9,221,22.7,19.4,82,14.50,92,8.0,296.7,338.7,299.2
989.3,226,22.6,19.4,82,14.51,92,8.0,296.7,338.7,299.2
988.7,231,22.6,19.4,83,14.52,92,8.0,296.7,338.8,299.2
988.1,236,22.5,19.4,83,14.50,93,8.0,296.7,338.7,299.2
987.6,241,22.4,19.4,83,14.46,93,8.0,296.6,338.6,299.2
987.0,246,22.4,19.3,83,14.43,93,8.0,296.6,338.5,299.2
986.4,251,22.4,19.3,83,14.41,93,8.0,296.7,338.4,299.2
985.9,256,22.3,19.3,83,14.41,94,8.0,296.7,338.4,299.2
985.4,260,22.3,19.3,83,14.42,94,7.9,296.7,338.5,299.2
984.9,265,22.2,19.3,83,14.45,94,7.9,296.7,338.5,299.2
984.4,270,22.2,19.3,84,14.45,94,7.9,296.7,338.5,299.2
983.8,274,22.1,19.3,84,14.46,94,7.9,296.7,338.6,299.2
983.3,279,22.1,19.3,84,14.47,94,7.9,296.7,338.6,299.2
982.8,283,22.0,19.3,84,14.47,94,7.9,296.6,338.6,299.2
982.3,288,22.0,19.2,84,14.43,94,7.8,296.6,338.5,299.2
981.8,292,22.0,19.2,84,14.43,94,7.8,296.7,338.5,299.2
981.3,297,21.9,19.3,85,14.48,95,7.8,296.7,338.6,299.2
980.8,301,21.9,19.3,85,14.52,95,7.8,296.7,338.7,299.2
980.3,306,21.8,19.3,86,14.52,94,7.8,296.7,338.7,299.2
979.7,311,21.8,19.3,86,14.53,94,7.8,296.7,338.8,299.2
979.1,316,21.7,19.3,86,14.54,94,7.7,296.7,338.8,299.2
978.5,321,21.7,19.3,86,14.55,94,7.7,296.7,338.9,299.3
977.9,327,21.6,19.3,87,14.57,94,7.7,296.7,338.9,299.3
977.3,332,21.6,19.3,87,14.57,94,7.7,296.7,338.9,299.2
976.6,338,21.5,19.3,87,14.55,94,7.7,296.7,338.8,299.2
976.0,344,21.4,19.2,87,14.52,94,7.7,296.6,338.7,299.2
975.4,350,21.4,19.2,87,14.49,94,7.8,296.6,338.6,299.2
974.7,355,21.3,19.1,87,14.46,94,7.8,296.7,338.6,299.2
974.1,360,21.3,19.1,87,14.46,94,7.8,296.7,338.5,299.2
973.6,366,21.2,19.1,88,14.45,94,7.8,296.6,338.5,299.2
973.0,371,21.2,19.1,88,14.46,94,7.8,296.7,338.6,299.2
972.4,376,21.1,19.1,88,14.48,94,7.9,296.7,338.6,299.2
971.9,381,21.1,19.1,89,14.50,94,7.9,296.7,338.7,299.2
971.3,386,21.1,19.1,89,14.51,94,7.9,296.7,338.7,299.2
970.8,391,21.0,19.1,89,14.52,94,7.9,296.7,338.8,299.2
970.2,396,21.0,19.1,89,14.52,94,7.9,296.7,338.8,299.2
969.6,401,20.9,19.1,90,14.52,94,8.0,296.7,338.8,299.2
969.1,406,20.9,19.1,90,14.53,94,8.0,296.7,338.8,299.2
968.5,411,20.8,19.1,90,14.52,94,8.0,296.7,338.7,299.2
967.9,416,20.8,19.1,90,14.49,95,8.0,296.7,338.7,299.2
967.4,421,20.7,19.1,90,14.49,95,8.0,296.6,338.6,299.2
966.8,426,20.7,19.1,91,14.53,95,8.0,296.6,338.8,299.2
966.3,431,20.6,19.1,91,14.54,95,8.0,296.7,338.8,299.2
965.7,436,20.6,19.1,91,14.53,95,8.0,296.7,338.8,299.2
965.2,441,20.5,19.0,91,14.51,95,8.0,296.7,338.7,299.2
964.7,445,20.5,19.0,91,14.51,96,8.0,296.7,338.7,299.2
964.2,450,20.4,19.0,92,14.52,96,8.0,296.7,338.7,299.2
963.6,455,20.4,19.0,92,14.52,96,7.9,296.7,338.8,299.2
963.1,460,20.4,19.0,92,14.48,96,7.9,296.7,338.6,299.2
962.5,465,20.3,18.9,92,14.45,96,7.8,296.7,338.6,299.3
962.0,470,20.3,18.9,92,14.43,96,7.8,296.7,338.5,299.3
961.4,475,20.2,18.9,92,14.43,96,7.7,296.7,338.5,299.3
960.8,480,20.2,18.9,92,14.46,96,7.7,296.7,338.6,299.3
960.2,486,20.1,19.0,93,14.53,96,7.6,296.7,338.8,299.3
959.6,491,20.1,19.0,94,14.59,96,7.6,296.7,339.0,299.3
959.0,496,20.0,19.0,94,14.59,96,7.5,296.7,339.0,299.3
958.4,502,19.9,19.0,94,14.56,96,7.5,296.7,338.8,299.2
957.8,507,19.9,18.9,94,14.46,96,7.4,296.7,338.6,299.2
957.3,512,19.8,18.7,93,14.33,96,7.4,296.7,338.2,299.2
956.7,517,19.8,18.5,92,14.18,96,7.4,296.7,337.8,299.2
956.2,522,19.8,18.4,91,14.04,95,7.3,296.7,337.5,299.2
955.7,526,19.8,18.3,91,13.98,95,7.3,296.8,337.3,299.3
955.2,531,19.8,18.3,91,13.98,95,7.3,296.8,337.3,299.3
954.7,535,19.8,18.3,91,13.97,95,7.3,296.8,337.3,299.3
954.2,540,19.7,18.2,91,13.93,94,7.2,296.8,337.2,299.3
953.7,545,19.7,18.2,91,13.92,94,7.2,296.8,337.2,299.3
953.1,549,19.6,18.2,92,13.94,94,7.2,296.8,337.3,299.3
952.6,554,19.6,18.3,92,14.00,93,7.3,296.8,337.4,299.3
952.1,559,19.5,18.3,93,14.05,93,7.3,296.8,337.6,299.3
951.5,564,19.5,18.3,93,14.08,93,7.3,296.8,337.6,299.3
950.9,570,19.4,18.3,93,14.08,92,7.3,296.8,337.6,299.3
950.3,575,19.4,18.3,94,14.06,92,7.3,296.8,337.6,299.3
949.7,580,19.3,18.3,94,14.03,92,7.4,296.8,337.5,299.3
949.2,585,19.3,18.2,93,13.96,91,7.4,296.8,337.3,299.3
948.6,590,19.2,18.1,93,13.87,91,7.4,296.8,337.0,299.3
948.1,595,19.2,18.0,93,13.83,91,7.4,296.8,337.0,299.3
947.6,600,19.2,18.0,93,13.84,91,7.5,296.8,337.0,299.3
947.0,605,19.1,18.0,93,13.85,91,7.5,296.9,337.0,299.3
946.4,610,19.1,18.0,93,13.82,91,7.5,296.9,337.0,299.3
945.9,616,19.1,17.9,93,13.78,91,7.5,296.9,336.9,299.3
945.3,621,19.0,17.8,93,13.73,90,7.5,296.9,336.7,299.3
944.7,627,18.9,17.8,93,13.70,90,7.5,296.9,336.6,299.3
944.1,632,18.9,17.8,93,13.68,91,7.5,296.9,336.6,299.3
943.5,637,18.8,17.8,94,13.70,91,7.5,296.9,336.6,299.3
942.9,643,18.8,17.8,94,13.74,91,7.5,296.9,336.7,299.3
942.3,648,18.7,17.9,95,13.78,91,7.5,296.9,336.9,299.3
941.7,654,18.7,17.9,95,13.83,91,7.4,296.9,337.0,299.3
941.1,659,18.6,17.9,96,13.86,91,7.4,296.9,337.1,299.3
940.5,665,18.5,17.9,96,13.84,92,7.4,296.8,337.0,299.3
939.9,670,18.5,17.8,96,13.80,92,7.3,296.8,336.9,299.3
939.2,676,18.4,17.8,96,13.80,92,7.3,296.8,336.9,299.3
938.7,681,18.4,17.8,97,13.80,92,7.3,296.8,336.9,299.3
938.1,687,18.3,17.8,97,13.79,93,7.2,296.8,336.9,299.3
937.5,692,18.3,17.8,97,13.80,93,7.2,296.9,336.9,299.3
936.9,697,18.2,17.8,97,13.83,93,7.1,296.9,337.0,299.3
936.4,702,18.2,17.8,98,13.85,94,7.1,296.9,337.0,299.3
935.8,707,18.1,17.8,98,13.86,94,7.0,296.9,337.1,299.3
935.3,712,18.1,17.8,98,13.87,94,7.0,296.9,337.1,299.3
934.7,717,18.0,17.9,99,13.90,94,6.9,296.9,337.2,299.3
934.2,722,18.0,17.9,99,13.92,94,6.9,296.9,337.3,299.3
933.7,727,17.9,17.9,100,13.94,94,6.8,296.9,337.3,299.3
933.1,732,17.9,17.9,100,13.92,94,6.8,296.9,337.2,299.3
932.6,737,17.8,17.8,100,13.90,94,6.7,296.8,337.2,299.3
932.0,743,17.8,17.8,100,13.86,94,6.7,296.9,337.1,299.3
931.5,748,17.7,17.7,100,13.83,94,6.6,296.8,337.0,299.3
930.9,753,17.7,17.7,100,13.81,94,6.6,296.9,336.9,299.3
930.3,758,17.7,17.7,100,13.79,94,6.5,296.9,336.9,299.3
929.8,763,17.6,17.6,100,13.72,94,6.5,296.9,336.7,299.3
929.2,769,17.6,17.5,99,13.65,94,6.4,296.9,336.5,299.3
928.6,774,17.5,17.4,99,13.61,93,6.3,296.9,336.4,299.3
928.0,780,17.5,17.4,99,13.58,93,6.3,296.9,336.3,299.3
927.4,785,17.4,17.3,99,13.56,93,6.2,296.9,336.3,299.3
926.8,791,17.4,17.3,100,13.56,92,6.2,296.9,336.3,299.3
926.2,797,17.4,17.3,100,13.57,92,6.1,296.9,336.3,299.3
925.5,802,17.3,17.3,100,13.51,92,6.0,296.9,336.1,299.3
925.0,807,17.3,17.1,99,13.42,92,6.0,296.9,335.9,299.3
924.9,808,17.3,17.1,99,13.40,91,6.0,297.0,335.9,299.3
924.3,814,17.2,17.0,99,13.33,91,5.9,297.0,335.7,299.3
923.7,819,17.2,17.0,99,13.33,90,5.8,297.0,335.6,299.3
923.1,825,17.1,17.0,100,13.36,90,5.8,297.0,335.8,299.4
922.5,831,17.1,17.1,100,13.38,90,5.7,297.0,335.8,299.4
921.9,836,17.0,17.0,100,13.36,89,5.7,297.0,335.8,299.4
921.3,842,17.0,17.0,100,13.34,89,5.6,297.0,335.7,299.4
920.7,848,16.9,16.9,100,13.31,88,5.5,297.0,335.7,299.4
920.1,853,16.9,16.9,100,13.29,88,5.5,297.0,335.7,299.4
919.5,859,16.9,16.9,100,13.28,87,5.4,297.1,335.7,299.4
918.9,864,16.9,16.9,100,13.28,87,5.4,297.1,335.7,299.5
918.3,870,16.8,16.8,100,13.25,86,5.3,297.1,335.6,299.5
917.7,875,16.8,16.8,100,13.23,86,5.3,297.2,335.6,299.5
917.1,881,16.8,16.8,100,13.22,86,5.2,297.2,335.6,299.5
916.5,886,16.7,16.7,100,13.20,85,5.2,297.2,335.6,299.6
915.9,892,16.7,16.7,100,13.19,85,5.2,297.2,335.6,299.6
915.3,898,16.7,16.7,100,13.17,84,5.1,297.3,335.6,299.6
914.6,904,16.7,16.7,100,13.15,84,5.1,297.3,335.5,299.6
914.0,909,16.6,16.6,100,13.14,83,5.0,297.3,335.5,299.7
913.4,915,16.6,16.6,100,13.14,83,5.0,297.4,335.6,299.7
912.8,921,16.6,16.6,100,13.14,83,4.9,297.4,335.7,299.8
912.1,927,16.6,16.6,100,13.11,83,4.9,297.4,335.6,299.8
911.5,933,16.5,16.5,100,13.08,83,4.8,297.4,335.5,299.8
910.8,939,16.5,16.5,100,13.06,82,4.8,297.5,335.5,299.8
910.2,945,16.5,16.5,100,13.04,82,4.7,297.5,335.5,299.8
909.6,951,16.4,16.4,100,13.04,82,4.7,297.5,335.5,299.9
908.9,957,16.4,16.4,100,13.04,83,4.6,297.6,335.6,299.9
908.3,963,16.4,16.4,100,13.02,83,4.5,297.6,335.5,299.9
907.8,968,16.4,16.4,100,13.01,83,4.4,297.6,335.5,300.0
907.2,973,16.4,16.4,100,13.01,84,4.4,297.7,335.6,300.0
906.7,978,16.4,16.4,100,13.01,84,4.3,297.7,335.6,300.0
906.2,983,16.3,16.3,100,13.01,85,4.2,297.8,335.7,300.1
905.7,988,16.3,16.3,100,12.99,86,4.1,297.8,335.6,300.1
905.2,992,16.3,16.3,100,12.98,86,4.1,297.8,335.6,300.1
904.7,997,16.3,16.3,100,12.96,87,4.0,297.8,335.6,300.1
904.2,1002,16.2,16.2,100,12.92,88,3.9,297.8,335.5,300.1
903.7,1006,16.1,16.1,100,12.82,90,3.8,297.7,335.1,300.0
903.2,1011,15.8,15.8,100,12.64,91,3.8,297.5,334.3,299.8
902.7,1016,15.6,15.6,100,12.44,92,3.7,297.3,333.5,299.6
902.3,1020,15.5,15.4,99,12.28,94,3.7,297.2,333.0,299.4
901.8,1025,15.4,15.3,99,12.18,95,3.6,297.2,332.7,299.4
901.3,1029,15.4,15.3,99,12.18,96,3.6,297.3,332.7,299.4
900.8,1034,15.5,15.4,99,12.29,98,3.5,297.4,333.1,299.6
900.3,1038,15.5,15.4,99,12.29,99,3.5,297.5,333.3,299.6
899.8,1043,15.4,15.0,97,11.97,100,3.5,297.4,332.3,299.6
899.4,1047,15.3,14.5,95,11.65,102,3.4,297.3,331.3,299.4
898.9,1052,15.2,14.3,94,11.50,103,3.4,297.3,330.8,299.3
898.4,1056,15.2,14.0,93,11.28,104,3.4,297.3,330.2,299.3
898.0,1061,15.1,13.8,92,11.09,105,3.4,297.3,329.6,299.2
897.5,1065,15.1,13.7,91,11.02,106,3.4,297.3,329.4,299.2
897.0,1070,15.1,13.6,91,11.00,107,3.4,297.3,329.4,299.3
896.6,1074,15.0,13.6,91,11.01,108,3.4,297.3,329.4,299.3
896.1,1078,15.0,13.6,91,10.99,109,3.5,297.4,329.4,299.3
895.6,1083,15.0,13.4,90,10.88,109,3.5,297.4,329.2,299.3
895.1,1088,15.0,13.2,89,10.73,110,3.5,297.4,328.8,299.3
894.6,1092,15.0,13.0,87,10.55,111,3.5,297.5,328.3,299.4
894.1,1097,15.1,12.7,86,10.40,112,3.5,297.6,328.0,299.4
893.6,1102,15.1,12.6,85,10.34,112,3.5,297.7,327.9,299.5
893.1,1107,15.1,12.6,85,10.35,113,3.5,297.7,328.0,299.6
892.5,1112,15.2,12.7,85,10.38,114,3.5,297.8,328.2,299.7
892.0,1118,15.2,12.7,85,10.38,114,3.6,297.9,328.3,299.8
891.4,1123,15.2,12.6,85,10.37,115,3.6,298.0,328.4,299.9
890.8,1129,15.2,12.6,84,10.34,116,3.6,298.0,328.4,299.9
890.1,1135,15.2,12.5,84,10.30,116,3.6,298.1,328.3,300.0
889.5,1141,15.2,12.5,84,10.26,117,3.6,298.1,328.2,300.0
888.9,1147,15.2,12.4,84,10.22,118,3.6,298.2,328.2,300.0
888.3,1153,15.1,12.4,84,10.21,119,3.6,298.2,328.1,300.0
887.7,1159,15.1,12.4,84,10.22,119,3.6,298.2,328.2,300.1
887.1,1164,15.1,12.4,84,10.26,120,3.6,298.3,328.4,300.1
886.5,1170,15.0,12.4,85,10.29,120,3.6,298.3,328.5,300.1
885.9,1175,15.0,12.4,85,10.29,121,3.6,298.3,328.5,300.1
885.4,1181,15.0,12.4,85,10.27,121,3.6,298.3,328.5,300.1
884.8,1186,14.9,12.3,84,10.24,122,3.6,298.3,328.4,300.2
884.3,1191,14.9,12.2,84,10.18,122,3.6,298.4,328.3,300.2
883.8,1196,14.9,12.1,83,10.09,122,3.6,298.4,328.1,300.2
883.3,1201,14.9,12.0,82,10.00,122,3.6,298.5,327.9,300.3
882.8,1205,14.9,11.9,82,9.93,122,3.6,298.5,327.7,300.3
882.3,1210,14.9,11.8,81,9.89,121,3.6,298.6,327.6,300.3
881.8,1215,14.9,11.7,81,9.81,121,3.6,298.6,327.5,300.4
881.3,1219,14.9,11.5,80,9.71,121,3.6,298.6,327.2,300.4
880.8,1224,14.9,11.3,79,9.61,120,3.6,298.7,327.0,300.4
880.3,1229,14.9,11.2,79,9.54,119,3.6,298.7,326.8,300.4
879.9,1234,14.8,11.2,79,9.51,118,3.6,298.7,326.7,300.4
879.4,1238,14.8,11.1,79,9.50,117,3.6,298.7,326.7,300.4
878.9,1243,14.8,11.1,79,9.49,116,3.7,298.8,326.7,300.5
878.4,1248,14.8,11.1,79,9.48,115,3.7,298.8,326.7,300.5
877.9,1253,14.8,11.0,78,9.45,114,3.7,298.8,326.7,300.5
877.4,1257,14.7,11.0,78,9.44,113,3.8,298.8,326.7,300.5
876.9,1262,14.7,11.0,78,9.45,112,3.8,298.9,326.7,300.6
876.4,1267,14.7,11.0,79,9.46,111,3.9,298.9,326.8,300.6
875.8,1272,14.6,11.0,79,9.47,109,4.0,298.9,326.8,300.6
875.3,1277,14.6,11.0,79,9.48,108,4.0,298.9,326.9,300.6
874.8,1283,14.6,11.0,79,9.48,107,4.1,298.9,326.9,300.6
874.3,1288,14.5,11.0,79,9.47,107,4.2,298.9,326.9,300.6
873.7,1293,14.5,11.0,80,9.47,106,4.3,298.9,326.9,300.6
873.2,1298,14.4,11.0,80,9.47,105,4.3,298.9,326.9,300.6
872.7,1303,14.4,11.0,80,9.49,104,4.4,298.9,326.9,300.7
872.2,1307,14.4,11.0,80,9.51,104,4.5,299.0,327.0,300.7
871.7,1312,14.3,11.1,81,9.53,103,4.6,299.0,327.1,300.7
871.3,1317,14.3,11.1,81,9.55,103,4.7,299.0,327.1,300.7
870.8,1321,14.3,11.1,81,9.56,102,4.8,299.0,327.2,300.7
870.3,1326,14.3,11.1,81,9.58,102,4.9,299.0,327.3,300.8
869.8,1331,14.2,11.1,82,9.60,102,5.0,299.1,327.4,300.8
869.3,1336,14.2,11.1,82,9.60,102,5.2,299.1,327.4,300.8
868.8,1341,14.2,11.1,82,9.59,101,5.3,299.1,327.4,300.9
868.2,1346,14.2,11.0,81,9.57,101,5.4,299.2,327.4,300.9
867.7,1351,14.2,11.0,81,9.52,101,5.5,299.2,327.3,300.9
867.2,1356,14.2,10.9,81,9.48,101,5.6,299.3,327.3,301.0
866.7,1361,14.2,10.9,81,9.48,101,5.7,299.3,327.3,301.0
866.2,1366,14.1,10.9,81,9.49,101,5.8,299.3,327.3,301.0
865.7,1371,14.1,10.9,81,9.49,101,6.0,299.3,327.3,301.0
865.2,1376,14.0,10.9,81,9.48,101,6.1,299.3,327.3,301.0
864.7,1381,14.0,10.8,81,9.45,101,6.2,299.3,327.2,301.0
864.2,1386,14.0,10.8,81,9.44,101,6.3,299.3,327.2,301.0
863.7,1391,13.9,10.7,81,9.41,101,6.4,299.4,327.2,301.1
863.2,1396,13.9,10.7,81,9.39,101,6.5,299.4,327.2,301.1
862.6,1401,13.9,10.6,80,9.37,101,6.6,299.5,327.2,301.2
862.1,1406,13.9,10.6,81,9.36,101,6.7,299.5,327.2,301.2
861.6,1411,13.9,10.6,81,9.35,101,6.8,299.5,327.1,301.2
861.0,1417,13.8,10.6,81,9.34,101,6.9,299.5,327.1,301.2
860.5,1422,13.8,10.5,81,9.32,101,7.0,299.5,327.1,301.2
860.0,1427,13.7,10.4,81,9.27,101,7.1,299.5,326.9,301.2
859.4,1432,13.7,10.2,79,9.16,101,7.2,299.6,326.7,301.2
858.9,1437,13.8,10.0,78,8.99,101,7.3,299.6,326.3,301.3
858.4,1442,13.8,9.7,76,8.83,101,7.4,299.8,325.9,301.3
857.9,1447,13.9,9.5,75,8.74,100,7.5,299.8,325.8,301.4
857.4,1452,13.9,9.4,75,8.69,100,7.5,299.9,325.7,301.5
857.0,1457,13.9,9.3,74,8.64,100,7.6,300.0,325.6,301.5
856.5,1461,13.9,9.3,74,8.60,100,7.6,300.0,325.6,301.6
856.0,1466,13.9,9.2,74,8.58,100,7.7,300.0,325.6,301.6
855.5,1471,13.9,9.2,73,8.55,100,7.7,300.1,325.5,301.6
855.1,1475,13.9,9.1,73,8.50,100,7.8,300.1,325.4,301.7
854.6,1480,13.9,8.9,72,8.43,100,7.8,300.2,325.3,301.7
854.1,1485,13.9,8.9,72,8.39,99,7.8,300.3,325.2,301.8
853.7,1489,13.9,8.8,72,8.38,99,7.9,300.3,325.2,301.8
853.2,1493,13.9,8.8,72,8.37,99,7.9,300.3,325.3,301.8
852.8,1498,13.8,8.8,72,8.36,99,7.9,300.3,325.2,301.8
852.4,1502,13.8,8.8,72,8.36,98,7.9,300.3,325.2,301.9
851.9,1507,13.8,8.8,72,8.36,98,7.9,300.4,325.3,301.9
851.4,1511,13.7,8.8,72,8.39,98,7.9,300.4,325.4,301.9
851.0,1516,13.7,8.9,73,8.43,98,7.9,300.4,325.5,301.9
850.5,1521,13.6,8.9,73,8.47,98,7.9,300.4,325.6,301.9
850.0,1525,13.6,9.0,74,8.50,98,7.9,300.4,325.7,301.9
849.9,1526,13.6,9.0,74,8.51,97,7.9,300.4,325.7,301.9
849.4,1531,13.6,9.1,74,8.55,97,7.9,300.4,325.8,301.9
848.9,1536,13.5,9.1,75,8.60,97,8.0,300.4,326.0,302.0
848.4,1541,13.5,9.3,76,8.70,97,8.0,300.4,326.3,302.0
847.9,1547,13.5,9.4,76,8.79,96,8.0,300.5,326.6,302.1
847.4,1552,13.5,9.5,77,8.86,96,8.0,300.6,326.9,302.2
846.9,1557,13.6,9.7,77,8.93,96,8.0,300.6,327.2,302.3
846.4,1561,13.6,9.8,78,9.00,96,8.0,300.7,327.5,302.3
845.9,1566,13.6,9.8,78,9.05,95,8.0,300.8,327.7,302.4
845.4,1571,13.6,9.9,79,9.10,95,8.1,300.8,327.9,302.5
844.9,1576,13.6,10.0,79,9.14,95,8.1,300.8,328.1,302.5
844.4,1581,13.5,10.0,79,9.14,94,8.1,300.9,328.1,302.5
843.9,1586,13.5,9.9,78,9.08,94,8.2,300.9,328.0,302.6
843.4,1591,13.6,9.7,77,8.98,94,8.2,301.0,327.8,302.6
842.9,1596,13.6,9.4,76,8.85,94,8.2,301.1,327.5,302.7
842.5,1600,13.6,9.2,75,8.71,93,8.3,301.2,327.1,302.7
842.0,1605,13.7,9.0,74,8.61,93,8.3,301.3,327.0,302.8
841.6,1609,13.7,9.0,73,8.58,93,8.4,301.3,327.0,302.9
841.2,1614,13.7,9.0,73,8.59,92,8.4,301.4,327.1,302.9
840.7,1618,13.7,9.0,73,8.61,92,8.5,301.4,327.1,303.0
840.3,1622,13.7,9.0,73,8.62,92,8.5,301.4,327.2,303.0
839.9,1627,13.6,9.0,74,8.62,91,8.6,301.4,327.2,303.0
839.4,1631,13.6,9.0,74,8.63,91,8.6,301.5,327.2,303.0
839.0,1636,13.6,9.0,74,8.62,91,8.7,301.5,327.2,303.0
838.5,1640,13.6,9.0,74,8.61,90,8.7,301.5,327.2,303.1
838.0,1645,13.5,8.9,74,8.60,90,8.8,301.5,327.2,303.1
837.5,1650,13.5,8.9,74,8.60,90,8.8,301.6,327.3,303.1
837.0,1656,13.5,8.9,74,8.61,89,8.9,301.6,327.3,303.1
836.5,1661,13.5,8.9,74,8.61,89,8.9,301.6,327.4,303.2
835.9,1666,13.4,8.9,74,8.60,89,8.9,301.6,327.3,303.2
835.4,1672,13.4,8.8,74,8.57,89,9.0,301.6,327.3,303.2
834.9,1677,13.4,8.8,74,8.55,88,9.0,301.7,327.3,303.2
834.4,1682,13.3,8.8,74,8.55,88,9.0,301.7,327.3,303.2
833.9,1686,13.3,8.8,74,8.54,88,9.0,301.7,327.3,303.3
833.5,1691,13.3,8.8,74,8.54,88,9.0,301.7,327.3,303.3
833.0,1696,13.2,8.8,74,8.55,87,9.0,301.7,327.3,303.3
832.6,1700,13.2,8.8,74,8.54,87,9.0,301.7,327.3,303.3
832.1,1705,13.2,8.7,74,8.53,87,9.0,301.7,327.3,303.3
831.7,1709,13.1,8.7,74,8.51,87,9.0,301.7,327.2,303.3
831.3,1713,13.1,8.7,75,8.52,86,9.0,301.8,327.3,303.3
830.8,1718,13.1,8.7,75,8.53,86,9.0,301.8,327.3,303.3
830.4,1722,13.0,8.7,75,8.54,86,9.0,301.8,327.4,303.3
830.0,1727,13.0,8.7,75,8.56,85,9.0,301.8,327.4,303.3
829.5,1731,12.9,8.8,76,8.59,85,9.0,301.8,327.5,303.3
829.0,1736,12.9,8.8,76,8.58,85,9.0,301.8,327.5,303.3
828.6,1740,12.8,8.7,76,8.56,85,9.0,301.8,327.4,303.3
828.2,1745,12.8,8.7,76,8.53,84,9.0,301.8,327.3,303.3
827.8,1749,12.8,8.6,76,8.52,84,9.0,301.8,327.3,303.4
827.4,1752,12.8,8.7,76,8.54,84,8.9,301.8,327.4,303.4
827.1,1756,12.7,8.7,76,8.57,84,8.9,301.8,327.5,303.4
826.7,1759,12.7,8.7,77,8.59,83,8.9,301.8,327.6,303.4
826.4,1763,12.7,8.7,77,8.60,83,8.9,301.8,327.6,303.4
826.0,1767,12.7,8.8,77,8.62,83,8.9,301.9,327.7,303.4
825.7,1771,12.6,8.8,78,8.67,82,8.9,301.9,327.8,303.4
825.2,1775,12.6,8.9,78,8.73,82,8.9,301.9,328.0,303.5
824.8,1779,12.6,9.0,79,8.79,82,8.8,301.9,328.2,303.5
824.4,1784,12.5,9.1,80,8.83,82,8.8,301.9,328.3,303.5
823.9,1788,12.5,9.1,80,8.84,82,8.8,301.9,328.3,303.5
823.4,1793,12.4,9.0,80,8.81,82,8.8,301.9,328.3,303.5
822.9,1798,12.4,9.0,79,8.77,81,8.7,301.9,328.2,303.5
822.4,1804,12.4,8.9,79,8.74,81,8.7,301.9,328.1,303.5
821.8,1809,12.4,8.9,79,8.72,81,8.7,302.0,328.1,303.6
821.3,1815,12.4,8.8,79,8.71,81,8.6,302.1,328.2,303.7
820.7,1821,12.4,8.8,79,8.69,81,8.6,302.2,328.2,303.7
820.2,1826,12.4,8.7,78,8.66,81,8.5,302.2,328.2,303.8
819.6,1832,12.4,8.7,78,8.65,81,8.5,302.2,328.2,303.8
819.1,1838,12.3,8.7,79,8.67,81,8.4,302.2,328.2,303.8
818.6,1843,12.3,8.8,79,8.71,81,8.4,302.3,328.4,303.9
818.1,1848,12.3,8.8,79,8.73,81,8.3,302.3,328.5,303.9
817.6,1853,12.3,8.8,79,8.73,81,8.2,302.3,328.5,303.9
817.1,1858,12.3,8.8,79,8.71,81,8.2,302.4,328.5,304.0
816.7,1862,12.3,8.7,79,8.71,81,8.1,302.4,328.5,304.0
816.2,1867,12.2,8.8,80,8.73,81,8.1,302.4,328.6,304.0
815.7,1872,12.2,8.8,80,8.77,81,8.0,302.4,328.7,304.0
