PRES,HGHT,TEMP,DWPT,RELH,MIXR,DRCT,SPED,THTA,THTE,THTV
1012.5,31,21.3,20.8,97,15.47,274,1.6,293.4,337.6,296.1
1012.4,31,21.8,20.9,94,15.54,296,1.0,293.9,338.4,296.7
1011.9,36,21.6,20.8,95,15.46,305,1.0,293.7,338.0,296.5
1011.2,41,21.5,20.6,95,15.32,307,1.0,293.7,337.5,296.4
1010.7,46,21.4,20.5,94,15.16,307,1.0,293.7,337.0,296.3
1010.2,51,21.4,20.3,93,14.99,306,1.1,293.7,336.6,296.3
1009.5,56,21.4,20.1,92,14.85,306,1.2,293.8,336.2,296.4
1008.9,62,21.4,20.0,91,14.71,305,1.3,293.8,335.9,296.4
1008.3,66,21.5,19.8,90,14.61,305,1.3,294.0,335.8,296.5
1007.8,71,21.6,19.8,89,14.54,305,1.4,294.1,335.8,296.6
1007.2,76,21.7,19.7,89,14.50,305,1.5,294.2,335.8,296.8
1006.7,80,21.7,19.7,88,14.47,305,1.5,294.3,335.8,296.8
1006.2,85,21.7,19.7,88,14.46,304,1.6,294.3,335.8,296.8
1005.8,89,21.7,19.6,88,14.46,304,1.7,294.3,335.8,296.9
1005.3,93,21.6,19.7,89,14.48,304,1.8,294.3,335.9,296.9
1004.9,96,21.6,19.7,89,14.51,304,1.9,294.4,336.0,296.9
1004.4,100,21.6,19.7,89,14.55,304,2.0,294.4,336.2,297.0
1004.0,104,21.7,19.7,89,14.58,304,2.1,294.5,336.3,297.0
1003.5,108,21.7,19.7,89,14.57,304,2.2,294.5,336.3,297.1
1003.1,112,21.6,19.7,89,14.56,304,2.3,294.5,336.3,297.1
1002.6,116,21.6,19.7,89,14.56,305,2.4,294.5,336.3,297.1
1002.2,119,21.6,19.7,89,14.55,305,2.5,294.5,336.3,297.1
1001.8,123,21.5,19.7,89,14.54,305,2.6,294.5,336.3,297.1
1001.4,126,21.5,19.7,89,14.53,306,2.7,294.5,336.3,297.1
1001.0,130,21.5,19.7,89,14.55,307,2.8,294.5,336.3,297.1
1000.6,133,21.5,19.7,90,14.56,307,2.9,294.5,336.3,297.1
1000.3,136,21.4,19.6,89,14.54,308,3.0,294.6,336.3,297.1
1000.0,139,21.4,19.6,89,14.54,308,3.0,294.6,336.3,297.1
999.6,142,21.4,19.6,89,14.54,310,3.1,294.6,336.4,297.2
999.3,145,21.4,19.6,89,14.53,311,3.2,294.6,336.4,297.2
999.0,148,21.4,19.6,89,14.50,313,3.3,294.6,336.3,297.2
998.6,150,21.4,19.5,89,14.46,314,3.3,294.7,336.2,297.2
998.3,153,21.4,19.5,89,14.42,315,3.3,294.7,336.1,297.2
998.0,156,21.4,19.5,89,14.42,316,3.4,294.7,336.2,297.3
997.6,159,21.4,19.5,89,14.44,318,3.4,294.8,336.3,297.3
997.3,162,21.4,19.5,89,14.46,319,3.4,294.8,336.3,297.3
996.9,165,21.4,19.5,89,14.46,321,3.4,294.8,336.4,297.4
996.6,169,21.4,19.5,89,14.46,323,3.4,294.9,336.4,297.4
996.2,172,21.4,19.5,89,14.47,324,3.4,294.9,336.5,297.5
995.8,175,21.5,19.5,89,14.51,326,3.4,295.0,336.7,297.5
995.4,179,21.5,19.6,89,14.56,328,3.3,295.0,336.9,297.6
995.0,182,21.4,19.6,89,14.62,329,3.3,295.0,337.1,297.6
994.6,186,21.4,19.7,90,14.64,331,3.3,295.0,337.1,297.6
994.2,189,21.4,19.6,90,14.62,333,3.2,295.0,337.1,297.6
993.8,193,21.3,19.6,90,14.60,334,3.2,295.0,337.0,297.6
993.4,196,21.3,19.6,90,14.58,336,3.2,295.0,337.0,297.6
993.0,200,21.3,19.6,90,14.57,337,3.1,295.0,336.9,297.6
992.6,203,21.2,19.5,90,14.55,339,3.1,295.0,336.9,297.6
992.2,207,21.2,19.5,90,14.53,340,3.0,295.0,336.8,297.6
991.8,210,21.2,19.5,90,14.52,342,3.0,295.0,336.8,297.6
991.4,214,21.2,19.5,90,14.53,343,3.0,295.0,336.8,297.6
991.0,217,21.1,19.5,90,14.54,344,2.9,295.0,336.9,297.6
990.6,221,21.1,19.5,91,14.56,345,2.9,295.0,336.9,297.6
990.1,225,21.1,19.5,91,14.56,345,2.8,295.0,336.9,297.6
989.7,229,21.0,19.5,91,14.57,346,2.8,295.1,337.0,297.6
989.3,232,21.0,19.5,91,14.60,346,2.8,295.1,337.1,297.6
988.9,236,21.0,19.5,91,14.60,347,2.7,295.1,337.1,297.7
988.5,240,21.0,19.5,91,14.60,347,2.7,295.1,337.1,297.7
988.0,243,21.0,19.5,91,14.60,347,2.6,295.1,337.1,297.7
987.6,247,20.9,19.5,91,14.59,348,2.6,295.1,337.1,297.7
987.2,250,20.9,19.5,92,14.58,348,2.6,295.1,337.1,297.7
986.8,254,20.9,19.4,92,14.56,348,2.5,295.1,337.0,297.7
986.4,258,20.8,19.4,92,14.54,348,2.5,295.1,337.0,297.7
986.0,261,20.8,19.4,91,14.52,348,2.4,295.2,336.9,297.7
985.6,265,20.8,19.4,91,14.50,348,2.3,295.2,336.9,297.7
985.2,268,20.8,19.4,91,14.51,347,2.3,295.2,337.0,297.8
984.8,271,20.8,19.4,91,14.52,347,2.2,295.3,337.1,297.8
984.4,275,20.8,19.4,91,14.53,347,2.1,295.3,337.1,297.9
984.1,278,20.8,19.4,92,14.54,347,2.1,295.3,337.2,297.9
983.7,282,20.8,19.4,92,14.57,348,2.0,295.3,337.3,297.9
983.2,285,20.8,19.4,92,14.58,348,1.9,295.3,337.3,297.9
982.8,289,20.7,19.4,92,14.54,348,1.8,295.4,337.2,297.9
982.4,293,20.7,19.3,91,14.48,348,1.7,295.4,337.1,297.9
982.0,296,20.7,19.2,91,14.44,348,1.6,295.4,337.0,297.9
981.6,300,20.7,19.2,91,14.44,349,1.5,295.4,337.1,298.0
981.2,304,20.7,19.3,91,14.47,349,1.4,295.5,337.2,298.0
980.8,307,20.8,19.3,91,14.50,350,1.3,295.5,337.4,298.1
980.3,311,20.8,19.3,91,14.51,350,1.1,295.6,337.4,298.1
979.9,315,20.7,19.3,91,14.49,351,1.0,295.6,337.4,298.1
979.4,319,20.7,19.2,92,14.48,352,0.9,295.6,337.3,298.1
978.9,324,20.6,19.2,92,14.48,353,0.8,295.6,337.4,298.1
978.4,328,20.6,19.3,92,14.52,355,0.6,295.6,337.5,298.2
977.9,333,20.6,19.3,92,14.54,357,0.5,295.6,337.5,298.2
977.4,337,20.5,19.2,92,14.51,360,0.3,295.6,337.5,298.2
976.9,341,20.5,19.2,92,14.47,7,0.2,295.6,337.3,298.2
976.4,346,20.4,19.2,92,14.45,47,0.1,295.6,337.3,298.2
976.0,350,20.4,19.2,93,14.45,149,0.1,295.6,337.3,298.1
975.5,354,20.4,19.2,93,14.47,163,0.3,295.6,337.3,298.2
975.0,358,20.3,19.2,93,14.48,168,0.4,295.6,337.4,298.2
974.6,362,20.3,19.2,93,14.49,170,0.5,295.6,337.4,298.2
974.2,366,20.3,19.2,94,14.51,172,0.7,295.6,337.5,298.2
973.8,370,20.2,19.2,94,14.51,174,0.8,295.6,337.4,298.2
973.4,373,20.2,19.1,94,14.48,175,1.0,295.6,337.4,298.1
973.0,377,20.1,19.1,94,14.45,176,1.1,295.6,337.2,298.1
972.6,380,20.1,19.1,94,14.46,177,1.2,295.6,337.3,298.1
972.2,383,20.1,19.1,94,14.47,178,1.3,295.6,337.3,298.1
971.8,387,20.0,19.1,94,14.49,179,1.4,295.6,337.4,298.2
971.5,390,20.0,19.1,95,14.49,180,1.6,295.6,337.4,298.1
971.1,393,20.0,19.1,95,14.47,181,1.7,295.6,337.3,298.1
970.7,397,19.9,19.1,95,14.48,181,1.8,295.6,337.4,298.2
970.3,400,19.9,19.1,95,14.50,182,1.8,295.6,337.4,298.2
969.9,403,19.9,19.1,95,14.53,183,1.9,295.6,337.5,298.2
969.6,407,19.9,19.2,96,14.55,184,2.0,295.6,337.6,298.2
969.2,410,19.9,19.2,96,14.58,185,2.0,295.6,337.7,298.2
968.8,413,19.9,19.2,96,14.59,186,2.1,295.7,337.8,298.3
968.5,417,19.9,19.2,95,14.59,187,2.2,295.8,337.9,298.3
968.1,420,20.0,19.2,95,14.57,187,2.2,295.8,337.9,298.4
967.7,423,20.0,19.1,95,14.56,188,2.2,295.9,338.0,298.5
967.3,427,20.0,19.1,95,14.54,189,2.3,295.9,337.9,298.5
967.0,430,20.0,19.1,94,14.50,190,2.3,296.0,337.8,298.5
966.6,434,20.0,19.0,94,14.46,191,2.3,296.0,337.8,298.5
966.2,437,20.0,19.0,94,14.42,193,2.3,296.0,337.7,298.6
965.7,441,19.9,18.9,94,14.39,194,2.3,296.0,337.6,298.6
965.3,445,19.9,18.9,94,14.38,195,2.3,296.0,337.6,298.6
964.9,449,19.9,18.9,94,14.39,196,2.3,296.0,337.6,298.6
964.5,452,19.8,18.9,94,14.41,197,2.3,296.0,337.7,298.6
964.0,456,19.8,18.9,95,14.42,198,2.3,296.0,337.7,298.6
963.6,460,19.8,18.9,95,14.41,200,2.3,296.0,337.7,298.6
963.2,464,19.7,18.9,95,14.43,201,2.3,296.0,337.7,298.6
962.7,469,19.7,18.9,95,14.44,202,2.3,296.0,337.8,298.6
962.2,473,19.7,18.9,95,14.45,204,2.3,296.1,337.8,298.6
961.7,477,19.7,18.9,96,14.47,205,2.3,296.1,337.9,298.7
961.2,482,19.6,18.9,95,14.44,206,2.3,296.1,337.9,298.7
960.7,486,19.6,18.8,95,14.37,207,2.4,296.1,337.7,298.7
960.2,491,19.6,18.7,95,14.32,208,2.4,296.1,337.5,298.7
959.8,495,19.5,18.7,95,14.29,209,2.4,296.1,337.4,298.7
959.4,498,19.5,18.7,95,14.29,210,2.4,296.1,337.5,298.7
959.0,502,19.5,18.7,95,14.31,211,2.4,296.1,337.5,298.7
958.6,506,19.4,18.7,96,14.31,212,2.4,296.1,337.5,298.7
958.2,509,19.4,18.7,96,14.32,213,2.4,296.1,337.5,298.7
957.8,513,19.3,18.7,96,14.33,214,2.4,296.1,337.5,298.7
957.3,517,19.3,18.7,96,14.33,214,2.4,296.1,337.6,298.7
956.9,520,19.3,18.7,97,14.36,215,2.4,296.1,337.7,298.7
956.5,524,19.3,18.8,97,14.39,215,2.4,296.1,337.7,298.7
956.0,528,19.2,18.8,97,14.43,215,2.4,296.2,337.9,298.7
955.6,532,19.2,18.8,98,14.46,216,2.4,296.1,337.9,298.7
955.1,537,19.1,18.8,98,14.46,216,2.4,296.1,337.9,298.7
954.7,541,19.1,18.8,98,14.44,216,2.4,296.1,337.9,298.7
954.2,545,19.1,18.8,98,14.42,216,2.4,296.1,337.8,298.7
953.7,549,19.0,18.7,98,14.42,216,2.4,296.1,337.8,298.7
953.3,553,19.0,18.7,99,14.42,216,2.4,296.1,337.8,298.7
952.8,557,18.9,18.7,99,14.43,216,2.4,296.2,337.9,298.7
952.3,562,18.9,18.7,99,14.43,216,2.4,296.2,337.9,298.7
951.9,566,18.9,18.7,99,14.42,216,2.5,296.2,337.8,298.7
951.4,571,18.8,18.7,99,14.42,216,2.5,296.1,337.8,298.7
950.9,575,18.8,18.7,99,14.40,216,2.5,296.1,337.8,298.7
950.4,579,18.7,18.6,99,14.37,216,2.6,296.2,337.7,298.7
949.9,584,18.7,18.6,99,14.34,216,2.6,296.2,337.6,298.7
949.4,588,18.7,18.5,99,14.29,216,2.7,296.2,337.5,298.7
948.9,593,18.7,18.5,99,14.25,216,2.7,296.2,337.4,298.8
948.5,597,18.7,18.5,99,14.23,215,2.8,296.2,337.4,298.8
948.0,601,18.6,18.5,99,14.25,215,2.8,296.2,337.5,298.8
947.6,605,18.6,18.5,99,14.26,215,2.9,296.2,337.5,298.8
947.1,609,18.5,18.5,100,14.26,215,3.0,296.2,337.5,298.8
946.6,614,18.5,18.5,100,14.26,215,3.0,296.2,337.5,298.8
946.2,618,18.5,18.4,100,14.26,214,3.1,296.2,337.5,298.8
945.7,622,18.4,18.4,100,14.25,214,3.2,296.3,337.5,298.8
945.3,626,18.4,18.4,100,14.22,214,3.3,296.3,337.4,298.8
944.9,630,18.4,18.3,100,14.19,213,3.3,296.3,337.3,298.8
944.4,634,18.4,18.3,100,14.17,213,3.4,296.3,337.3,298.8
944.0,638,18.3,18.3,100,14.16,213,3.4,296.3,337.3,298.8
943.6,641,18.3,18.3,100,14.18,212,3.5,296.3,337.4,298.9
943.2,645,18.3,18.3,100,14.17,212,3.5,296.4,337.3,298.9
942.7,649,18.3,18.3,100,14.14,211,3.6,296.4,337.3,298.9
942.3,653,18.2,18.2,100,14.12,211,3.6,296.4,337.2,298.9
941.9,657,18.2,18.2,100,14.10,210,3.6,296.4,337.2,298.9
941.5,661,18.2,18.2,100,14.08,210,3.6,296.4,337.1,298.9
941.0,665,18.1,18.1,100,14.06,209,3.6,296.4,337.1,298.9
940.6,669,18.1,18.1,100,14.05,209,3.6,296.4,337.1,298.9
940.2,673,18.1,18.1,100,14.04,208,3.5,296.4,337.1,298.9
939.7,677,18.1,18.1,100,14.03,208,3.5,296.5,337.1,298.9
939.3,680,18.1,18.1,100,14.04,208,3.4,296.5,337.1,299.0
938.9,684,18.1,18.1,100,14.04,207,3.3,296.5,337.2,299.0
938.5,688,18.1,18.1,100,14.05,207,3.3,296.6,337.3,299.1
938.1,692,18.1,18.1,100,14.05,207,3.2,296.6,337.3,299.1
937.7,695,18.1,18.1,100,14.05,207,3.1,296.6,337.3,299.1
937.3,699,18.0,18.0,100,14.02,207,2.9,296.6,337.2,299.1
936.8,703,18.0,18.0,100,13.98,207,2.8,296.6,337.1,299.1
936.4,707,18.0,18.0,100,13.96,207,2.7,296.6,337.1,299.1
935.9,711,17.9,17.9,100,13.96,208,2.6,296.7,337.1,299.1
935.5,716,17.9,17.9,100,13.96,208,2.5,296.7,337.1,299.2
935.0,720,17.9,17.9,100,13.95,209,2.4,296.7,337.1,299.2
934.6,724,17.9,17.9,100,13.94,210,2.3,296.7,337.1,299.2
934.1,728,17.9,17.9,100,13.93,211,2.2,296.7,337.1,299.2
933.7,732,17.9,17.9,100,13.91,212,2.1,296.8,337.1,299.2
933.3,736,17.8,17.8,100,13.90,213,2.1,296.8,337.1,299.2
932.8,740,17.8,17.8,100,13.89,214,2.0,296.8,337.1,299.3
932.4,744,17.8,17.8,100,13.88,215,2.0,296.8,337.1,299.3
931.9,748,17.8,17.8,100,13.87,217,2.0,296.8,337.1,299.3
931.4,753,17.8,17.7,100,13.85,218,2.0,296.9,337.1,299.3
931.0,757,17.7,17.7,100,13.83,219,2.0,296.9,337.0,299.3
930.5,762,17.7,17.7,100,13.81,220,2.1,296.9,337.0,299.4
929.9,766,17.7,17.6,100,13.78,220,2.1,296.9,336.9,299.4
929.4,771,17.7,17.6,100,13.76,221,2.2,297.0,336.9,299.4
928.9,776,17.6,17.6,100,13.77,221,2.3,297.0,337.0,299.4
928.5,780,17.6,17.6,100,13.78,221,2.4,297.0,337.0,299.5
928.0,785,17.6,17.6,100,13.78,221,2.5,297.0,337.0,299.5
927.5,789,17.6,17.6,100,13.78,221,2.6,297.1,337.1,299.5
927.0,794,17.6,17.6,100,13.77,221,2.8,297.1,337.1,299.5
926.5,798,17.6,17.6,100,13.76,220,2.9,297.1,337.1,299.6
926.0,803,17.5,17.5,100,13.75,220,3.0,297.1,337.1,299.6
925.6,807,17.5,17.5,100,13.73,220,3.2,297.2,337.0,299.6
925.1,811,17.5,17.5,100,13.72,220,3.3,297.2,337.1,299.6
925.0,812,17.5,17.5,100,13.72,220,3.5,297.2,337.0,299.6
924.6,816,17.5,17.5,100,13.71,220,3.5,297.2,337.1,299.6
924.2,820,17.5,17.5,100,13.70,220,3.6,297.2,337.0,299.7
923.7,824,17.4,17.4,100,13.69,220,3.7,297.2,337.0,299.7
923.3,828,17.4,17.4,100,13.68,220,3.8,297.3,337.0,299.7
922.8,832,17.4,17.4,100,13.68,220,3.9,297.3,337.1,299.7
922.4,836,17.4,17.4,100,13.67,221,4.1,297.3,337.0,299.7
921.9,841,17.4,17.4,100,13.66,221,4.1,297.3,337.0,299.8
921.5,845,17.3,17.3,100,13.65,221,4.2,297.4,337.0,299.8
921.0,849,17.3,17.3,100,13.64,222,4.3,297.4,337.0,299.8
920.6,853,17.3,17.3,100,13.62,222,4.4,297.4,337.0,299.8
920.1,858,17.3,17.3,100,13.62,222,4.4,297.4,337.1,299.9
919.6,862,17.3,17.3,100,13.61,223,4.5,297.5,337.1,299.9
919.2,866,17.3,17.3,100,13.61,223,4.5,297.5,337.1,299.9
918.7,871,17.2,17.2,100,13.60,224,4.6,297.5,337.1,299.9
918.3,875,17.2,17.2,100,13.59,224,4.6,297.5,337.1,300.0
917.8,879,17.2,17.2,100,13.58,225,4.6,297.6,337.1,300.0
917.4,883,17.2,17.2,100,13.57,225,4.6,297.6,337.1,300.0
916.9,888,17.2,17.2,100,13.56,226,4.7,297.6,337.1,300.0
916.4,892,17.1,17.1,100,13.55,226,4.7,297.6,337.1,300.0
915.9,897,17.1,17.1,100,13.53,226,4.7,297.6,337.0,300.1
915.4,902,17.1,17.1,100,13.49,227,4.6,297.6,336.9,300.0
914.9,906,17.0,17.0,100,13.45,227,4.6,297.6,336.8,300.0
914.4,911,17.0,17.0,100,13.42,227,4.6,297.6,336.7,300.0
913.9,916,16.9,16.9,100,13.39,227,4.6,297.6,336.6,300.0
913.4,920,16.9,16.8,100,13.32,227,4.5,297.6,336.4,300.0
912.9,925,16.8,16.8,100,13.30,227,4.5,297.6,336.3,300.0
912.5,929,16.8,16.8,100,13.29,227,4.5,297.6,336.3,300.0
912.0,933,16.8,16.8,100,13.27,227,4.4,297.6,336.3,300.0
911.6,937,16.7,16.7,100,13.25,227,4.3,297.6,336.2,300.0
911.2,941,16.7,16.7,100,13.24,226,4.3,297.6,336.2,300.0
910.7,945,16.7,16.7,100,13.23,226,4.2,297.7,336.2,300.0
910.3,949,16.7,16.7,100,13.22,226,4.1,297.7,336.2,300.1
909.9,953,16.7,16.7,100,13.22,226,4.1,297.7,336.2,300.1
909.5,957,16.6,16.6,100,13.21,226,4.0,297.7,336.2,300.1
909.1,961,16.6,16.6,100,13.21,225,3.9,297.8,336.3,300.1
908.7,965,16.6,16.6,100,13.20,225,3.8,297.8,336.3,300.2
908.3,969,16.6,16.6,100,13.20,225,3.8,297.8,336.3,300.2
907.8,973,16.6,16.6,100,13.20,225,3.7,297.9,336.3,300.2
907.4,977,16.6,16.6,100,13.19,225,3.6,297.9,336.3,300.2
907.0,981,16.6,16.6,100,13.19,225,3.5,297.9,336.3,300.3
906.6,985,16.6,16.5,100,13.17,225,3.4,297.9,336.3,300.3
906.1,989,16.5,16.5,100,13.16,226,3.4,298.0,336.4,300.3
905.8,992,16.5,16.5,100,13.15,226,3.3,298.0,336.3,300.3
905.4,996,16.5,16.5,100,13.17,226,3.2,298.0,336.4,300.4
905.0,1000,16.5,16.5,100,13.16,227,3.2,298.0,336.4,300.4
904.6,1003,16.5,16.5,100,13.15,228,3.1,298.0,336.4,300.4
904.2,1007,16.5,16.5,100,13.14,228,3.1,298.1,336.4,300.4
903.8,1010,16.4,16.4,100,13.13,229,3.0,298.1,336.4,300.4
903.4,1014,16.4,16.4,100,13.12,229,3.0,298.1,336.4,300.4
903.0,1018,16.4,16.4,100,13.12,230,2.9,298.1,336.4,300.5
902.7,1021,16.4,16.4,100,13.11,231,2.9,298.1,336.4,300.5
902.3,1025,16.4,16.4,100,13.11,231,2.9,298.2,336.4,300.5
901.9,1029,16.4,16.4,100,13.11,232,2.8,298.2,336.5,300.5
901.5,1032,16.4,16.4,100,13.11,232,2.8,298.2,336.5,300.6
901.1,1036,16.4,16.4,100,13.10,232,2.8,298.3,336.5,300.6
900.8,1039,16.4,16.4,100,13.10,232,2.8,298.3,336.5,300.6
900.4,1043,16.3,16.3,100,13.10,232,2.7,298.3,336.6,300.6
900.0,1047,16.3,16.3,100,13.09,232,2.7,298.3,336.6,300.7
899.6,1050,16.3,16.3,100,13.09,232,2.7,298.4,336.6,300.7
899.2,1054,16.3,16.3,100,13.09,231,2.7,298.4,336.6,300.7
898.9,1058,16.3,16.3,100,13.08,231,2.6,298.4,336.6,300.7
898.5,1061,16.3,16.3,100,13.07,230,2.6,298.4,336.6,300.8
898.1,1065,16.3,16.3,100,13.06,229,2.6,298.4,336.6,300.8
897.7,1069,16.3,16.3,100,13.06,228,2.5,298.5,336.6,300.8
897.2,1073,16.2,16.2,100,13.05,227,2.5,298.5,336.6,300.8
896.8,1077,16.2,16.2,100,13.04,226,2.5,298.5,336.6,300.8
896.4,1081,16.2,16.2,100,13.03,225,2.4,298.5,336.6,300.9
896.0,1085,16.2,16.2,100,13.02,223,2.4,298.5,336.6,300.9
895.6,1089,16.2,16.2,100,13.01,222,2.3,298.6,336.6,300.9
895.1,1093,16.1,16.1,100,13.00,220,2.3,298.6,336.6,300.9
894.7,1097,16.1,16.1,100,13.00,219,2.3,298.6,336.7,301.0
894.2,1102,16.1,16.1,100,13.00,217,2.2,298.7,336.7,301.0
893.8,1106,16.1,16.1,100,12.98,216,2.2,298.7,336.7,301.0
893.3,1110,16.1,16.1,100,12.96,214,2.2,298.7,336.6,301.0
892.9,1114,16.1,16.0,100,12.94,213,2.1,298.8,336.6,301.1
892.5,1118,16.1,16.0,100,12.96,212,2.1,298.8,336.7,301.1
892.1,1122,16.1,16.1,100,12.98,211,2.1,298.8,336.8,301.1
891.8,1125,16.1,16.1,100,12.99,210,2.1,298.8,336.9,301.2
891.4,1129,16.1,16.1,100,12.98,209,2.1,298.9,336.9,301.2
891.1,1132,16.0,16.0,100,12.98,209,2.0,298.9,336.9,301.2
890.7,1135,16.0,16.0,100,12.99,208,2.0,298.9,336.9,301.2
890.4,1138,16.0,16.0,100,12.98,208,2.0,298.9,337.0,301.3
890.1,1141,16.0,16.0,100,12.98,208,2.0,299.0,337.0,301.3
889.8,1144,16.0,16.0,100,12.96,208,2.1,299.0,336.9,301.3
889.5,1147,16.0,16.0,100,12.96,209,2.1,299.0,337.0,301.3
889.2,1149,16.0,16.0,100,12.96,209,2.1,299.0,337.0,301.3
889.0,1152,16.0,16.0,100,12.95,210,2.1,299.0,337.0,301.3
888.7,1155,16.0,16.0,100,12.94,210,2.1,299.0,336.9,301.3
888.4,1158,15.9,15.9,100,12.93,211,2.2,299.0,336.9,301.3
888.0,1161,15.9,15.9,100,12.90,211,2.2,299.0,336.8,301.3
887.7,1164,15.9,15.8,100,12.85,212,2.3,299.0,336.7,301.3
887.4,1167,15.8,15.8,100,12.82,212,2.3,299.0,336.6,301.3
887.1,1170,15.8,15.8,100,12.84,213,2.4,299.0,336.6,301.3
886.8,1173,15.8,15.8,100,12.87,213,2.4,299.1,336.8,301.4
886.4,1176,15.8,15.8,100,12.88,214,2.5,299.1,336.9,301.4
886.1,1179,15.8,15.8,100,12.86,214,2.6,299.1,336.8,301.4
885.8,1183,15.8,15.7,100,12.79,214,2.6,299.1,336.6,301.4
885.4,1186,15.7,15.6,100,12.73,214,2.7,299.1,336.4,301.4
885.0,1190,15.7,15.6,99,12.70,214,2.7,299.1,336.3,301.4
884.7,1193,15.7,15.6,99,12.68,214,2.8,299.1,336.3,301.4
884.3,1197,15.7,15.5,99,12.66,214,2.8,299.1,336.3,301.4
883.9,1201,15.7,15.5,99,12.63,214,2.9,299.2,336.2,301.4
883.5,1204,15.6,15.4,99,12.58,213,2.9,299.2,336.1,301.5
883.2,1208,15.6,15.4,98,12.53,213,2.9,299.2,336.0,301.5
882.8,1212,15.6,15.3,98,12.50,212,3.0,299.2,335.9,301.5
882.4,1215,15.6,15.3,98,12.51,212,3.0,299.3,336.0,301.5
882.0,1219,15.6,15.3,98,12.52,211,3.0,299.3,336.1,301.6
881.7,1222,15.7,15.3,98,12.53,211,3.0,299.4,336.2,301.6
881.3,1226,15.7,15.4,98,12.55,210,3.0,299.5,336.3,301.7
880.9,1229,15.7,15.4,98,12.57,209,3.0,299.5,336.4,301.8
880.6,1233,15.7,15.4,98,12.57,208,3.1,299.5,336.4,301.8
880.2,1236,15.6,15.3,98,12.56,208,3.1,299.5,336.4,301.8
879.9,1239,15.6,15.3,98,12.50,207,3.1,299.5,336.2,301.8
879.6,1243,15.6,15.2,97,12.46,206,3.1,299.5,336.2,301.8
879.3,1246,15.6,15.2,97,12.45,205,3.1,299.6,336.1,301.8
878.9,1249,15.6,15.2,97,12.45,205,3.2,299.6,336.2,301.8
878.7,1251,15.6,15.2,98,12.45,204,3.2,299.6,336.2,301.8
878.4,1254,15.6,15.2,98,12.48,203,3.2,299.6,336.3,301.8
878.1,1257,15.5,15.3,98,12.52,203,3.2,299.6,336.4,301.8
877.8,1260,15.5,15.3,99,12.59,202,3.3,299.5,336.5,301.8
877.5,1263,15.4,15.4,100,12.64,202,3.3,299.5,336.7,301.8
877.1,1266,15.4,15.4,100,12.64,201,3.3,299.6,336.7,301.8
876.8,1269,15.4,15.4,100,12.64,201,3.3,299.6,336.7,301.9
876.5,1273,15.4,15.4,100,12.63,201,3.4,299.6,336.7,301.9
876.1,1276,15.4,15.4,100,12.62,201,3.4,299.6,336.7,301.9
875.8,1279,15.3,15.3,100,12.61,201,3.4,299.6,336.7,301.9
875.4,1283,15.3,15.3,100,12.60,201,3.4,299.6,336.7,301.9
875.1,1286,15.3,15.3,100,12.58,201,3.4,299.7,336.6,301.9
874.8,1288,15.3,15.3,100,12.56,201,3.5,299.7,336.6,301.9
874.6,1291,15.3,15.2,100,12.56,202,3.5,299.7,336.6,301.9
874.3,1294,15.3,15.2,100,12.56,203,3.5,299.7,336.6,302.0
874.0,1297,15.3,15.2,100,12.55,203,3.5,299.7,336.6,302.0
873.7,1299,15.3,15.2,100,12.55,204,3.5,299.8,336.7,302.0
873.5,1302,15.3,15.2,100,12.56,205,3.5,299.8,336.7,302.1
873.2,1305,15.3,15.3,100,12.58,206,3.5,299.8,336.8,302.1
872.9,1308,15.3,15.2,100,12.56,208,3.5,299.8,336.8,302.1
872.6,1311,15.2,15.2,99,12.52,209,3.5,299.8,336.7,302.1
872.3,1313,15.2,15.1,99,12.49,210,3.5,299.8,336.6,302.1
872.0,1316,15.2,15.1,99,12.48,211,3.5,299.9,336.6,302.1
871.7,1319,15.2,15.1,99,12.47,212,3.5,299.9,336.6,302.1
871.4,1322,15.2,15.1,99,12.45,213,3.5,299.9,336.5,302.1
871.0,1325,15.2,15.0,99,12.42,215,3.5,299.9,336.5,302.2
870.7,1329,15.2,15.0,99,12.42,216,3.5,300.0,336.5,302.2
870.4,1332,15.2,15.0,99,12.45,216,3.5,300.0,336.6,302.2
870.0,1336,15.2,15.1,99,12.49,217,3.5,300.0,336.8,302.3
869.6,1339,15.2,15.1,100,12.51,218,3.5,300.0,336.9,302.3
869.2,1344,15.1,15.0,99,12.45,218,3.5,300.0,336.7,302.3
868.7,1348,15.1,14.9,99,12.35,219,3.5,300.1,336.4,302.3
868.3,1352,15.1,14.8,98,12.26,219,3.5,300.1,336.2,302.3
867.9,1357,15.1,14.7,97,12.20,219,3.5,300.2,336.1,302.4
867.4,1361,15.1,14.6,97,12.15,219,3.5,300.2,336.0,302.4
867.0,1365,15.1,14.6,97,12.15,218,3.4,300.2,336.0,302.4
866.7,1368,15.1,14.6,97,12.18,218,3.4,300.2,336.2,302.4
