PRES,HGHT,TEMP,DWPT,RELH,MIXR,DRCT,SPED,THTA,THTE,THTV
1013.0,31,26.6,21.2,72,15.80,85,6.3,298.6,344.9,301.5
1012.1,38,26.5,21.3,73,15.94,84,4.5,298.7,345.3,301.5
1011.6,43,26.3,21.2,74,15.85,84,4.0,298.4,344.7,301.3
1011.0,48,26.1,21.1,74,15.82,84,4.0,298.3,344.5,301.1
1010.4,53,26.0,21.1,74,15.81,85,4.3,298.3,344.4,301.1
1009.7,60,25.9,21.0,74,15.73,85,4.6,298.3,344.2,301.1
1009.1,65,25.9,20.9,74,15.61,86,4.9,298.2,343.8,301.0
1008.4,71,25.8,20.8,74,15.53,86,5.1,298.3,343.6,301.0
1007.7,77,25.8,20.8,74,15.53,86,5.3,298.3,343.6,301.0
1007.1,82,25.7,20.8,74,15.57,87,5.5,298.2,343.7,301.0
1006.4,88,25.7,20.8,75,15.58,87,5.7,298.3,343.7,301.0
1005.8,94,25.6,20.8,75,15.57,88,5.9,298.3,343.7,301.0
1005.1,99,25.6,20.8,75,15.59,88,6.1,298.3,343.8,301.1
1004.5,105,25.5,20.8,75,15.60,89,6.3,298.3,343.8,301.1
1003.8,111,25.4,20.8,76,15.62,89,6.4,298.3,343.9,301.1
1003.2,117,25.4,20.8,76,15.60,89,6.5,298.3,343.8,301.0
1002.5,123,25.3,20.7,76,15.56,90,6.7,298.3,343.7,301.0
1001.8,129,25.3,20.7,76,15.54,90,6.8,298.3,343.6,301.0
1001.1,135,25.2,20.7,76,15.51,91,6.9,298.3,343.5,301.0
1000.5,141,25.2,20.6,76,15.44,91,7.0,298.3,343.3,301.0
1000.0,145,25.1,20.5,76,15.38,91,7.0,298.2,343.1,301.0
999.8,147,25.1,20.5,76,15.35,91,7.1,298.2,343.0,301.0
999.1,153,25.0,20.4,75,15.25,92,7.1,298.2,342.8,301.0
998.4,158,25.0,20.3,75,15.15,92,7.2,298.2,342.4,301.0
997.8,164,24.9,20.3,76,15.20,92,7.3,298.2,342.6,301.0
997.2,170,24.9,20.4,76,15.35,92,7.3,298.2,343.0,301.0
996.5,175,24.8,20.5,77,15.38,93,7.3,298.2,343.1,301.0
995.9,180,24.7,20.4,77,15.31,93,7.4,298.2,342.9,301.0
995.3,186,24.7,20.3,76,15.22,93,7.4,298.2,342.7,301.0
994.7,191,24.6,20.2,76,15.11,93,7.5,298.2,342.3,300.9
994.2,196,24.6,20.1,76,15.05,93,7.5,298.2,342.1,300.9
993.6,201,24.5,20.1,76,15.05,93,7.5,298.2,342.2,300.9
992.9,207,24.5,20.1,77,15.10,93,7.5,298.2,342.3,300.9
992.3,212,24.4,20.2,77,15.15,93,7.5,298.2,342.4,300.9
991.7,218,24.4,20.2,77,15.17,92,7.6,298.2,342.5,300.9
991.1,224,24.3,20.1,77,15.12,92,7.6,298.2,342.3,300.9
990.4,229,24.3,20.1,77,15.08,92,7.6,298.2,342.2,300.9
989.8,235,24.2,20.1,78,15.10,91,7.6,298.2,342.3,300.9
989.2,240,24.2,20.1,78,15.12,91,7.6,298.2,342.3,300.9
988.5,246,24.1,20.1,78,15.12,91,7.6,298.2,342.3,300.9
987.9,252,24.0,20.1,79,15.15,90,7.6,298.2,342.4,300.9
987.2,258,24.0,20.1,79,15.20,90,7.7,298.2,342.6,300.9
986.6,263,23.9,20.1,79,15.21,89,7.7,298.2,342.6,300.9
985.9,269,23.9,20.1,80,15.23,88,7.7,298.2,342.7,300.9
985.3,275,23.8,20.1,80,15.22,88,7.7,298.2,342.6,300.9
984.7,280,23.8,20.1,80,15.19,87,7.7,298.2,342.5,300.9
984.1,286,23.7,20.0,80,15.15,87,7.7,298.2,342.4,300.9
983.5,291,23.7,20.0,80,15.14,86,7.7,298.2,342.4,300.9
982.9,296,23.6,20.0,80,15.14,86,7.7,298.2,342.4,300.9
982.3,301,23.6,20.0,80,15.13,85,7.8,298.2,342.4,300.9
981.7,306,23.5,20.0,80,15.12,85,7.8,298.2,342.4,300.9
981.2,312,23.5,19.9,81,15.12,85,7.8,298.2,342.3,300.9
980.6,317,23.4,19.9,81,15.12,84,7.8,298.2,342.3,300.9
980.0,322,23.4,19.9,81,15.13,84,7.8,298.2,342.4,300.9
979.4,328,23.3,19.9,81,15.13,84,7.8,298.2,342.4,300.9
978.8,333,23.3,19.9,82,15.14,84,7.8,298.2,342.4,300.9
978.2,339,23.2,19.9,82,15.14,84,7.8,298.2,342.4,300.9
977.5,344,23.2,19.9,82,15.14,84,7.8,298.2,342.4,300.9
976.9,350,23.1,19.9,82,15.12,84,7.8,298.2,342.3,300.9
976.3,355,23.0,19.8,82,15.06,84,7.8,298.2,342.2,300.9
975.7,360,23.0,19.7,82,14.97,84,7.8,298.2,341.9,300.9
975.2,365,22.9,19.6,82,14.90,84,7.8,298.2,341.7,300.9
974.6,370,22.9,19.6,82,14.90,84,7.8,298.2,341.7,300.9
974.1,375,22.9,19.6,82,14.92,85,7.7,298.2,341.8,300.9
973.6,380,22.8,19.7,82,14.96,85,7.7,298.2,341.9,300.9
973.0,385,22.8,19.7,83,15.00,85,7.7,298.2,342.0,300.9
972.5,389,22.7,19.7,83,15.01,86,7.7,298.2,342.0,300.9
971.9,394,22.7,19.7,83,15.00,86,7.7,298.2,342.0,300.9
971.4,400,22.6,19.7,83,15.00,86,7.7,298.2,342.0,300.9
970.8,405,22.6,19.7,84,15.00,87,7.7,298.2,342.0,300.9
970.2,410,22.5,19.6,84,14.97,87,7.7,298.2,341.9,300.9
969.6,416,22.5,19.6,84,14.94,87,7.7,298.2,341.8,300.9
969.0,421,22.4,19.6,84,14.96,88,7.7,298.2,341.9,300.9
968.4,427,22.4,19.6,84,15.00,88,7.7,298.2,342.0,300.9
967.8,432,22.3,19.6,85,15.04,88,7.7,298.2,342.1,300.9
967.2,437,22.3,19.6,85,15.04,88,7.7,298.2,342.1,300.9
966.6,443,22.2,19.6,85,14.98,89,7.7,298.2,341.9,300.9
966.0,448,22.2,19.5,85,14.90,89,7.8,298.2,341.7,300.9
965.4,453,22.1,19.4,85,14.89,89,7.8,298.2,341.7,300.9
964.9,458,22.1,19.5,85,14.92,89,7.8,298.2,341.8,300.9
964.3,463,22.0,19.5,86,14.94,89,7.8,298.2,341.8,300.9
963.8,468,22.0,19.5,86,14.95,89,7.8,298.2,341.9,300.9
963.2,473,21.9,19.5,86,14.94,89,7.8,298.2,341.8,300.9
962.6,478,21.9,19.4,86,14.92,89,7.8,298.2,341.8,300.9
962.0,484,21.8,19.4,86,14.93,89,7.9,298.2,341.8,300.9
961.5,489,21.8,19.4,87,14.93,89,7.9,298.2,341.8,300.9
960.9,494,21.7,19.4,87,14.93,89,7.9,298.2,341.8,300.9
960.3,500,21.7,19.4,87,14.90,89,7.9,298.3,341.7,300.9
959.7,505,21.6,19.4,87,14.89,88,7.9,298.3,341.7,300.9
959.0,511,21.6,19.4,87,14.92,88,7.8,298.3,341.8,300.9
958.4,517,21.5,19.4,88,14.97,88,7.8,298.3,341.9,300.9
957.8,522,21.4,19.5,88,15.02,88,7.8,298.2,342.1,300.9
957.2,528,21.4,19.5,89,15.03,88,7.8,298.2,342.1,300.9
956.5,533,21.3,19.4,89,14.99,88,7.7,298.2,342.0,300.9
955.9,539,21.3,19.4,89,14.98,88,7.7,298.2,341.9,300.9
955.4,544,21.2,19.4,89,15.02,88,7.6,298.2,342.0,300.9
954.8,549,21.2,19.4,90,15.02,88,7.5,298.2,342.0,300.9
954.2,554,21.1,19.4,90,14.98,88,7.5,298.2,341.9,300.9
953.7,559,21.1,19.3,90,14.94,87,7.4,298.2,341.8,300.9
953.2,564,21.0,19.3,90,14.94,87,7.3,298.2,341.8,300.9
952.7,569,21.0,19.3,90,14.94,87,7.2,298.2,341.8,300.9
952.1,574,20.9,19.3,90,14.93,87,7.1,298.2,341.8,300.9
951.6,579,20.9,19.3,90,14.95,86,7.0,298.2,341.8,300.9
951.1,583,20.8,19.3,91,14.97,86,7.0,298.2,341.9,300.9
950.5,589,20.8,19.3,91,15.00,86,6.9,298.2,342.0,300.9
949.9,594,20.7,19.3,92,15.03,85,6.8,298.2,342.1,300.9
949.3,599,20.7,19.3,92,15.05,85,6.7,298.2,342.1,300.9
948.7,605,20.6,19.3,92,15.05,84,6.6,298.2,342.1,300.9
948.1,611,20.6,19.3,92,15.05,84,6.6,298.2,342.1,300.9
947.5,616,20.5,19.3,93,15.04,83,6.5,298.2,342.1,300.9
946.8,622,20.5,19.3,93,15.03,83,6.4,298.2,342.1,300.9
946.2,628,20.4,19.3,93,15.02,83,6.4,298.2,342.0,300.9
945.6,634,20.4,19.2,93,15.02,82,6.3,298.2,342.0,300.9
945.0,639,20.3,19.2,93,14.99,82,6.3,298.2,341.9,300.9
944.4,645,20.3,19.1,93,14.89,82,6.3,298.2,341.7,300.9
943.8,650,20.2,19.0,93,14.80,81,6.2,298.2,341.4,300.9
943.2,656,20.2,18.8,92,14.63,81,6.2,298.3,341.0,300.9
942.6,661,20.2,18.6,90,14.42,81,6.2,298.3,340.5,300.9
942.0,666,20.2,18.4,89,14.30,81,6.2,298.4,340.2,301.0
941.4,672,20.2,18.3,89,14.24,81,6.2,298.4,340.0,301.0
940.9,677,20.2,18.3,89,14.20,82,6.2,298.4,339.9,301.0
940.3,682,20.1,18.2,89,14.17,82,6.2,298.5,339.8,301.0
939.8,687,20.1,18.2,89,14.17,82,6.2,298.5,339.9,301.0
939.2,692,20.0,18.3,90,14.20,83,6.2,298.5,340.0,301.0
938.7,697,20.0,18.3,90,14.23,83,6.2,298.5,340.0,301.0
938.2,701,19.9,18.3,90,14.26,83,6.2,298.5,340.1,301.0
937.7,706,19.9,18.4,91,14.31,84,6.2,298.5,340.3,301.0
937.1,711,19.8,18.3,91,14.31,84,6.3,298.5,340.2,301.0
936.6,716,19.8,18.3,91,14.25,85,6.3,298.5,340.1,301.0
936.0,722,19.7,18.2,91,14.18,85,6.3,298.5,339.9,301.0
935.5,727,19.7,18.1,90,14.11,86,6.3,298.5,339.7,301.0
934.9,732,19.7,18.1,90,14.09,86,6.3,298.5,339.7,301.0
934.4,737,19.6,18.0,90,14.07,87,6.3,298.5,339.6,301.0
933.9,741,19.6,18.0,90,14.02,87,6.3,298.5,339.5,301.0
933.4,746,19.6,17.9,90,14.00,87,6.3,298.5,339.5,301.0
932.9,750,19.5,18.0,91,14.02,88,6.3,298.6,339.5,301.1
932.4,755,19.5,18.0,91,14.05,88,6.3,298.6,339.6,301.1
932.0,759,19.5,18.0,91,14.09,88,6.3,298.6,339.8,301.1
931.5,763,19.4,18.0,92,14.12,88,6.2,298.6,339.8,301.1
931.1,767,19.4,18.0,92,14.11,88,6.2,298.6,339.8,301.1
930.6,771,19.4,18.0,92,14.08,88,6.2,298.6,339.7,301.1
930.2,776,19.3,17.9,92,14.05,88,6.2,298.6,339.6,301.1
929.7,780,19.3,17.9,92,14.06,88,6.2,298.6,339.7,301.1
929.2,785,19.2,18.0,93,14.11,88,6.2,298.6,339.8,301.1
928.7,789,19.2,18.0,93,14.11,87,6.1,298.6,339.8,301.1
928.2,794,19.1,17.9,93,14.06,87,6.1,298.6,339.7,301.1
927.8,798,19.1,17.9,93,14.03,87,6.1,298.6,339.6,301.1
927.3,803,19.1,17.9,93,14.02,87,6.0,298.6,339.6,301.1
926.8,807,19.0,17.8,93,14.01,86,6.0,298.6,339.5,301.1
926.3,811,19.0,17.8,93,14.00,86,6.0,298.6,339.5,301.1
925.9,816,18.9,17.8,93,13.99,86,5.9,298.6,339.5,301.1
925.4,820,18.9,17.8,93,13.99,86,5.9,298.6,339.5,301.1
925.0,824,18.9,17.8,93,13.99,86,5.9,298.6,339.5,301.1
924.9,825,18.9,17.8,93,13.99,85,5.9,298.6,339.5,301.1
924.4,830,18.8,17.8,94,14.00,85,5.8,298.6,339.5,301.1
923.8,835,18.8,17.8,94,14.02,85,5.8,298.6,339.6,301.1
923.3,840,18.7,17.8,94,14.01,85,5.7,298.6,339.6,301.1
922.8,844,18.7,17.7,94,13.95,85,5.7,298.6,339.4,301.1
922.2,849,18.7,17.6,94,13.90,85,5.6,298.6,339.3,301.1
921.7,854,18.6,17.6,94,13.86,86,5.5,298.7,339.2,301.1
921.2,859,18.6,17.5,93,13.81,86,5.5,298.7,339.1,301.2
920.7,864,18.6,17.5,93,13.82,86,5.4,298.7,339.1,301.2
920.1,869,18.6,17.6,94,13.85,86,5.3,298.7,339.2,301.2
919.6,875,18.5,17.5,94,13.85,87,5.3,298.7,339.2,301.2
919.0,880,18.5,17.5,94,13.84,87,5.2,298.7,339.2,301.2
918.4,885,18.4,17.5,94,13.84,88,5.1,298.7,339.2,301.2
917.9,890,18.3,17.5,95,13.85,88,5.0,298.7,339.2,301.2
917.3,896,18.3,17.5,96,13.89,89,4.9,298.7,339.3,301.2
916.8,901,18.2,17.5,96,13.90,89,4.9,298.7,339.3,301.2
916.2,906,18.2,17.5,96,13.87,90,4.8,298.7,339.3,301.2
915.7,911,18.2,17.4,96,13.81,91,4.7,298.7,339.1,301.2
915.2,916,18.1,17.4,95,13.78,91,4.6,298.8,339.1,301.2
914.7,921,18.1,17.3,95,13.75,92,4.5,298.8,339.0,301.2
914.1,925,18.1,17.3,95,13.72,93,4.4,298.8,339.0,301.3
913.6,930,18.0,17.3,95,13.70,93,4.3,298.8,338.9,301.3
913.1,935,18.0,17.2,95,13.67,94,4.2,298.8,338.8,301.3
912.6,940,18.0,17.2,95,13.63,95,4.1,298.8,338.7,301.3
912.0,945,17.9,17.2,95,13.62,95,4.0,298.8,338.7,301.3
911.5,951,17.9,17.2,96,13.64,96,3.9,298.8,338.8,301.3
910.9,956,17.8,17.2,96,13.67,96,3.8,298.8,338.8,301.3
910.3,962,17.8,17.2,96,13.68,97,3.7,298.8,338.9,301.3
909.7,967,17.7,17.2,96,13.68,97,3.6,298.9,338.9,301.3
909.1,973,17.7,17.1,96,13.65,97,3.6,298.9,338.8,301.3
908.6,978,17.7,17.1,97,13.64,98,3.5,298.9,338.8,301.3
908.0,983,17.6,17.1,97,13.62,98,3.4,298.9,338.8,301.3
907.4,989,17.6,17.0,97,13.60,98,3.3,298.9,338.7,301.3
906.9,994,17.5,17.0,97,13.56,98,3.2,298.9,338.6,301.4
906.3,999,17.5,17.1,98,13.65,98,3.2,298.9,338.9,301.4
905.8,1004,17.4,17.1,98,13.68,98,3.1,298.9,338.9,301.3
905.3,1009,17.3,17.0,98,13.58,98,3.0,298.9,338.6,301.3
904.8,1014,17.3,16.7,96,13.35,98,3.0,298.9,338.0,301.3
904.3,1018,17.4,16.3,93,13.00,97,2.9,299.0,337.1,301.3
903.9,1022,17.5,15.9,90,12.68,97,2.9,299.2,336.4,301.5
903.5,1026,17.6,15.8,89,12.58,97,2.8,299.3,336.3,301.6
903.0,1030,17.7,15.8,89,12.63,96,2.8,299.4,336.5,301.7
902.6,1034,17.6,15.9,90,12.73,96,2.7,299.4,336.8,301.7
902.3,1038,17.6,16.0,91,12.81,96,2.7,299.4,337.0,301.7
901.9,1042,17.5,16.1,92,12.90,95,2.6,299.4,337.2,301.7
901.4,1045,17.5,16.2,92,12.93,95,2.6,299.4,337.3,301.7
901.0,1050,17.4,16.2,92,12.95,95,2.5,299.3,337.4,301.7
900.6,1054,17.4,16.2,93,12.93,95,2.5,299.3,337.3,301.7
900.1,1058,17.4,16.1,92,12.88,94,2.4,299.4,337.2,301.7
899.7,1062,17.3,16.0,92,12.82,94,2.4,299.4,337.0,301.7
899.2,1067,17.3,16.0,92,12.81,94,2.4,299.4,337.0,301.7
898.7,1071,17.3,16.0,92,12.81,93,2.3,299.4,337.0,301.7
898.3,1076,17.2,15.9,92,12.79,93,2.3,299.4,337.0,301.7
897.8,1080,17.2,15.9,92,12.76,93,2.2,299.4,336.9,301.7
897.4,1084,17.1,15.9,92,12.74,92,2.2,299.4,336.8,301.7
896.9,1089,17.1,15.8,92,12.73,92,2.1,299.4,336.8,301.7
896.5,1093,17.1,15.8,92,12.70,91,2.1,299.4,336.7,301.7
896.0,1097,17.0,15.8,92,12.66,91,2.0,299.4,336.6,301.7
895.6,1101,17.0,15.7,92,12.65,90,2.0,299.4,336.6,301.7
895.2,1105,17.0,15.7,92,12.65,90,1.9,299.4,336.6,301.7
894.8,1109,16.9,15.8,93,12.70,89,1.9,299.4,336.7,301.7
894.3,1113,16.9,15.8,94,12.76,88,1.8,299.4,336.9,301.7
893.9,1118,16.8,15.8,94,12.75,87,1.8,299.4,336.9,301.7
893.4,1122,16.8,15.7,93,12.67,86,1.7,299.4,336.6,301.7
893.0,1126,16.8,15.6,93,12.61,85,1.7,299.4,336.5,301.7
892.5,1131,16.7,15.7,94,12.70,83,1.6,299.5,336.8,301.7
892.1,1135,16.7,15.8,95,12.79,82,1.6,299.4,337.0,301.7
891.6,1139,16.6,15.8,95,12.80,81,1.6,299.4,337.0,301.7
891.1,1144,16.6,15.8,95,12.76,79,1.5,299.4,336.9,301.7
890.7,1148,16.5,15.7,95,12.70,78,1.5,299.4,336.7,301.7
890.2,1152,16.5,15.6,95,12.64,76,1.5,299.4,336.6,301.7
889.8,1157,16.5,15.6,95,12.65,75,1.4,299.4,336.6,301.7
889.4,1161,16.4,15.7,95,12.68,73,1.4,299.4,336.7,301.7
889.0,1165,16.4,15.7,95,12.68,72,1.4,299.4,336.7,301.7
888.5,1169,16.4,15.6,96,12.67,70,1.4,299.4,336.7,301.7
888.1,1173,16.3,15.6,95,12.64,69,1.4,299.4,336.6,301.7
887.6,1178,16.3,15.5,95,12.61,67,1.4,299.4,336.5,301.7
887.1,1182,16.2,15.5,95,12.60,66,1.4,299.5,336.5,301.7
886.7,1187,16.2,15.5,96,12.58,65,1.3,299.5,336.4,301.7
886.2,1192,16.2,15.4,95,12.54,64,1.3,299.5,336.3,301.7
885.7,1196,16.2,15.4,95,12.50,63,1.3,299.5,336.2,301.8
885.2,1201,16.1,15.3,95,12.43,62,1.3,299.5,336.1,301.8
884.7,1206,16.1,15.2,94,12.34,61,1.3,299.6,335.8,301.8
884.2,1210,16.1,15.1,94,12.29,61,1.3,299.6,335.7,301.8
883.8,1215,16.1,15.1,94,12.28,60,1.3,299.6,335.7,301.8
883.3,1219,16.0,15.0,94,12.24,60,1.3,299.6,335.6,301.8
882.9,1223,16.0,15.0,94,12.21,60,1.3,299.6,335.5,301.8
882.5,1227,16.0,14.9,94,12.19,60,1.3,299.6,335.5,301.8
882.1,1231,16.0,14.9,93,12.13,61,1.3,299.7,335.4,301.9
881.7,1235,16.0,14.8,93,12.11,61,1.3,299.7,335.3,301.9
881.3,1239,16.0,14.7,92,12.04,62,1.3,299.7,335.2,301.9
880.9,1243,16.0,14.6,91,11.93,63,1.3,299.8,334.9,301.9
880.5,1247,16.0,14.5,91,11.85,64,1.3,299.8,334.7,302.0
880.1,1251,16.0,14.2,89,11.67,65,1.4,299.9,334.3,302.0
879.7,1255,16.1,14.1,88,11.54,66,1.4,300.0,334.0,302.1
879.3,1258,16.1,14.1,88,11.56,68,1.5,300.1,334.2,302.1
878.9,1262,16.0,14.1,88,11.58,69,1.5,300.1,334.2,302.1
878.4,1266,16.0,14.0,88,11.52,71,1.6,300.1,334.0,302.1
878.0,1270,16.0,13.8,87,11.37,73,1.6,300.1,333.7,302.2
877.6,1274,16.0,13.6,85,11.19,74,1.7,300.2,333.2,302.2
877.2,1278,16.1,13.4,84,11.07,76,1.8,300.2,332.9,302.2
876.8,1282,16.1,13.3,84,11.01,77,1.8,300.3,332.8,302.3
876.4,1286,16.1,13.3,83,10.99,79,1.9,300.3,332.8,302.3
876.0,1290,16.1,13.2,83,10.98,80,2.0,300.4,332.8,302.4
875.6,1294,16.0,13.2,83,10.96,81,2.1,300.4,332.8,302.4
875.2,1298,16.0,13.1,83,10.92,82,2.2,300.4,332.7,302.4
874.8,1302,16.0,13.1,83,10.93,82,2.3,300.4,332.7,302.4
874.4,1306,16.0,13.1,83,10.91,83,2.4,300.4,332.7,302.4
874.0,1310,15.9,13.0,83,10.84,84,2.4,300.4,332.5,302.4
873.6,1313,15.9,12.8,82,10.71,84,2.5,300.5,332.2,302.4
873.2,1317,16.0,12.5,80,10.50,85,2.6,300.5,331.6,302.4
872.8,1321,16.0,12.3,79,10.37,85,2.7,300.6,331.3,302.5
872.4,1325,16.0,12.3,79,10.37,85,2.7,300.7,331.4,302.5
872.0,1329,16.0,12.3,79,10.36,85,2.8,300.7,331.4,302.5
871.6,1333,16.0,12.1,78,10.23,85,2.8,300.7,331.0,302.5
871.2,1337,16.0,11.9,77,10.07,85,2.9,300.7,330.6,302.6
870.7,1341,16.0,11.7,76,9.95,85,2.9,300.8,330.3,302.6
870.3,1345,16.0,11.5,75,9.83,85,2.9,300.8,330.0,302.6
869.9,1349,16.0,11.4,74,9.79,84,2.9,300.8,329.9,302.6
869.5,1354,15.9,11.4,74,9.75,84,2.9,300.9,329.9,302.6
869.1,1358,15.9,11.3,74,9.71,84,2.9,300.9,329.8,302.7
868.6,1362,15.9,11.3,74,9.71,83,2.9,300.9,329.8,302.7
868.2,1366,15.9,11.2,74,9.68,83,2.9,301.0,329.8,302.7
867.7,1371,16.0,11.1,73,9.63,82,2.9,301.1,329.7,302.8
867.3,1375,16.0,11.0,72,9.58,82,2.9,301.1,329.6,302.9
866.8,1380,16.0,11.0,72,9.56,81,2.9,301.2,329.7,302.9
866.3,1384,16.0,11.0,72,9.56,81,2.9,301.2,329.7,303.0
865.9,1389,16.0,11.0,72,9.57,81,2.9,301.3,329.8,303.0
865.4,1394,16.0,11.0,72,9.57,80,2.8,301.3,329.8,303.0
864.9,1399,15.9,11.0,73,9.59,80,2.8,301.3,329.8,303.0
864.3,1404,15.8,11.1,73,9.62,80,2.8,301.3,330.0,303.0
863.8,1409,15.8,11.1,74,9.66,80,2.8,301.3,330.1,303.0
863.3,1415,15.8,11.2,74,9.71,80,2.8,301.3,330.2,303.1
862.7,1420,15.7,11.3,75,9.79,80,2.8,301.3,330.5,303.1
862.2,1425,15.7,11.4,76,9.87,80,2.8,301.3,330.7,303.1
861.7,1430,15.6,11.5,76,9.92,81,2.8,301.3,330.9,303.1
861.1,1436,15.6,11.5,76,9.92,81,2.8,301.4,330.9,303.2
860.6,1441,15.5,11.4,76,9.86,82,2.8,301.3,330.7,303.1
860.1,1446,15.5,11.3,76,9.80,83,2.8,301.3,330.5,303.1
859.5,1452,15.4,11.2,76,9.79,84,2.8,301.3,330.5,303.1
859.0,1457,15.3,11.3,77,9.85,85,2.8,301.3,330.6,303.1
858.4,1462,15.3,11.4,78,9.93,86,2.8,301.3,330.9,303.1
857.9,1468,15.3,11.6,78,10.04,87,2.8,301.4,331.2,303.2
857.3,1473,15.3,11.7,79,10.14,88,2.8,301.4,331.6,303.3
856.8,1479,15.3,11.8,79,10.18,90,2.8,301.5,331.8,303.3
856.2,1485,15.3,11.8,80,10.19,91,2.9,301.5,331.8,303.3
855.6,1490,15.2,11.8,80,10.19,93,2.9,301.5,331.8,303.4
855.1,1496,15.2,11.8,80,10.19,94,2.9,301.5,331.8,303.4
854.5,1501,15.1,11.8,80,10.20,96,3.0,301.5,331.9,303.4
854.0,1507,15.1,11.8,81,10.20,98,3.0,301.5,331.9,303.4
853.4,1512,15.0,11.8,81,10.21,99,3.1,301.5,331.9,303.4
852.9,1518,15.0,11.8,81,10.24,101,3.1,301.5,332.0,303.4
852.3,1523,15.0,11.8,81,10.26,103,3.2,301.6,332.1,303.4
851.7,1529,14.9,11.8,82,10.26,104,3.3,301.6,332.1,303.4
851.2,1535,14.8,11.8,82,10.24,106,3.4,301.6,332.0,303.4
850.6,1540,14.8,11.7,82,10.23,108,3.4,301.6,332.0,303.4
850.0,1546,14.7,11.7,82,10.25,108,3.4,301.6,332.1,303.4
849.4,1552,14.7,11.8,83,10.27,111,3.6,301.6,332.1,303.4
848.8,1558,14.6,11.8,83,10.29,113,3.7,301.6,332.2,303.4
848.2,1564,14.6,11.9,84,10.35,114,3.8,301.6,332.4,303.4
847.6,1571,14.5,12.0,85,10.46,116,3.9,301.6,332.7,303.5
846.9,1577,14.5,12.0,85,10.47,117,4.0,301.6,332.7,303.5
846.3,1583,14.4,11.9,85,10.39,119,4.1,301.6,332.5,303.5
845.7,1589,14.3,11.8,85,10.35,120,4.2,301.6,332.4,303.4
845.0,1596,14.2,11.9,86,10.45,122,4.3,301.6,332.6,303.5
844.3,1603,14.2,12.2,88,10.67,123,4.4,301.6,333.3,303.5
843.6,1610,14.1,12.5,90,10.83,125,4.5,301.5,333.7,303.5
842.9,1617,14.0,12.5,91,10.88,126,4.6,301.5,333.9,303.5
842.2,1625,13.9,12.5,91,10.88,127,4.7,301.5,333.8,303.5
841.4,1632,13.8,12.4,91,10.79,129,4.8,301.5,333.5,303.4
840.6,1640,13.8,12.2,90,10.71,130,4.8,301.5,333.3,303.4
839.9,1648,13.7,12.3,91,10.76,131,4.9,301.5,333.5,303.5
839.1,1655,13.6,12.3,92,10.79,133,5.0,301.5,333.6,303.5
838.4,1663,13.5,12.3,92,10.76,134,5.1,301.5,333.5,303.4
837.7,1670,13.5,12.3,92,10.78,135,5.2,301.5,333.5,303.5
837.0,1677,13.4,12.5,94,10.92,136,5.3,301.5,333.9,303.5
836.3,1684,13.4,12.7,96,11.14,137,5.4,301.5,334.6,303.6
835.7,1690,13.3,13.1,98,11.39,138,5.4,301.6,335.4,303.6
835.1,1696,13.3,13.1,99,11.41,139,5.5,301.6,335.4,303.6
834.5,1702,13.2,12.8,97,11.22,140,5.6,301.6,334.9,303.6
833.9,1708,13.1,12.6,96,11.05,141,5.7,301.5,334.4,303.5
833.4,1713,13.1,12.5,96,10.99,142,5.7,301.5,334.2,303.5
832.8,1719,13.0,12.5,96,10.97,143,5.8,301.5,334.1,303.5
832.2,1725,13.0,12.5,97,10.98,144,5.9,301.5,334.2,303.5
831.6,1732,12.9,12.5,97,10.99,144,5.9,301.5,334.2,303.5
830.9,1738,12.9,12.5,97,11.00,145,6.0,301.5,334.2,303.5
830.3,1744,12.8,12.5,98,11.01,145,6.1,301.6,334.3,303.6
829.7,1751,12.8,12.5,98,11.03,145,6.1,301.6,334.4,303.6
829.1,1757,12.9,12.5,97,11.06,146,6.2,301.8,334.7,303.8
828.4,1763,13.0,12.5,97,11.08,146,6.2,301.9,334.9,303.9
827.8,1770,12.9,12.5,98,11.10,146,6.3,301.9,334.9,303.9
827.2,1776,12.8,12.6,99,11.12,146,6.3,301.9,334.9,303.9
826.6,1782,12.7,12.5,99,11.11,146,6.4,301.8,334.9,303.9
825.9,1789,12.7,12.5,99,11.09,146,6.4,301.9,334.8,303.9
825.3,1795,12.6,12.5,99,11.07,146,6.5,301.9,334.8,303.9
824.7,1802,12.6,12.4,99,11.05,146,6.5,301.9,334.8,303.9
824.0,1808,12.6,12.3,98,11.00,145,6.6,302.0,334.7,304.0
823.4,1815,12.6,12.2,98,10.94,145,6.6,302.0,334.6,304.0
822.8,1821,12.6,12.1,97,10.85,145,6.7,302.1,334.4,304.1
822.2,1827,12.6,12.1,97,10.84,145,6.7,302.1,334.5,304.1
821.5,1834,12.5,12.1,98,10.90,144,6.7,302.2,334.6,304.2
820.9,1840,12.5,12.1,98,10.91,144,6.8,302.2,334.7,304.2
820.3,1846,12.4,12.1,98,10.87,144,6.8,302.2,334.6,304.2
819.7,1852,12.4,12.0,98,10.85,143,6.8,302.2,334.6,304.2
819.1,1858,12.4,12.1,98,10.89,143,6.9,302.3,334.7,304.2
818.6,1864,12.3,12.2,99,10.95,143,6.9,302.3,334.9,304.3
818.0,1870,12.3,12.2,100,11.00,142,6.9,302.3,335.1,304.3
817.5,1876,12.2,12.2,100,11.01,142,6.9,302.3,335.1,304.3
816.9,1881,12.2,12.2,100,11.00,142,7.0,302.4,335.1,304.4
816.4,1887,12.3,12.3,100,11.05,142,7.0,302.4,335.4,304.4
815.9,1892,12.3,12.3,100,11.06,141,7.0,302.5,335.5,304.5
815.3,1897,12.2,12.2,100,11.04,141,7.0,302.5,335.4,304.5
