PRES,HGHT,TEMP,DWPT,RELH,MIXR,DRCT,SPED,THTA,THTE,THTV
1017.0,31,25.7,19.6,69,14.27,41,2.4,297.4,338.9,300.0
1016.7,34,25.7,19.3,68,13.96,36,1.5,297.4,338.1,299.9
1016.1,38,24.6,19.3,72,13.96,32,1.2,296.4,336.8,298.8
1015.4,44,24.1,19.2,74,13.90,30,1.2,295.9,336.1,298.4
1014.9,49,24.0,19.1,74,13.83,30,1.3,295.9,335.9,298.3
1014.2,55,24.0,18.9,73,13.69,31,1.5,295.9,335.5,298.4
1013.5,61,24.0,18.8,73,13.58,31,1.6,296.0,335.3,298.4
1012.9,66,23.9,18.7,72,13.50,32,1.7,296.0,335.0,298.4
1012.3,71,23.9,18.5,72,13.39,32,1.9,296.0,334.8,298.4
1011.7,76,23.8,18.5,72,13.33,32,2.0,296.0,334.6,298.4
1011.2,81,23.5,18.3,72,13.17,33,2.1,295.7,333.8,298.0
1010.7,85,23.3,18.2,73,13.15,33,2.2,295.5,333.5,297.9
1010.2,89,23.2,18.3,74,13.17,33,2.2,295.5,333.6,297.9
1009.8,93,23.2,18.3,74,13.18,34,2.3,295.5,333.6,297.9
1009.3,97,23.2,18.2,74,13.16,34,2.4,295.5,333.5,297.9
1008.9,101,23.1,18.2,74,13.13,35,2.5,295.5,333.5,297.9
1008.4,105,23.1,18.2,74,13.12,36,2.5,295.5,333.4,297.9
1007.9,109,23.1,18.1,74,13.11,36,2.5,295.5,333.4,297.9
1007.4,114,23.0,18.2,74,13.13,37,2.6,295.5,333.5,297.9
1006.8,118,23.0,18.2,74,13.13,38,2.6,295.6,333.5,297.9
1006.3,123,22.9,18.2,75,13.15,39,2.6,295.5,333.5,297.9
1005.7,129,22.9,18.2,75,13.19,40,2.6,295.5,333.6,297.9
1005.1,134,22.8,18.2,75,13.21,41,2.6,295.5,333.7,297.9
1004.4,139,22.8,18.2,75,13.23,42,2.6,295.6,333.8,297.9
1003.8,145,22.8,18.2,76,13.25,43,2.5,295.6,333.9,297.9
1003.2,150,22.8,18.2,76,13.25,44,2.5,295.6,333.9,298.0
1002.6,155,22.7,18.2,75,13.20,46,2.5,295.7,333.8,298.0
1002.0,161,22.7,18.1,75,13.16,47,2.5,295.7,333.7,298.0
1001.4,166,22.7,18.1,75,13.19,48,2.4,295.7,333.8,298.1
1000.9,171,22.6,18.2,76,13.23,50,2.4,295.7,333.9,298.0
1000.3,176,22.6,18.2,77,13.28,51,2.3,295.7,334.0,298.0
1000.0,178,22.5,18.2,77,13.30,52,2.3,295.7,334.1,298.0
999.7,181,22.5,18.3,77,13.33,52,2.3,295.7,334.2,298.0
999.1,186,22.5,18.3,77,13.36,54,2.3,295.7,334.3,298.1
998.5,191,22.4,18.3,77,13.37,55,2.3,295.7,334.3,298.1
997.9,196,22.4,18.3,78,13.34,56,2.2,295.7,334.2,298.1
997.3,202,22.3,18.2,77,13.28,57,2.2,295.7,334.1,298.0
996.6,207,22.3,18.1,77,13.26,58,2.2,295.7,334.0,298.1
996.0,213,22.2,18.2,78,13.29,59,2.2,295.7,334.1,298.1
995.3,219,22.3,18.2,78,13.33,59,2.2,295.8,334.3,298.2
994.6,225,22.2,18.2,78,13.31,60,2.2,295.8,334.3,298.2
993.9,231,22.2,18.1,78,13.29,60,2.2,295.8,334.3,298.2
993.2,237,22.2,18.2,78,13.35,61,2.2,295.9,334.5,298.3
992.5,243,22.1,18.2,78,13.35,61,2.2,295.9,334.5,298.3
991.8,249,21.9,18.1,79,13.28,61,2.3,295.8,334.1,298.1
991.2,255,21.8,18.0,79,13.24,61,2.3,295.7,334.0,298.1
990.5,261,21.8,18.0,79,13.26,61,2.3,295.7,334.0,298.1
989.9,266,21.8,18.1,80,13.34,61,2.3,295.8,334.4,298.2
989.3,272,21.7,18.0,79,13.27,61,2.4,295.8,334.2,298.2
988.7,277,21.6,18.0,80,13.22,61,2.4,295.7,333.9,298.1
988.2,282,21.6,18.0,80,13.25,61,2.4,295.7,334.0,298.1
987.6,286,21.5,18.0,81,13.30,61,2.5,295.7,334.1,298.1
987.1,291,21.5,18.0,81,13.31,62,2.5,295.7,334.2,298.1
986.6,295,21.5,18.0,81,13.31,62,2.5,295.8,334.2,298.1
986.2,299,21.5,18.1,81,13.35,62,2.6,295.8,334.4,298.1
985.7,304,21.4,18.1,81,13.40,63,2.6,295.8,334.5,298.2
985.2,308,21.3,18.1,82,13.34,63,2.6,295.7,334.3,298.1
984.7,312,21.2,18.0,82,13.29,64,2.6,295.6,334.0,298.0
984.2,317,21.1,17.9,82,13.25,65,2.6,295.6,333.8,297.9
983.7,321,21.0,17.9,82,13.19,66,2.6,295.5,333.6,297.9
983.1,326,21.0,17.8,82,13.16,66,2.7,295.5,333.5,297.9
982.6,331,20.9,17.8,82,13.18,68,2.7,295.5,333.6,297.9
982.1,335,20.9,17.9,83,13.21,69,2.7,295.5,333.7,297.9
981.5,340,20.8,17.9,83,13.26,70,2.7,295.5,333.8,297.9
981.0,345,20.8,18.0,84,13.31,71,2.7,295.5,333.9,297.9
980.5,349,20.7,18.0,85,13.35,72,2.7,295.5,334.0,297.9
980.0,353,20.6,18.0,85,13.33,73,2.7,295.5,333.9,297.8
979.5,358,20.6,17.9,85,13.31,75,2.7,295.5,333.9,297.9
979.1,362,20.6,17.9,85,13.29,76,2.7,295.5,333.9,297.9
978.6,366,20.6,17.9,85,13.26,77,2.7,295.5,333.8,297.9
978.1,371,20.5,17.8,84,13.20,78,2.7,295.5,333.6,297.9
977.6,375,20.5,17.7,84,13.14,79,2.7,295.5,333.5,297.9
977.1,380,20.5,17.6,84,13.08,80,2.7,295.5,333.3,297.9
976.6,384,20.4,17.5,83,12.99,81,2.7,295.6,333.1,297.9
976.1,388,20.4,17.5,83,12.96,82,2.8,295.6,333.0,297.9
975.6,393,20.4,17.5,84,13.02,83,2.8,295.6,333.2,297.9
975.1,397,20.3,17.6,85,13.11,84,2.8,295.6,333.4,297.9
974.6,401,20.2,17.7,85,13.20,85,2.8,295.6,333.7,297.9
974.1,406,20.2,17.7,86,13.22,86,2.9,295.6,333.7,297.9
973.7,410,20.2,17.7,86,13.22,86,2.9,295.6,333.7,297.9
973.2,414,20.1,17.7,86,13.17,87,2.9,295.6,333.6,297.9
972.7,418,20.1,17.6,85,13.09,88,2.9,295.6,333.4,297.9
972.2,423,20.1,17.5,85,13.04,89,3.0,295.6,333.2,297.9
971.8,427,20.0,17.5,85,13.03,89,3.0,295.6,333.2,297.9
971.3,431,20.0,17.5,85,13.04,90,3.0,295.6,333.3,297.9
970.8,435,20.0,17.5,86,13.07,91,3.0,295.6,333.3,297.9
970.3,440,19.9,17.5,86,13.11,92,3.1,295.6,333.5,297.9
969.8,444,19.9,17.5,86,13.11,93,3.1,295.6,333.5,297.9
969.2,449,19.8,17.5,86,13.05,94,3.1,295.6,333.3,297.9
968.7,454,19.8,17.3,86,12.96,96,3.1,295.6,333.1,297.9
968.1,460,19.8,17.2,85,12.83,97,3.1,295.7,332.7,297.9
967.5,465,19.8,16.9,84,12.65,99,3.1,295.7,332.3,297.9
967.0,470,19.8,16.8,83,12.53,100,3.1,295.7,332.0,298.0
966.4,474,19.8,16.7,82,12.47,102,3.1,295.8,331.9,298.0
965.9,479,19.7,16.7,83,12.49,104,3.1,295.8,331.9,298.0
965.4,484,19.7,16.7,83,12.49,106,3.1,295.8,332.0,298.1
964.9,488,19.7,16.6,82,12.44,108,3.1,295.9,331.9,298.1
964.4,492,19.7,16.5,82,12.36,110,3.1,295.9,331.7,298.1
963.9,497,19.7,16.5,81,12.32,112,3.1,296.0,331.7,298.2
963.5,501,19.7,16.5,82,12.33,114,3.1,296.0,331.7,298.2
963.0,505,19.7,16.5,82,12.36,116,3.1,296.0,331.8,298.2
962.6,509,19.7,16.5,82,12.37,118,3.1,296.0,331.8,298.2
962.1,513,19.7,16.5,82,12.34,120,3.1,296.1,331.8,298.2
961.7,517,19.6,16.4,81,12.28,122,3.1,296.1,331.6,298.3
961.2,521,19.6,16.3,81,12.22,124,3.1,296.1,331.5,298.3
960.8,525,19.6,16.2,81,12.15,125,3.1,296.2,331.4,298.3
960.3,529,19.6,16.1,80,12.10,126,3.1,296.2,331.3,298.4
959.8,534,19.6,16.1,80,12.08,128,3.2,296.2,331.3,298.4
959.4,538,19.6,16.1,80,12.05,128,3.2,296.3,331.2,298.4
958.9,542,19.6,16.0,80,12.00,129,3.2,296.3,331.1,298.4
958.4,547,19.6,15.9,79,11.95,129,3.2,296.3,331.0,298.4
957.9,551,19.6,15.9,79,11.91,130,3.2,296.3,330.9,298.5
957.3,556,19.6,15.8,79,11.85,130,3.2,296.4,330.8,298.5
956.8,561,19.5,15.7,79,11.82,129,3.2,296.4,330.7,298.5
956.3,565,19.5,15.7,79,11.81,129,3.2,296.4,330.7,298.5
955.8,570,19.5,15.7,79,11.79,128,3.2,296.4,330.7,298.5
955.2,575,19.4,15.6,79,11.76,127,3.2,296.4,330.6,298.5
954.7,580,19.4,15.6,79,11.75,127,3.2,296.5,330.6,298.5
954.1,585,19.4,15.6,79,11.74,126,3.2,296.5,330.6,298.6
953.5,590,19.3,15.6,79,11.74,125,3.2,296.5,330.6,298.6
953.0,595,19.3,15.5,79,11.73,123,3.2,296.5,330.5,298.6
952.5,600,19.2,15.5,79,11.72,122,3.2,296.5,330.5,298.6
952.0,605,19.2,15.5,79,11.73,121,3.2,296.5,330.5,298.6
951.5,609,19.2,15.5,79,11.71,120,3.2,296.5,330.5,298.6
951.0,613,19.1,15.5,79,11.71,119,3.3,296.5,330.5,298.6
950.6,617,19.1,15.5,80,11.73,118,3.3,296.5,330.6,298.6
950.1,622,19.1,15.5,80,11.74,117,3.3,296.5,330.6,298.6
949.6,626,19.0,15.5,80,11.74,117,3.3,296.5,330.6,298.6
949.1,630,19.0,15.5,80,11.73,116,3.3,296.5,330.6,298.6
948.7,635,19.0,15.5,80,11.72,116,3.3,296.5,330.6,298.6
948.2,639,18.9,15.4,80,11.71,116,3.2,296.6,330.6,298.6
947.7,643,18.9,15.4,80,11.65,116,3.2,296.6,330.4,298.6
947.2,648,18.9,15.3,80,11.61,116,3.2,296.6,330.3,298.6
946.7,652,18.8,15.2,80,11.58,116,3.2,296.6,330.2,298.6
946.2,657,18.8,15.3,80,11.59,117,3.2,296.6,330.3,298.7
945.7,661,18.8,15.3,80,11.65,118,3.2,296.6,330.4,298.7
945.2,666,18.7,15.3,81,11.67,119,3.2,296.6,330.5,298.7
944.7,671,18.7,15.3,81,11.67,120,3.2,296.6,330.5,298.7
944.2,675,18.6,15.3,81,11.67,121,3.2,296.6,330.5,298.7
943.6,680,18.6,15.3,81,11.64,122,3.2,296.6,330.4,298.7
943.1,685,18.5,15.2,81,11.63,124,3.2,296.6,330.4,298.7
942.5,691,18.5,15.3,82,11.64,125,3.2,296.6,330.4,298.7
941.9,696,18.4,15.3,82,11.66,126,3.1,296.6,330.5,298.7
941.2,702,18.4,15.3,82,11.68,128,3.1,296.6,330.5,298.7
940.5,708,18.3,15.3,82,11.67,129,3.1,296.6,330.5,298.7
939.9,715,18.2,15.2,82,11.62,130,3.1,296.6,330.4,298.7
939.2,721,18.2,15.1,82,11.55,131,3.1,296.6,330.2,298.7
938.5,727,18.1,15.0,82,11.47,133,3.1,296.6,330.0,298.7
937.9,733,18.1,14.9,82,11.44,134,3.1,296.6,329.9,298.7
937.3,738,18.1,14.9,82,11.46,134,3.1,296.6,330.0,298.7
936.7,743,18.0,15.0,82,11.51,135,3.1,296.7,330.1,298.7
936.2,748,18.0,15.0,83,11.55,136,3.1,296.7,330.3,298.7
935.7,753,17.9,15.0,83,11.56,136,3.0,296.7,330.3,298.7
935.2,758,17.9,15.0,83,11.56,137,3.0,296.7,330.3,298.7
934.7,762,17.9,15.0,83,11.53,137,3.0,296.7,330.2,298.7
934.2,766,17.8,14.9,83,11.50,137,3.0,296.7,330.1,298.7
933.8,770,17.8,14.9,83,11.49,137,2.9,296.7,330.1,298.7
933.3,774,17.7,14.9,84,11.51,137,2.9,296.7,330.1,298.7
932.9,778,17.7,15.0,84,11.53,136,2.9,296.7,330.2,298.7
932.5,782,17.7,15.0,84,11.57,136,2.8,296.7,330.3,298.8
932.0,787,17.7,15.0,84,11.58,136,2.8,296.7,330.4,298.8
931.6,791,17.6,15.0,85,11.58,136,2.8,296.7,330.4,298.8
931.1,795,17.6,15.0,85,11.56,136,2.7,296.7,330.4,298.8
930.6,799,17.5,15.0,85,11.56,136,2.7,296.7,330.3,298.8
930.1,804,17.5,14.9,85,11.55,136,2.7,296.7,330.3,298.8
929.6,809,17.5,14.9,85,11.55,136,2.6,296.7,330.3,298.8
929.1,813,17.4,14.9,85,11.54,136,2.6,296.7,330.3,298.8
928.6,818,17.4,14.9,85,11.52,137,2.6,296.7,330.3,298.8
928.1,823,17.4,14.8,85,11.50,137,2.5,296.8,330.2,298.8
927.6,827,17.3,14.8,85,11.49,138,2.5,296.8,330.2,298.8
927.1,832,17.3,14.8,85,11.47,139,2.5,296.8,330.2,298.8
926.6,837,17.3,14.7,85,11.43,140,2.4,296.8,330.1,298.9
926.1,841,17.3,14.6,85,11.38,141,2.4,296.8,330.0,298.9
925.6,846,17.2,14.6,85,11.36,143,2.4,296.9,329.9,298.9
925.1,850,17.2,14.5,84,11.32,144,2.3,296.9,329.8,298.9
925.0,851,17.2,14.5,84,11.31,146,2.3,296.9,329.8,298.9
924.6,855,17.2,14.5,84,11.27,146,2.3,296.9,329.7,298.9
924.0,860,17.2,14.4,84,11.25,148,2.3,296.9,329.7,298.9
923.4,866,17.1,14.4,84,11.22,150,2.2,297.0,329.6,299.0
922.9,871,17.1,14.3,84,11.17,152,2.2,297.0,329.5,299.0
922.3,876,17.1,14.2,83,11.10,154,2.2,297.0,329.4,299.0
921.8,881,17.1,14.1,83,11.04,156,2.1,297.1,329.2,299.0
921.3,886,17.1,14.0,82,10.99,158,2.1,297.1,329.1,299.1
920.8,890,17.1,14.0,82,10.94,160,2.1,297.1,329.1,299.1
920.3,895,17.1,13.9,82,10.94,162,2.0,297.2,329.1,299.1
919.8,900,17.0,13.9,82,10.93,164,2.0,297.2,329.1,299.2
919.3,904,17.0,13.9,82,10.93,166,1.9,297.2,329.1,299.2
918.8,909,17.0,13.9,82,10.95,168,1.9,297.2,329.2,299.2
918.3,914,17.0,14.0,83,10.98,170,1.9,297.3,329.3,299.2
917.8,918,16.9,14.0,83,11.01,171,1.8,297.3,329.4,299.2
917.3,923,16.9,14.0,83,11.02,173,1.8,297.3,329.4,299.2
916.8,928,16.9,14.0,83,11.01,174,1.7,297.3,329.4,299.3
916.2,933,16.8,13.9,83,10.97,175,1.7,297.3,329.3,299.3
915.7,937,16.8,13.8,82,10.92,176,1.6,297.4,329.2,299.3
915.2,942,16.8,13.8,82,10.87,176,1.6,297.4,329.1,299.3
914.7,947,16.8,13.7,82,10.84,176,1.6,297.4,329.1,299.3
914.2,952,16.7,13.7,82,10.84,176,1.5,297.4,329.1,299.3
913.6,957,16.7,13.7,83,10.87,176,1.5,297.4,329.1,299.4
913.1,962,16.6,13.7,83,10.84,175,1.5,297.4,329.1,299.3
912.6,966,16.6,13.6,82,10.78,174,1.4,297.4,328.9,299.3
912.1,971,16.6,13.4,82,10.68,173,1.4,297.5,328.7,299.4
911.6,976,16.6,13.3,81,10.58,171,1.4,297.5,328.4,299.4
911.2,980,16.6,13.1,80,10.46,169,1.4,297.5,328.1,299.4
910.7,985,16.6,12.9,79,10.30,167,1.4,297.6,327.8,299.5
910.2,989,16.7,12.6,77,10.13,164,1.4,297.7,327.4,299.5
909.7,993,16.8,12.4,76,10.02,162,1.4,297.9,327.2,299.7
909.3,998,16.8,12.4,75,9.99,159,1.5,297.9,327.2,299.7
908.8,1002,16.8,12.4,75,10.01,156,1.5,298.0,327.3,299.7
908.4,1006,16.7,12.4,76,10.04,153,1.5,298.0,327.4,299.8
907.9,1010,16.7,12.5,76,10.08,149,1.6,298.0,327.5,299.8
907.5,1015,16.7,12.6,77,10.12,146,1.6,297.9,327.6,299.8
907.0,1019,16.6,12.6,77,10.13,143,1.7,297.9,327.7,299.8
906.6,1023,16.6,12.5,77,10.12,140,1.7,298.0,327.6,299.8
906.1,1028,16.5,12.5,77,10.10,137,1.8,298.0,327.6,299.8
905.6,1032,16.5,12.5,77,10.08,134,1.8,298.0,327.5,299.8
905.1,1037,16.5,12.4,76,10.02,130,1.9,298.0,327.4,299.8
904.6,1042,16.5,12.2,76,9.95,127,2.0,298.1,327.3,299.9
904.1,1046,16.5,12.1,75,9.89,124,2.0,298.1,327.2,299.9
903.6,1051,16.5,12.0,75,9.83,121,2.1,298.2,327.0,299.9
903.1,1056,16.5,12.0,74,9.77,118,2.2,298.2,326.9,300.0
902.6,1061,16.5,11.9,74,9.74,115,2.3,298.2,326.9,300.0
902.1,1065,16.5,11.9,74,9.73,112,2.4,298.3,326.9,300.0
901.6,1070,16.5,11.9,74,9.75,110,2.4,298.3,327.0,300.1
901.1,1075,16.5,11.9,74,9.77,107,2.5,298.4,327.1,300.1
900.5,1080,16.5,11.8,74,9.70,104,2.6,298.4,326.9,300.2
900.0,1085,16.5,11.4,72,9.48,102,2.7,298.5,326.4,300.2
899.5,1090,16.5,10.9,69,9.16,100,2.8,298.6,325.6,300.2
899.0,1094,16.6,10.4,67,8.86,97,2.9,298.7,324.8,300.3
898.6,1099,16.7,10.0,65,8.61,95,2.9,298.8,324.3,300.3
898.1,1103,16.8,9.5,62,8.35,93,3.0,298.9,323.7,300.4
897.6,1108,16.8,9.1,60,8.08,92,3.1,299.1,323.1,300.5
897.1,1112,16.9,8.7,58,7.88,90,3.2,299.2,322.6,300.6
896.6,1117,17.0,8.3,57,7.71,89,3.3,299.3,322.3,300.7
896.1,1122,17.1,7.9,55,7.48,88,3.3,299.4,321.7,300.8
895.6,1127,17.1,7.3,52,7.17,86,3.4,299.6,321.0,300.9
895.1,1132,17.2,6.4,49,6.75,85,3.5,299.7,319.9,300.9
894.6,1136,17.3,5.4,45,6.30,85,3.5,299.9,318.8,301.0
894.1,1141,17.4,4.5,42,5.90,84,3.6,300.0,317.8,301.1
893.7,1145,17.5,3.7,40,5.59,83,3.7,300.2,317.1,301.2
893.2,1150,17.6,3.1,38,5.35,83,3.7,300.3,316.5,301.3
892.8,1154,17.7,2.5,36,5.14,83,3.8,300.4,316.0,301.3
892.3,1158,17.7,1.5,34,4.78,83,3.8,300.5,315.1,301.4
891.9,1162,17.9,-0.8,28,4.04,83,3.9,300.7,313.1,301.4
891.5,1166,18.1,-4.6,21,3.04,83,4.0,301.0,310.5,301.5
891.1,1171,18.3,-9.1,15,2.16,83,4.0,301.3,308.1,301.6
890.6,1175,18.6,-13.4,10,1.53,83,4.1,301.5,306.5,301.8
890.2,1179,18.8,-16.1,8,1.22,84,4.2,301.8,305.8,302.0
889.8,1183,18.9,-16.1,8,1.23,84,4.2,302.0,306.0,302.2
889.3,1187,19.0,-15.1,9,1.34,85,4.3,302.1,306.4,302.3
888.8,1192,19.0,-14.3,9,1.43,85,4.4,302.1,306.8,302.4
888.4,1196,19.0,-13.9,10,1.47,86,4.4,302.1,306.9,302.4
887.9,1200,19.0,-14.0,10,1.47,86,4.5,302.2,307.0,302.5
887.5,1205,19.0,-14.2,9,1.44,87,4.6,302.3,307.0,302.6
887.1,1209,19.1,-14.7,9,1.38,88,4.6,302.4,306.9,302.7
886.7,1213,19.1,-15.0,9,1.34,88,4.7,302.5,306.9,302.7
886.2,1217,19.1,-14.8,9,1.37,89,4.8,302.5,307.0,302.8
885.8,1221,19.1,-14.4,9,1.42,89,4.9,302.6,307.2,302.9
885.4,1225,19.2,-14.1,9,1.45,90,4.9,302.7,307.4,302.9
885.0,1229,19.2,-14.1,9,1.45,91,5.0,302.7,307.4,303.0
884.5,1233,19.2,-14.3,9,1.43,91,5.0,302.8,307.5,303.0
884.1,1238,19.2,-14.3,9,1.43,91,5.1,302.8,307.5,303.1
883.6,1242,19.2,-14.1,9,1.46,92,5.1,302.9,307.7,303.2
883.1,1247,19.2,-13.8,9,1.49,92,5.1,303.0,307.8,303.2
882.7,1251,19.3,-13.6,10,1.51,92,5.2,303.0,308.0,303.3
882.2,1256,19.3,-13.6,10,1.52,92,5.2,303.1,308.0,303.3
881.7,1260,19.2,-13.6,10,1.52,92,5.2,303.1,308.1,303.4
881.3,1265,19.2,-13.6,10,1.52,92,5.2,303.1,308.1,303.4
880.9,1269,19.2,-13.6,10,1.52,92,5.1,303.2,308.1,303.4
880.4,1273,19.2,-13.5,10,1.53,91,5.1,303.2,308.2,303.5
880.0,1277,19.2,-13.4,10,1.54,91,5.1,303.2,308.2,303.5
879.5,1282,19.2,-13.0,10,1.60,91,5.0,303.2,308.5,303.5
879.1,1286,19.2,-11.9,11,1.75,90,4.9,303.3,309.0,303.6
878.6,1291,19.2,-9.8,13,2.07,89,4.8,303.3,310.0,303.7
878.1,1296,19.2,-7.0,16,2.58,88,4.8,303.4,311.6,303.8
877.5,1302,19.1,-4.6,20,3.11,87,4.7,303.4,313.2,304.0
877.0,1307,19.1,-3.4,21,3.39,86,4.6,303.4,314.1,304.1
876.5,1312,19.1,-2.9,22,3.53,85,4.5,303.5,314.5,304.1
875.9,1317,19.1,-2.6,23,3.62,83,4.4,303.5,314.8,304.2
875.4,1322,19.1,-2.4,23,3.67,82,4.3,303.6,315.0,304.2
874.9,1327,19.1,-2.2,24,3.73,80,4.2,303.6,315.2,304.3
874.5,1331,19.0,-2.0,24,3.78,79,4.1,303.6,315.4,304.3
874.0,1336,19.0,-1.9,24,3.80,77,4.0,303.6,315.5,304.3
873.6,1340,19.0,-1.9,24,3.81,75,3.9,303.7,315.6,304.4
873.1,1345,19.0,-1.9,24,3.82,74,3.8,303.7,315.6,304.4
872.7,1349,19.0,-1.7,24,3.86,72,3.8,303.8,315.8,304.5
872.2,1354,19.1,-1.4,25,3.95,71,3.7,303.9,316.2,304.6
871.7,1358,19.1,-1.1,25,4.04,70,3.7,304.0,316.6,304.7
871.3,1363,19.2,-1.0,25,4.07,68,3.6,304.1,316.8,304.8
870.8,1367,19.2,-1.2,25,4.03,68,3.6,304.1,316.7,304.9
870.3,1372,19.2,-1.3,25,3.99,67,3.5,304.2,316.6,304.9
869.9,1376,19.2,-1.5,25,3.93,66,3.5,304.2,316.5,305.0
869.5,1381,19.2,-1.7,24,3.87,66,3.4,304.3,316.4,305.0
869.1,1385,19.3,-1.8,24,3.85,66,3.4,304.4,316.4,305.1
868.7,1388,19.3,-1.8,24,3.85,66,3.4,304.4,316.5,305.1
868.3,1392,19.3,-1.8,24,3.85,67,3.3,304.4,316.5,305.2
867.9,1396,19.3,-1.8,24,3.85,68,3.3,304.5,316.5,305.2
867.5,1400,19.3,-1.9,24,3.84,69,3.3,304.5,316.6,305.2
867.1,1404,19.3,-2.0,24,3.82,70,3.3,304.6,316.5,305.3
866.7,1408,19.3,-2.0,24,3.81,71,3.3,304.6,316.6,305.3
866.2,1413,19.3,-2.0,24,3.81,72,3.3,304.6,316.6,305.4
865.6,1419,19.2,-2.0,24,3.83,74,3.2,304.7,316.7,305.4
865.0,1424,19.2,-1.9,24,3.83,75,3.2,304.8,316.8,305.5
864.4,1430,19.3,-2.0,24,3.81,77,3.2,304.8,316.8,305.5
863.8,1437,19.3,-2.4,23,3.72,78,3.3,304.9,316.6,305.6
863.2,1443,19.3,-3.0,22,3.56,80,3.3,305.0,316.2,305.7
862.6,1448,19.3,-3.4,21,3.44,81,3.3,305.1,316.0,305.7
862.1,1454,19.4,-3.5,21,3.42,82,3.3,305.2,316.0,305.8
861.6,1459,19.4,-3.5,21,3.42,84,3.3,305.2,316.1,305.9
861.1,1463,19.4,-3.5,21,3.43,84,3.3,305.3,316.1,305.9
860.7,1467,19.4,-3.5,21,3.44,85,3.3,305.3,316.2,306.0
860.3,1471,19.4,-3.5,21,3.44,86,3.3,305.3,316.2,306.0
860.0,1475,19.4,-3.4,21,3.45,86,3.3,305.4,316.3,306.0
859.6,1478,19.3,-3.4,21,3.45,87,3.3,305.4,316.3,306.0
859.3,1482,19.3,-3.4,21,3.45,87,3.3,305.4,316.3,306.1
858.9,1485,19.3,-3.5,21,3.44,87,3.3,305.5,316.4,306.1
858.6,1488,19.3,-3.5,21,3.44,86,3.3,305.5,316.4,306.1
858.3,1492,19.3,-3.4,21,3.46,86,3.3,305.5,316.5,306.2
858.0,1495,19.3,-3.3,21,3.49,86,3.3,305.6,316.6,306.2
857.6,1498,19.3,-3.3,21,3.49,85,3.3,305.6,316.6,306.2
857.3,1502,19.3,-3.4,21,3.46,84,3.2,305.6,316.6,306.3
856.9,1505,19.3,-3.7,21,3.40,84,3.2,305.7,316.4,306.3
856.6,1509,19.3,-4.1,20,3.30,83,3.2,305.7,316.2,306.3
856.2,1513,19.4,-4.5,20,3.20,82,3.2,305.8,315.9,306.4
855.8,1517,19.4,-4.9,19,3.11,81,3.2,305.8,315.7,306.4
855.4,1521,19.4,-5.3,18,3.02,80,3.2,305.9,315.5,306.5
855.0,1525,19.4,-5.7,18,2.92,79,3.2,305.9,315.3,306.5
854.6,1529,19.4,-6.0,17,2.85,78,3.2,306.0,315.1,306.5
854.1,1533,19.4,-6.2,17,2.82,77,3.2,306.0,315.1,306.6
853.7,1538,19.4,-6.2,17,2.81,76,3.2,306.1,315.1,306.6
853.2,1542,19.4,-6.2,17,2.82,76,3.2,306.1,315.1,306.6
852.8,1547,19.4,-6.2,17,2.82,75,3.2,306.1,315.2,306.7
852.3,1552,19.4,-6.1,17,2.85,75,3.3,306.2,315.3,306.7
851.9,1556,19.4,-5.8,18,2.91,75,3.3,306.3,315.6,306.8
851.4,1561,19.4,-5.5,18,2.99,75,3.3,306.3,315.9,306.9
850.9,1566,19.5,-5.2,18,3.06,75,3.4,306.4,316.2,307.0
850.5,1570,19.5,-5.1,19,3.08,75,3.4,306.5,316.3,307.0
850.0,1575,19.5,-5.3,18,3.02,75,3.6,306.6,316.2,307.1
849.6,1579,19.5,-5.6,18,2.96,75,3.6,306.6,316.1,307.2
849.1,1584,19.5,-5.9,17,2.90,76,3.7,306.7,316.0,307.2
848.7,1588,19.5,-6.3,17,2.82,77,3.8,306.7,315.8,307.3
848.3,1592,19.5,-6.7,16,2.74,77,3.9,306.8,315.6,307.3
847.9,1597,19.6,-7.2,16,2.63,78,4.0,306.8,315.3,307.3
847.4,1601,19.6,-7.9,15,2.49,79,4.1,306.9,314.9,307.4
847.0,1606,19.6,-8.6,14,2.36,79,4.2,306.9,314.6,307.4
846.5,1610,19.6,-8.9,14,2.31,80,4.4,307.0,314.5,307.4
846.0,1615,19.6,-8.8,14,2.32,81,4.5,307.1,314.6,307.5
845.6,1620,19.6,-8.7,14,2.35,81,4.6,307.1,314.7,307.5
845.1,1625,19.6,-8.5,14,2.37,82,4.8,307.2,314.9,307.6
844.7,1629,19.6,-8.5,14,2.39,83,5.0,307.2,315.0,307.6
844.2,1633,19.6,-8.4,14,2.40,83,5.1,307.2,315.0,307.7
843.8,1637,19.6,-8.4,14,2.41,84,5.3,307.3,315.1,307.7
843.4,1642,19.5,-8.3,14,2.43,84,5.4,307.3,315.2,307.7
843.0,1646,19.5,-8.2,15,2.45,85,5.6,307.3,315.2,307.7
842.6,1650,19.5,-8.1,15,2.47,85,5.7,307.3,315.3,307.8
842.1,1655,19.4,-8.0,15,2.49,85,5.9,307.3,315.4,307.8
841.6,1660,19.4,-7.9,15,2.50,86,6.0,307.3,315.4,307.8
841.2,1665,19.4,-7.8,15,2.53,86,6.1,307.3,315.5,307.8
840.7,1669,19.3,-7.6,15,2.57,86,6.2,307.3,315.7,307.8
840.2,1674,19.3,-7.4,16,2.62,86,6.3,307.4,315.8,307.9
839.8,1679,19.3,-7.1,16,2.66,86,6.4,307.4,316.0,307.9
839.3,1683,19.3,-6.9,16,2.71,86,6.5,307.4,316.2,307.9
838.9,1688,19.2,-6.6,17,2.77,86,6.6,307.4,316.4,308.0
838.5,1692,19.2,-6.4,17,2.84,86,6.7,307.5,316.6,308.0
838.1,1696,19.2,-6.1,17,2.89,86,6.7,307.5,316.7,308.0
837.7,1700,19.2,-6.0,18,2.92,86,6.8,307.5,316.9,308.0
837.3,1704,19.1,-5.8,18,2.96,85,6.8,307.5,317.0,308.0
