PRES,HGHT,TEMP,DWPT,RELH,MIXR,DRCT,SPED,THTA,THTE,THTV
1011.5,31,26.9,20.0,66,14.75,199,5.1,299.1,342.3,301.7
1009.8,46,26.1,20.3,70,14.99,205,2.7,298.4,342.2,301.1
1009.1,52,25.9,20.3,71,14.98,208,2.4,298.3,342.0,300.9
1008.6,56,25.7,20.2,72,14.96,208,2.5,298.1,341.8,300.8
1007.7,64,25.7,20.3,72,15.01,208,2.7,298.2,342.0,300.9
1007.2,68,25.6,20.3,72,15.03,208,2.9,298.2,342.0,300.8
1006.3,76,25.6,20.3,73,15.09,208,3.1,298.2,342.2,300.9
1005.6,82,25.5,20.3,73,15.12,207,3.3,298.2,342.3,300.9
1004.8,89,25.3,20.3,74,15.07,207,3.5,298.0,342.0,300.7
1004.0,96,24.9,20.0,74,14.86,207,3.6,297.8,341.0,300.4
1003.2,103,25.0,19.9,74,14.78,207,3.8,297.9,340.9,300.5
1002.3,111,25.4,20.0,72,14.87,207,3.9,298.4,341.8,301.0
1001.5,118,25.3,19.9,72,14.78,207,4.1,298.4,341.5,301.0
1000.6,126,25.2,19.8,72,14.72,207,4.2,298.3,341.3,300.9
1000.0,131,25.2,19.9,72,14.74,207,4.2,298.3,341.4,301.0
999.7,134,25.2,19.9,72,14.75,207,4.3,298.3,341.4,301.0
998.8,142,25.2,20.1,73,14.98,207,4.5,298.4,342.1,301.1
997.9,150,24.9,20.2,75,15.10,207,4.6,298.2,342.2,300.9
996.9,158,24.6,20.3,77,15.20,207,4.7,298.0,342.3,300.7
995.9,167,24.3,20.3,78,15.20,207,4.8,297.8,342.0,300.5
994.9,177,24.1,20.2,79,15.14,207,4.8,297.7,341.7,300.4
993.8,186,24.1,20.2,79,15.15,207,4.9,297.8,341.9,300.5
992.7,196,24.1,20.2,79,15.19,208,5.0,297.9,342.1,300.6
991.6,206,23.9,20.1,79,15.13,208,5.0,297.8,341.9,300.5
990.5,216,23.8,20.1,80,15.11,208,5.1,297.7,341.7,300.4
989.3,226,23.7,20.1,81,15.18,209,5.1,297.7,341.9,300.4
988.2,236,23.3,19.9,81,14.94,209,5.1,297.5,340.9,300.1
987.0,246,23.0,19.6,81,14.69,210,5.1,297.2,339.9,299.9
985.9,256,23.0,19.7,81,14.79,211,5.1,297.4,340.4,300.0
984.7,267,23.1,19.8,82,14.92,212,5.1,297.5,340.9,300.2
983.6,276,22.8,19.6,82,14.79,213,5.1,297.3,340.3,300.0
982.5,286,22.7,19.6,83,14.78,214,5.1,297.3,340.3,300.0
981.4,296,22.7,19.6,83,14.82,215,5.1,297.4,340.5,300.1
980.3,305,22.6,19.6,83,14.82,216,5.1,297.5,340.5,300.1
979.3,315,22.6,19.7,83,14.87,218,5.0,297.6,340.8,300.2
978.2,325,22.6,19.5,83,14.76,219,5.0,297.6,340.6,300.2
977.0,335,22.6,19.4,82,14.65,220,5.0,297.7,340.4,300.3
975.9,345,22.6,19.1,81,14.42,222,5.0,297.8,339.9,300.4
974.7,356,22.8,18.8,78,14.12,223,4.9,298.1,339.3,300.6
973.5,366,22.9,18.5,76,13.93,225,4.9,298.3,339.0,300.8
972.3,377,22.9,18.4,76,13.82,226,4.9,298.4,338.8,300.9
971.1,388,22.7,18.2,76,13.63,228,4.9,298.3,338.1,300.7
969.9,399,22.4,17.8,75,13.38,229,4.9,298.1,337.2,300.5
968.7,409,22.3,17.9,76,13.43,230,4.9,298.1,337.4,300.5
967.6,420,22.1,17.8,77,13.38,231,4.8,298.1,337.1,300.5
966.4,431,22.0,17.8,77,13.37,233,4.8,298.0,337.1,300.4
965.2,441,21.9,17.9,78,13.46,233,4.8,298.0,337.3,300.4
964.1,452,21.8,18.0,79,13.60,234,4.8,298.0,337.7,300.5
962.9,462,21.6,18.1,81,13.69,235,4.8,297.9,337.9,300.4
961.7,473,21.4,18.2,82,13.79,235,4.8,297.8,338.0,300.3
960.5,483,21.3,18.2,82,13.81,236,4.8,297.8,338.1,300.3
959.4,494,21.2,18.0,82,13.64,236,4.8,297.8,337.6,300.3
958.2,504,21.1,17.7,81,13.40,236,4.8,297.9,337.0,300.3
957.1,515,21.1,17.4,80,13.17,236,4.9,297.9,336.3,300.3
956.0,525,20.9,17.4,80,13.23,236,4.9,297.9,336.5,300.2
954.8,535,20.8,17.9,84,13.67,235,4.9,297.9,337.7,300.3
953.7,545,20.6,18.5,88,14.17,235,4.9,297.8,339.0,300.3
952.6,555,20.4,18.5,89,14.22,234,5.0,297.7,339.1,300.2
951.5,565,20.4,18.2,87,13.97,234,5.0,297.7,338.4,300.2
950.4,575,20.4,17.9,86,13.74,233,5.1,297.8,337.8,300.2
949.3,585,20.3,17.8,86,13.64,233,5.1,297.8,337.6,300.3
948.2,595,20.3,17.8,86,13.67,232,5.2,297.9,337.8,300.4
947.2,605,20.2,17.9,87,13.79,232,5.3,298.0,338.2,300.4
946.1,615,20.2,18.1,88,13.95,232,5.3,298.0,338.7,300.5
945.1,624,20.1,18.2,89,14.03,231,5.4,298.0,338.9,300.5
944.1,633,20.0,18.1,89,13.98,231,5.5,298.0,338.7,300.5
943.1,642,19.9,18.0,89,13.87,231,5.6,298.0,338.4,300.5
942.2,651,19.8,17.7,88,13.68,231,5.7,298.0,337.9,300.4
941.2,659,19.7,17.5,87,13.48,231,5.8,298.0,337.3,300.4
940.3,668,19.7,17.3,86,13.37,231,6.0,298.0,337.0,300.4
939.4,676,19.6,17.3,87,13.38,232,6.1,298.1,337.1,300.4
938.5,685,19.6,17.5,88,13.56,232,6.2,298.1,337.6,300.5
937.5,694,19.5,17.8,90,13.82,232,6.4,298.1,338.4,300.6
936.5,703,19.4,17.9,91,13.87,233,6.5,298.1,338.6,300.6
935.5,712,19.3,17.6,90,13.66,233,6.6,298.0,337.9,300.5
934.5,722,19.1,17.4,90,13.53,234,6.7,298.0,337.5,300.4
933.4,732,19.0,17.4,90,13.55,235,6.9,298.0,337.5,300.4
932.3,742,19.0,17.5,91,13.63,235,7.0,298.1,337.8,300.5
931.1,752,19.0,17.6,92,13.74,236,7.1,298.1,338.2,300.6
930.0,763,18.8,17.6,93,13.75,237,7.2,298.0,338.1,300.5
928.8,774,18.6,17.5,93,13.66,237,7.3,298.0,337.9,300.5
927.7,784,18.6,17.3,92,13.49,238,7.4,298.0,337.4,300.4
926.6,795,18.5,17.1,92,13.37,238,7.5,298.0,337.0,300.4
925.5,805,18.4,17.1,92,13.35,239,7.6,298.0,337.0,300.4
925.0,809,18.3,17.1,92,13.38,239,7.6,298.0,337.1,300.4
924.4,815,18.3,17.1,93,13.39,239,7.6,298.1,337.1,300.5
923.4,824,18.2,17.1,93,13.43,239,7.7,298.1,337.3,300.5
922.4,833,18.2,17.1,94,13.46,239,7.7,298.1,337.4,300.5
921.5,842,18.0,17.1,94,13.39,240,7.7,298.1,337.1,300.5
920.5,851,17.9,17.0,94,13.33,240,7.8,298.0,336.9,300.4
919.6,860,17.8,16.9,94,13.29,240,7.8,298.0,336.8,300.4
918.6,869,17.8,16.8,94,13.25,240,7.8,298.0,336.7,300.4
917.6,878,17.7,16.8,95,13.26,239,7.8,298.0,336.7,300.4
916.7,887,17.6,16.9,96,13.33,239,7.8,298.1,336.9,300.4
915.7,896,17.5,16.9,96,13.36,239,7.8,298.1,337.1,300.5
914.7,905,17.4,16.8,96,13.29,238,7.8,298.0,336.8,300.4
913.8,914,17.3,16.8,97,13.28,238,7.8,298.0,336.8,300.4
912.8,923,17.2,16.8,97,13.28,238,7.9,298.0,336.7,300.4
912.0,931,17.1,16.6,97,13.16,237,7.9,298.0,336.4,300.3
911.1,939,17.0,16.4,96,13.01,237,8.0,298.0,335.9,300.3
910.3,946,16.9,16.2,95,12.82,236,8.0,298.0,335.4,300.3
909.6,953,16.9,16.1,95,12.73,236,8.1,298.0,335.2,300.3
909.0,959,16.8,16.3,97,12.94,236,8.2,298.0,335.7,300.3
908.4,965,16.8,16.5,98,13.11,236,8.3,298.0,336.2,300.3
907.8,971,16.7,16.5,99,13.12,235,8.4,298.0,336.3,300.3
907.2,976,16.7,16.4,99,13.07,235,8.6,298.0,336.1,300.3
906.6,982,16.6,16.3,98,12.97,235,8.7,298.0,335.8,300.3
906.0,987,16.6,16.1,97,12.77,235,8.9,298.0,335.3,300.3
905.4,993,16.6,16.0,96,12.75,235,9.1,298.1,335.3,300.3
904.8,999,16.5,16.0,96,12.70,235,9.2,298.1,335.2,300.4
904.2,1004,16.5,15.8,96,12.59,235,9.4,298.1,334.8,300.3
903.6,1010,16.4,15.7,96,12.50,236,9.6,298.1,334.6,300.3
903.0,1016,16.4,15.5,95,12.38,236,9.9,298.1,334.2,300.3
902.4,1021,16.3,15.4,94,12.27,236,10.1,298.1,333.9,300.3
901.9,1026,16.2,15.4,95,12.30,237,10.3,298.0,333.9,300.2
901.3,1032,16.1,15.5,96,12.36,237,10.5,298.0,334.1,300.2
900.8,1037,16.1,15.5,97,12.42,237,10.7,298.0,334.2,300.2
900.3,1042,16.0,15.5,97,12.42,237,10.9,298.0,334.2,300.2
899.8,1046,16.0,15.5,97,12.39,238,11.1,298.0,334.1,300.2
899.3,1050,16.0,15.5,97,12.38,238,11.3,298.0,334.2,300.2
898.9,1055,16.0,15.5,97,12.43,238,11.5,298.0,334.3,300.3
898.4,1059,15.9,15.6,98,12.53,239,11.7,298.1,334.7,300.3
897.9,1064,15.9,15.7,99,12.59,239,11.9,298.1,334.8,300.3
897.4,1068,15.8,15.6,99,12.54,239,12.0,298.0,334.6,300.3
896.9,1073,15.8,15.5,98,12.42,239,12.2,298.1,334.3,300.3
896.4,1078,15.8,15.3,97,12.29,240,12.3,298.1,334.0,300.3
895.9,1083,15.8,15.1,95,12.10,240,12.5,298.1,333.5,300.3
895.4,1088,15.8,14.8,94,11.87,240,12.6,298.2,332.9,300.3
894.9,1092,15.8,14.7,93,11.80,240,12.7,298.2,332.7,300.3
894.4,1097,15.8,14.4,92,11.61,241,12.8,298.3,332.3,300.4
893.9,1102,15.8,13.6,87,11.04,241,12.9,298.4,330.8,300.4
893.3,1108,16.0,13.0,82,10.56,241,13.0,298.6,329.6,300.5
892.8,1113,16.0,12.9,82,10.52,241,13.0,298.7,329.6,300.6
892.2,1118,16.0,13.0,82,10.64,241,13.1,298.7,330.0,300.7
891.6,1124,16.0,13.3,84,10.82,242,13.2,298.8,330.5,300.7
890.9,1130,15.9,13.4,85,10.91,242,13.2,298.7,330.8,300.7
890.3,1137,15.9,13.2,84,10.78,242,13.3,298.8,330.5,300.7
889.6,1144,16.0,13.0,83,10.65,243,13.3,298.9,330.2,300.8
888.8,1150,16.0,13.1,83,10.69,243,13.4,299.0,330.5,301.0
888.1,1158,16.0,13.1,83,10.71,243,13.4,299.1,330.6,301.0
887.3,1165,16.0,12.9,82,10.61,244,13.5,299.2,330.4,301.1
886.5,1173,16.0,12.8,81,10.53,244,13.5,299.3,330.3,301.2
885.7,1180,16.0,12.8,81,10.53,245,13.6,299.3,330.4,301.2
884.9,1188,16.0,12.8,82,10.57,245,13.6,299.4,330.5,301.3
884.1,1196,16.0,12.9,82,10.61,246,13.6,299.5,330.8,301.4
883.3,1203,16.0,12.8,81,10.59,246,13.7,299.6,330.8,301.5
882.6,1211,16.1,12.7,80,10.50,247,13.7,299.7,330.7,301.6
881.9,1217,16.1,12.4,79,10.34,247,13.8,299.8,330.4,301.7
881.2,1224,16.2,12.3,78,10.24,248,13.8,300.0,330.2,301.8
880.5,1231,16.2,12.2,77,10.21,248,13.9,300.1,330.3,301.9
879.8,1237,16.2,12.3,77,10.25,249,13.9,300.2,330.5,302.0
879.2,1244,16.2,12.3,78,10.31,249,14.0,300.2,330.7,302.1
878.5,1250,16.2,12.4,78,10.36,250,14.0,300.3,330.9,302.1
877.9,1256,16.2,12.4,78,10.38,251,14.1,300.3,331.0,302.2
877.2,1263,16.2,12.4,78,10.39,251,14.1,300.4,331.1,302.2
876.5,1269,16.1,12.4,79,10.39,252,14.2,300.4,331.2,302.3
875.9,1275,16.1,12.4,79,10.41,252,14.2,300.4,331.2,302.3
875.3,1281,16.1,12.4,79,10.42,252,14.3,300.4,331.3,302.3
874.7,1287,16.0,12.4,79,10.43,253,14.4,300.4,331.3,302.3
874.1,1293,16.0,12.4,79,10.44,253,14.5,300.5,331.4,302.4
873.5,1299,16.0,12.4,80,10.43,254,14.5,300.5,331.4,302.4
873.0,1304,15.9,12.4,79,10.42,254,14.6,300.5,331.4,302.4
872.4,1309,15.9,12.4,80,10.42,254,14.7,300.6,331.5,302.5
871.9,1314,15.9,12.5,80,10.47,255,14.7,300.6,331.6,302.5
871.4,1319,15.9,12.5,80,10.51,255,14.8,300.6,331.7,302.5
870.9,1324,15.8,12.4,80,10.46,255,14.9,300.6,331.6,302.5
870.4,1329,15.8,12.3,80,10.39,255,14.9,300.6,331.4,302.5
869.9,1333,15.8,12.2,79,10.33,256,15.0,300.7,331.3,302.5
869.5,1338,15.8,12.2,79,10.31,256,15.1,300.7,331.2,302.6
869.0,1343,15.8,12.2,79,10.31,256,15.2,300.7,331.3,302.6
868.6,1347,15.7,12.2,80,10.34,256,15.2,300.7,331.4,302.6
868.1,1351,15.7,12.3,80,10.41,257,15.3,300.8,331.6,302.7
867.7,1355,15.7,12.4,81,10.47,257,15.3,300.8,331.8,302.7
867.3,1359,15.7,12.4,81,10.51,257,15.4,300.8,332.0,302.7
867.0,1363,15.6,12.5,81,10.54,258,15.5,300.8,332.0,302.7
866.5,1367,15.6,12.5,82,10.57,258,15.5,300.8,332.2,302.7
866.1,1371,15.6,12.5,82,10.61,258,15.6,300.8,332.3,302.7
865.7,1375,15.5,12.6,82,10.63,259,15.6,300.8,332.3,302.7
865.2,1380,15.5,12.6,83,10.64,259,15.7,300.8,332.4,302.8
864.7,1385,15.4,12.5,83,10.60,259,15.7,300.8,332.3,302.7
864.2,1390,15.4,12.3,82,10.44,260,15.8,300.8,331.8,302.7
863.6,1395,15.4,11.9,79,10.16,260,15.8,300.9,331.1,302.7
863.1,1401,15.4,11.3,77,9.82,261,15.9,301.0,330.2,302.8
862.6,1406,15.5,10.9,74,9.57,261,16.0,301.1,329.5,302.8
862.1,1411,15.5,10.7,73,9.43,262,16.0,301.1,329.2,302.8
861.6,1415,15.5,10.6,73,9.38,262,16.1,301.2,329.1,302.9
861.1,1420,15.5,10.7,73,9.44,263,16.1,301.2,329.3,302.9
860.7,1425,15.4,10.9,74,9.53,263,16.2,301.2,329.6,302.9
860.2,1429,15.4,10.9,74,9.54,264,16.2,301.3,329.7,303.0
859.8,1433,15.4,10.8,74,9.49,264,16.3,301.3,329.6,303.0
859.3,1438,15.5,10.8,73,9.49,265,16.3,301.4,329.7,303.1
858.9,1442,15.5,10.8,74,9.54,265,16.4,301.5,329.9,303.2
858.5,1446,15.5,10.9,74,9.61,266,16.4,301.5,330.2,303.3
858.1,1450,15.5,11.1,75,9.71,266,16.5,301.5,330.5,303.3
857.7,1454,15.5,11.2,76,9.80,266,16.5,301.5,330.7,303.3
857.4,1457,15.5,11.2,76,9.82,267,16.5,301.6,330.8,303.4
857.0,1460,15.4,11.3,76,9.85,267,16.6,301.6,330.9,303.4
856.7,1464,15.4,11.3,76,9.88,268,16.6,301.6,331.1,303.4
856.4,1467,15.4,11.4,77,9.91,268,16.6,301.6,331.1,303.4
856.1,1470,15.4,11.3,77,9.90,268,16.6,301.6,331.1,303.4
855.7,1473,15.3,11.3,77,9.86,269,16.6,301.6,331.0,303.4
855.4,1476,15.3,11.3,77,9.86,269,16.6,301.6,331.0,303.4
855.1,1479,15.3,11.4,78,9.94,269,16.6,301.6,331.2,303.4
854.8,1482,15.3,11.5,78,10.01,270,16.6,301.6,331.5,303.5
854.6,1485,15.3,11.6,79,10.06,270,16.6,301.6,331.6,303.5
854.3,1488,15.2,11.6,79,10.12,270,16.6,301.7,331.8,303.5
854.0,1491,15.2,11.6,79,10.12,270,16.5,301.7,331.8,303.5
853.7,1494,15.2,11.6,79,10.12,270,16.5,301.7,331.8,303.5
853.4,1497,15.2,11.7,80,10.16,270,16.5,301.7,331.9,303.5
853.1,1500,15.1,11.7,80,10.20,270,16.4,301.7,332.0,303.5
852.7,1503,15.1,11.8,80,10.23,270,16.4,301.7,332.2,303.5
852.4,1507,15.1,11.8,81,10.29,270,16.4,301.7,332.3,303.5
852.0,1510,15.0,11.9,82,10.34,270,16.3,301.7,332.5,303.6
851.6,1514,15.0,11.9,82,10.35,270,16.3,301.7,332.5,303.6
851.3,1518,15.0,11.9,82,10.33,270,16.3,301.7,332.5,303.6
850.9,1521,15.0,11.8,81,10.29,270,16.2,301.7,332.4,303.6
850.6,1524,15.0,11.7,81,10.24,270,16.2,301.8,332.3,303.6
850.3,1527,15.0,11.7,81,10.20,269,16.2,301.8,332.1,303.6
850.0,1531,15.0,11.6,80,10.14,269,16.1,301.8,332.0,303.6
849.7,1533,15.0,11.5,80,10.11,269,16.1,301.8,332.0,303.7
849.5,1536,15.0,11.5,80,10.11,268,16.1,301.9,332.0,303.7
849.2,1539,15.0,11.6,80,10.15,268,16.1,301.9,332.2,303.8
848.9,1542,15.0,11.7,81,10.21,268,16.1,301.9,332.4,303.8
848.5,1545,15.0,11.8,81,10.29,267,16.1,301.9,332.6,303.8
848.2,1549,14.9,12.0,83,10.44,267,16.1,302.0,333.1,303.9
847.8,1553,14.9,12.2,84,10.59,266,16.1,302.0,333.5,303.9
847.4,1557,14.9,12.4,85,10.75,266,16.1,302.0,334.0,304.0
846.9,1562,14.9,12.6,86,10.92,265,16.2,302.0,334.6,304.0
846.4,1567,14.9,12.8,88,11.08,265,16.2,302.1,335.0,304.1
845.8,1572,14.8,12.9,88,11.15,264,16.2,302.1,335.3,304.1
845.2,1578,14.8,13.0,89,11.18,264,16.2,302.1,335.4,304.1
844.7,1584,14.8,13.0,89,11.18,264,16.3,302.1,335.4,304.2
844.1,1590,14.8,12.9,89,11.15,263,16.3,302.2,335.4,304.2
843.6,1595,14.7,12.8,88,11.08,263,16.3,302.2,335.2,304.2
843.1,1600,14.7,12.7,88,11.02,262,16.4,302.2,335.1,304.2
842.6,1605,14.7,12.7,88,11.01,262,16.4,302.3,335.1,304.3
842.2,1609,14.7,12.7,88,11.04,261,16.5,302.3,335.2,304.3
841.8,1613,14.6,12.8,89,11.08,261,16.5,302.3,335.3,304.3
841.4,1617,14.6,12.8,89,11.08,261,16.5,302.3,335.3,304.3
841.1,1620,14.6,12.7,89,11.05,260,16.6,302.3,335.2,304.3
840.7,1624,14.5,12.6,88,11.01,260,16.6,302.3,335.1,304.3
840.4,1627,14.5,12.6,88,10.96,260,16.6,302.3,335.0,304.3
840.0,1631,14.5,12.5,88,10.93,259,16.7,302.4,334.9,304.3
839.7,1634,14.5,12.5,88,10.91,259,16.7,302.4,334.9,304.4
839.3,1638,14.5,12.5,88,10.91,259,16.8,302.4,335.0,304.4
839.0,1641,14.5,12.5,88,10.94,258,16.8,302.5,335.1,304.5
838.6,1645,14.5,12.6,88,10.97,258,16.8,302.5,335.2,304.5
838.3,1649,14.5,12.6,88,10.98,258,16.9,302.5,335.3,304.5
837.9,1652,14.5,12.6,88,10.99,257,16.9,302.6,335.4,304.6
837.5,1656,14.5,12.6,88,11.00,257,16.9,302.6,335.4,304.6
837.1,1660,14.5,12.6,88,10.99,257,17.0,302.6,335.4,304.6
836.8,1663,14.5,12.5,88,10.98,257,17.0,302.6,335.4,304.6
836.5,1667,14.5,12.5,88,10.95,256,17.0,302.7,335.3,304.6
836.2,1670,14.4,12.5,88,10.93,256,17.0,302.7,335.3,304.7
835.9,1673,14.4,12.4,88,10.91,256,17.1,302.7,335.3,304.7
835.6,1675,14.4,12.4,88,10.90,255,17.1,302.7,335.3,304.7
835.4,1678,14.4,12.4,87,10.89,255,17.1,302.8,335.3,304.7
835.1,1680,14.4,12.4,87,10.88,255,17.1,302.8,335.3,304.8
834.9,1683,14.4,12.4,87,10.88,254,17.1,302.8,335.3,304.8
834.6,1685,14.4,12.3,87,10.85,254,17.1,302.8,335.3,304.8
834.4,1688,14.4,12.3,87,10.82,254,17.1,302.8,335.2,304.8
834.1,1690,14.4,12.2,87,10.79,254,17.1,302.9,335.1,304.8
833.8,1693,14.4,12.2,86,10.78,253,17.1,302.9,335.1,304.9
833.5,1696,14.4,12.2,87,10.79,253,17.1,302.9,335.2,304.9
833.2,1700,14.4,12.2,87,10.80,253,17.1,303.0,335.3,304.9
832.7,1704,14.4,12.2,87,10.80,253,17.0,303.0,335.3,305.0
832.3,1709,14.4,12.2,87,10.77,252,17.0,303.0,335.2,305.0
831.7,1715,14.4,12.1,86,10.73,252,17.0,303.1,335.2,305.0
831.2,1721,14.4,12.0,86,10.67,252,16.9,303.1,335.0,305.0
830.6,1727,14.3,11.9,85,10.60,252,16.9,303.1,334.9,305.1
829.9,1733,14.3,11.7,84,10.49,252,16.8,303.2,334.6,305.1
829.4,1739,14.3,11.6,84,10.38,251,16.8,303.2,334.3,305.1
828.8,1745,14.3,11.5,83,10.31,251,16.7,303.3,334.2,305.2
828.3,1750,14.3,11.4,83,10.26,251,16.7,303.3,334.1,305.2
827.8,1755,14.2,11.3,82,10.21,251,16.6,303.3,334.0,305.2
827.3,1760,14.2,11.2,82,10.18,251,16.6,303.4,333.9,305.2
826.9,1764,14.2,11.2,82,10.16,250,16.5,303.4,333.8,305.2
826.5,1768,14.2,11.2,82,10.15,250,16.5,303.4,333.8,305.2
826.2,1772,14.1,11.2,82,10.14,250,16.5,303.4,333.8,305.2
825.8,1775,14.1,11.2,82,10.15,250,16.4,303.4,333.9,305.3
825.4,1779,14.1,11.2,82,10.15,250,16.4,303.4,333.9,305.3
825.1,1783,14.1,11.1,82,10.13,249,16.4,303.4,333.8,305.3
824.7,1786,14.1,11.1,82,10.10,249,16.4,303.5,333.8,305.3
824.4,1790,14.0,11.0,82,10.08,249,16.4,303.5,333.7,305.3
824.0,1794,14.0,11.1,82,10.11,249,16.4,303.5,333.8,305.3
823.5,1799,14.0,11.1,83,10.16,248,16.4,303.5,334.0,305.4
823.1,1803,13.9,11.2,83,10.19,248,16.4,303.5,334.1,305.4
822.6,1808,13.9,11.1,84,10.17,248,16.4,303.5,334.0,305.4
822.2,1812,13.8,11.1,83,10.12,247,16.4,303.5,333.9,305.3
821.7,1817,13.8,10.9,83,10.04,247,16.5,303.5,333.7,305.4
821.3,1822,13.8,10.9,83,10.00,247,16.5,303.5,333.6,305.4
820.9,1826,13.8,10.9,83,10.01,246,16.5,303.6,333.6,305.4
820.4,1830,13.7,10.9,83,10.05,246,16.6,303.6,333.7,305.4
820.0,1835,13.7,11.0,84,10.08,246,16.6,303.6,333.8,305.4
819.6,1839,13.6,11.0,84,10.08,245,16.7,303.6,333.8,305.4
819.2,1844,13.6,10.9,84,10.06,245,16.7,303.6,333.8,305.4
818.7,1848,13.6,10.9,84,10.03,244,16.7,303.6,333.7,305.4
818.3,1853,13.5,10.8,84,10.02,244,16.8,303.6,333.7,305.4
817.8,1857,13.5,10.9,84,10.04,244,16.8,303.6,333.8,305.4
817.3,1862,13.5,10.9,84,10.06,243,16.8,303.6,333.8,305.4
816.8,1867,13.4,10.8,84,10.04,243,16.8,303.6,333.8,305.5
816.3,1873,13.4,10.7,84,9.98,243,16.8,303.6,333.6,305.5
815.8,1878,13.3,10.6,84,9.92,242,16.8,303.6,333.5,305.5
815.3,1884,13.3,10.5,83,9.85,242,16.9,303.7,333.3,305.5
814.7,1889,13.3,10.4,83,9.79,242,16.9,303.7,333.1,305.5
814.2,1895,13.2,10.3,83,9.74,242,16.8,303.7,333.0,305.5
813.7,1900,13.2,10.3,82,9.71,242,16.8,303.7,332.9,305.5
813.2,1905,13.2,10.2,82,9.67,241,16.8,303.7,332.8,305.5
812.8,1909,13.2,10.1,82,9.62,241,16.8,303.8,332.7,305.5
812.3,1914,13.2,10.0,81,9.54,241,16.8,303.8,332.6,305.6
811.9,1918,13.2,9.9,81,9.51,241,16.8,303.9,332.5,305.6
811.5,1923,13.2,9.9,81,9.51,241,16.7,303.9,332.6,305.7
811.1,1927,13.2,9.9,81,9.51,241,16.7,304.0,332.6,305.7
810.7,1932,13.2,9.9,80,9.48,241,16.7,304.0,332.6,305.7
810.2,1936,13.2,9.8,80,9.43,241,16.6,304.1,332.5,305.8
809.8,1941,13.2,9.7,79,9.38,242,16.6,304.1,332.4,305.9
809.3,1946,13.2,9.6,79,9.34,242,16.6,304.2,332.4,305.9
808.9,1950,13.3,9.6,78,9.31,242,16.5,304.3,332.4,306.0
808.4,1955,13.3,9.6,78,9.30,242,16.5,304.3,332.4,306.0
808.0,1960,13.2,9.6,78,9.32,242,16.5,304.4,332.5,306.1
807.5,1964,13.2,9.6,79,9.33,243,16.5,304.4,332.6,306.1
807.1,1969,13.2,9.6,79,9.33,243,16.5,304.4,332.6,306.1
806.6,1974,13.2,9.6,79,9.32,243,16.5,304.5,332.6,306.2
806.2,1978,13.2,9.5,78,9.30,244,16.5,304.5,332.6,306.2
805.8,1983,13.2,9.5,78,9.28,244,16.5,304.5,332.6,306.2
805.3,1987,13.1,9.4,78,9.26,244,16.6,304.6,332.6,306.3
805.0,1991,13.1,9.4,78,9.24,245,16.6,304.6,332.5,306.3
804.6,1995,13.1,9.3,78,9.21,245,16.6,304.6,332.4,306.3
804.2,1999,13.1,9.3,78,9.18,245,16.7,304.6,332.4,306.3
803.8,2003,13.1,9.3,78,9.17,246,16.7,304.6,332.4,306.3
803.4,2007,13.0,9.3,78,9.17,246,16.8,304.7,332.4,306.3
803.0,2011,13.0,9.2,78,9.16,246,16.9,304.7,332.4,306.4
802.6,2016,13.0,9.2,78,9.14,247,16.9,304.7,332.4,306.4
802.2,2020,13.0,9.2,78,9.14,247,17.0,304.7,332.4,306.4
801.8,2024,12.9,9.2,78,9.17,247,17.1,304.7,332.4,306.4
801.4,2028,12.9,9.3,79,9.20,248,17.1,304.7,332.5,306.4
801.0,2033,12.9,9.3,79,9.21,248,17.2,304.7,332.6,306.4
800.5,2037,12.8,9.2,79,9.19,248,17.3,304.7,332.6,306.4
800.1,2042,12.8,9.2,79,9.15,248,17.4,304.7,332.4,306.4
799.7,2046,12.8,9.1,79,9.12,248,17.4,304.8,332.4,306.4
799.2,2051,12.7,9.1,78,9.10,249,17.5,304.8,332.3,306.4
798.8,2056,12.7,9.1,78,9.10,249,17.5,304.8,332.3,306.5
798.4,2060,12.7,9.0,78,9.08,249,17.6,304.8,332.3,306.5
798.0,2064,12.6,9.0,78,9.07,249,17.6,304.8,332.3,306.5
797.5,2069,12.6,8.9,78,9.04,249,17.7,304.8,332.2,306.5
797.1,2073,12.6,8.9,78,9.00,249,17.7,304.8,332.1,306.5
796.7,2077,12.5,8.8,78,8.96,250,17.8,304.8,332.0,306.5
796.3,2082,12.5,8.7,78,8.93,250,17.8,304.9,331.9,306.5
796.0,2086,12.5,8.7,78,8.92,250,17.8,304.9,331.9,306.5
795.6,2090,12.5,8.8,78,8.95,250,17.8,304.9,332.0,306.5
795.2,2094,12.4,8.8,79,8.99,250,17.8,304.9,332.1,306.6
794.8,2098,12.4,8.9,79,9.02,250,17.9,304.9,332.2,306.6
794.4,2103,12.3,8.9,79,9.03,251,17.9,304.9,332.2,306.5
794.0,2107,12.3,8.8,79,9.01,251,17.9,304.9,332.2,306.5
793.6,2111,12.3,8.8,79,8.99,251,17.9,304.9,332.1,306.5
