PRES,HGHT,TEMP,DWPT,RELH,MIXR,DRCT,SPED,THTA,THTE,THTV
1016.3,31,24.4,19.5,74,14.17,65,7.3,296.2,337.2,298.7
1015.5,37,24.7,20.1,76,14.75,68,4.1,296.5,339.2,299.1
1015.0,42,24.0,19.9,78,14.56,69,3.6,295.8,337.9,298.4
1014.5,46,23.6,19.7,79,14.42,69,3.6,295.5,337.1,298.0
1014.0,50,23.4,19.7,79,14.36,69,3.9,295.4,336.8,297.9
1013.5,55,23.4,19.6,79,14.29,69,4.3,295.4,336.6,297.9
1012.6,62,23.3,19.4,79,14.17,68,4.6,295.4,336.3,297.9
1011.7,70,23.2,19.3,79,14.03,68,4.9,295.4,335.8,297.8
1011.0,76,23.1,19.1,78,13.92,68,5.1,295.3,335.4,297.8
1010.3,83,23.0,19.1,79,13.86,68,5.3,295.3,335.2,297.7
1009.5,89,22.9,19.1,79,13.87,68,5.6,295.3,335.3,297.7
1008.8,95,22.9,19.1,79,13.92,67,5.8,295.3,335.4,297.7
1008.1,101,22.9,19.1,79,13.93,67,6.0,295.3,335.5,297.8
1007.5,107,22.8,19.1,79,13.91,67,6.2,295.3,335.5,297.8
1006.8,112,22.8,19.0,79,13.87,67,6.3,295.4,335.4,297.8
1006.2,118,22.7,18.9,79,13.81,67,6.5,295.3,335.2,297.8
1005.6,123,22.6,18.8,79,13.74,67,6.6,295.3,334.9,297.7
1005.1,128,22.5,18.8,79,13.68,66,6.8,295.3,334.7,297.7
1004.5,133,22.5,18.8,79,13.69,66,6.9,295.3,334.7,297.7
1003.9,138,22.4,18.8,80,13.72,66,7.0,295.3,334.8,297.7
1003.4,142,22.4,18.8,80,13.70,66,7.1,295.3,334.8,297.7
1002.8,147,22.3,18.8,80,13.73,66,7.1,295.3,334.8,297.7
1002.2,152,22.3,18.9,81,13.80,66,7.2,295.3,335.0,297.7
1001.7,157,22.2,18.8,81,13.79,66,7.3,295.2,335.0,297.7
1001.1,163,22.2,18.7,81,13.68,66,7.3,295.2,334.7,297.7
1000.5,168,22.1,18.6,81,13.62,65,7.4,295.2,334.5,297.6
1000.0,172,22.1,18.6,81,13.61,65,7.4,295.2,334.5,297.6
999.9,173,22.1,18.6,81,13.61,65,7.5,295.2,334.5,297.6
999.4,177,22.0,18.5,81,13.55,65,7.5,295.2,334.3,297.6
998.8,182,22.0,18.4,80,13.46,65,7.5,295.2,334.0,297.6
998.3,187,21.9,18.3,80,13.39,65,7.6,295.2,333.8,297.6
997.8,191,21.9,18.3,80,13.38,65,7.6,295.2,333.8,297.6
997.3,195,21.9,18.3,80,13.41,65,7.7,295.2,333.9,297.6
996.8,200,21.8,18.4,81,13.46,65,7.7,295.2,334.0,297.6
996.2,205,21.8,18.5,81,13.53,65,7.8,295.2,334.3,297.6
995.7,209,21.7,18.5,82,13.55,65,7.8,295.2,334.3,297.6
995.1,214,21.7,18.3,81,13.44,66,7.9,295.2,334.0,297.6
994.5,220,21.6,18.1,81,13.29,66,7.9,295.2,333.5,297.6
993.9,225,21.6,18.0,80,13.20,66,8.0,295.2,333.3,297.6
993.4,230,21.5,18.0,80,13.17,66,8.0,295.2,333.2,297.6
992.8,235,21.5,18.0,80,13.17,66,8.0,295.2,333.2,297.6
992.3,239,21.4,18.0,81,13.20,66,8.1,295.2,333.3,297.6
991.7,244,21.4,18.1,81,13.25,66,8.1,295.3,333.5,297.6
991.2,249,21.4,18.2,82,13.35,66,8.2,295.3,333.7,297.6
990.6,254,21.3,18.2,83,13.43,67,8.2,295.2,334.0,297.6
990.1,258,21.2,18.2,83,13.44,67,8.2,295.2,334.0,297.6
989.6,263,21.2,18.1,83,13.36,67,8.3,295.2,333.7,297.6
989.0,268,21.2,18.1,83,13.30,67,8.3,295.2,333.6,297.6
988.5,273,21.1,18.1,83,13.32,68,8.3,295.2,333.6,297.6
988.0,277,21.1,18.2,84,13.42,68,8.3,295.2,333.9,297.6
987.4,282,21.0,18.3,84,13.49,68,8.3,295.2,334.1,297.6
986.9,287,21.0,18.3,85,13.51,69,8.3,295.2,334.2,297.6
986.3,292,20.9,18.3,85,13.53,69,8.4,295.2,334.3,297.6
985.8,297,20.9,18.3,85,13.57,69,8.4,295.2,334.3,297.6
985.2,302,20.8,18.3,85,13.53,69,8.4,295.2,334.2,297.6
984.6,307,20.8,18.1,85,13.42,70,8.4,295.2,333.9,297.6
984.0,312,20.7,18.0,84,13.31,70,8.3,295.2,333.6,297.6
983.4,317,20.7,17.9,84,13.26,70,8.3,295.2,333.5,297.6
982.8,323,20.6,17.9,85,13.27,70,8.3,295.2,333.5,297.6
982.2,328,20.6,18.0,85,13.32,71,8.3,295.2,333.6,297.6
981.6,333,20.5,18.0,86,13.36,71,8.2,295.2,333.7,297.6
981.0,339,20.5,18.0,86,13.35,71,8.2,295.2,333.7,297.6
980.4,344,20.4,17.9,86,13.31,71,8.2,295.2,333.6,297.6
979.8,349,20.4,17.9,86,13.28,71,8.1,295.2,333.5,297.6
979.1,355,20.3,17.9,86,13.26,71,8.1,295.3,333.5,297.6
978.5,361,20.3,17.9,86,13.29,71,8.0,295.3,333.6,297.6
977.8,367,20.2,17.9,87,13.33,71,8.0,295.3,333.7,297.6
977.1,373,20.2,17.9,87,13.32,71,7.9,295.3,333.7,297.6
976.4,379,20.1,17.8,87,13.27,71,7.8,295.3,333.5,297.6
975.7,385,20.1,17.7,86,13.19,70,7.8,295.3,333.3,297.6
975.0,391,20.0,17.6,86,13.13,70,7.7,295.3,333.1,297.6
974.4,397,19.9,17.6,86,13.11,70,7.6,295.3,333.1,297.6
973.8,402,19.9,17.6,87,13.12,70,7.5,295.3,333.1,297.6
973.2,407,19.8,17.6,87,13.12,69,7.5,295.3,333.1,297.6
972.7,412,19.8,17.6,87,13.11,69,7.4,295.3,333.0,297.6
972.1,417,19.7,17.6,87,13.10,69,7.3,295.3,333.0,297.6
971.6,422,19.7,17.6,87,13.11,68,7.2,295.3,333.1,297.6
971.1,426,19.7,17.6,88,13.13,68,7.2,295.3,333.1,297.6
970.6,431,19.6,17.6,88,13.12,67,7.1,295.3,333.1,297.6
970.1,435,19.6,17.6,88,13.13,67,7.1,295.3,333.1,297.6
969.6,440,19.5,17.6,88,13.15,67,7.0,295.3,333.2,297.6
969.1,444,19.5,17.6,89,13.17,66,7.0,295.3,333.2,297.6
968.5,449,19.4,17.6,89,13.18,66,6.9,295.3,333.3,297.6
968.0,454,19.4,17.6,89,13.18,65,6.9,295.3,333.3,297.6
967.5,458,19.3,17.6,89,13.18,65,6.9,295.3,333.3,297.6
967.0,463,19.3,17.6,90,13.18,65,6.9,295.3,333.3,297.6
966.5,467,19.3,17.5,90,13.15,65,6.9,295.3,333.2,297.6
966.1,471,19.2,17.5,90,13.12,65,6.9,295.3,333.1,297.6
965.7,475,19.2,17.4,90,13.09,64,6.9,295.3,333.0,297.6
965.2,478,19.2,17.4,90,13.07,64,6.9,295.3,333.0,297.6
964.8,482,19.1,17.4,90,13.09,64,6.9,295.3,333.0,297.6
964.4,486,19.1,17.5,90,13.14,64,7.0,295.3,333.2,297.6
964.0,490,19.0,17.5,91,13.18,64,7.0,295.3,333.3,297.6
963.6,493,19.0,17.5,91,13.19,64,7.0,295.3,333.3,297.6
963.2,497,19.0,17.5,91,13.19,64,7.1,295.2,333.3,297.6
962.7,501,18.9,17.5,92,13.20,65,7.1,295.2,333.3,297.6
962.3,505,18.9,17.5,92,13.22,65,7.2,295.2,333.3,297.6
961.8,509,18.8,17.5,92,13.22,65,7.3,295.2,333.3,297.6
961.4,513,18.8,17.5,92,13.19,65,7.3,295.2,333.3,297.6
960.9,517,18.8,17.4,92,13.16,65,7.4,295.3,333.2,297.6
960.5,521,18.7,17.4,92,13.11,66,7.4,295.3,333.1,297.6
960.0,525,18.7,17.3,92,13.08,66,7.5,295.3,333.0,297.6
959.5,530,18.7,17.3,92,13.06,66,7.6,295.3,332.9,297.6
959.0,534,18.6,17.3,92,13.07,67,7.6,295.3,333.0,297.6
958.6,538,18.6,17.3,92,13.07,67,7.7,295.3,333.0,297.6
958.1,543,18.6,17.3,92,13.06,67,7.7,295.3,333.0,297.6
957.6,547,18.5,17.3,92,13.05,68,7.8,295.3,332.9,297.6
957.1,552,18.5,17.2,92,13.03,68,7.8,295.3,332.9,297.6
956.6,556,18.4,17.2,92,12.97,68,7.9,295.3,332.7,297.6
956.1,561,18.4,17.1,92,12.95,69,7.9,295.3,332.6,297.6
955.6,565,18.4,17.1,92,12.96,69,7.9,295.3,332.7,297.6
955.1,570,18.3,17.1,93,12.98,69,8.0,295.3,332.7,297.6
954.5,575,18.3,17.1,93,12.99,70,8.0,295.3,332.8,297.6
954.0,579,18.2,17.1,93,12.97,70,8.0,295.3,332.7,297.6
953.5,584,18.2,17.1,93,12.93,70,8.1,295.3,332.6,297.6
952.9,589,18.1,17.0,93,12.89,71,8.1,295.3,332.5,297.6
952.4,594,18.1,17.0,93,12.88,71,8.1,295.3,332.5,297.6
951.9,599,18.1,17.0,93,12.90,71,8.2,295.3,332.5,297.6
951.3,603,18.0,17.0,94,12.91,71,8.2,295.3,332.6,297.6
950.8,608,18.0,17.0,94,12.92,72,8.2,295.3,332.6,297.6
950.3,613,17.9,17.0,94,12.94,72,8.3,295.3,332.7,297.6
949.8,617,17.9,17.0,95,12.97,72,8.3,295.3,332.7,297.6
949.3,621,17.8,17.1,95,12.99,72,8.3,295.3,332.8,297.6
948.9,626,17.8,17.0,95,12.97,73,8.3,295.3,332.7,297.6
948.4,630,17.7,17.0,95,12.95,73,8.4,295.3,332.7,297.6
947.9,635,17.7,17.0,95,12.94,73,8.4,295.3,332.7,297.6
947.4,639,17.7,16.9,96,12.93,73,8.5,295.3,332.6,297.6
946.9,644,17.6,16.9,96,12.93,74,8.5,295.3,332.6,297.6
946.4,648,17.6,16.9,96,12.93,74,8.5,295.3,332.6,297.6
945.9,653,17.5,16.9,96,12.93,74,8.6,295.3,332.6,297.6
945.4,657,17.5,16.9,96,12.93,74,8.6,295.4,332.6,297.6
944.9,662,17.5,16.9,96,12.89,75,8.7,295.4,332.6,297.6
944.4,666,17.4,16.8,96,12.83,75,8.7,295.4,332.4,297.6
943.9,671,17.4,16.7,95,12.74,75,8.7,295.4,332.1,297.6
943.4,675,17.4,16.5,95,12.64,75,8.8,295.4,331.9,297.6
942.9,679,17.4,16.4,94,12.57,76,8.8,295.4,331.7,297.6
942.4,684,17.3,16.4,94,12.56,76,8.8,295.4,331.7,297.7
941.9,688,17.3,16.4,95,12.58,76,8.9,295.4,331.8,297.7
941.4,693,17.3,16.4,95,12.60,76,8.9,295.5,331.8,297.7
940.9,698,17.2,16.4,95,12.59,77,8.9,295.5,331.8,297.7
940.4,703,17.2,16.4,95,12.58,77,8.9,295.5,331.8,297.7
939.8,708,17.1,16.4,95,12.56,77,9.0,295.5,331.7,297.7
939.3,713,17.1,16.4,95,12.55,77,9.0,295.5,331.7,297.7
938.7,718,17.0,16.3,95,12.52,78,9.0,295.5,331.6,297.7
938.2,723,17.0,16.2,95,12.45,78,9.0,295.5,331.4,297.7
937.6,728,17.0,16.1,95,12.36,78,9.0,295.5,331.2,297.7
937.1,733,16.9,16.0,94,12.30,78,9.0,295.5,331.1,297.7
936.6,737,16.9,16.0,94,12.31,79,9.0,295.5,331.1,297.7
936.1,742,16.9,16.1,95,12.35,79,9.0,295.6,331.2,297.7
935.6,746,16.8,16.1,95,12.37,79,9.0,295.6,331.3,297.8
935.1,751,16.8,16.0,95,12.34,79,9.0,295.6,331.2,297.8
934.6,755,16.8,15.9,94,12.23,79,9.0,295.6,330.9,297.8
934.2,759,16.8,15.7,93,12.08,79,9.0,295.6,330.5,297.8
933.7,763,16.8,15.5,92,11.95,80,9.0,295.7,330.2,297.8
933.3,768,16.8,15.3,91,11.83,80,9.0,295.7,329.9,297.8
932.8,772,16.8,15.3,91,11.76,80,9.0,295.8,329.8,297.8
932.3,777,16.8,15.2,91,11.76,80,9.1,295.8,329.8,297.9
931.8,781,16.7,15.2,91,11.74,80,9.1,295.8,329.8,297.9
931.3,786,16.7,15.1,91,11.68,80,9.1,295.8,329.6,297.9
930.8,791,16.7,15.0,90,11.61,80,9.1,295.8,329.4,297.9
930.2,796,16.6,15.0,90,11.57,80,9.1,295.8,329.3,297.9
929.6,801,16.6,14.9,90,11.53,80,9.2,295.8,329.2,297.9
929.1,806,16.6,14.8,90,11.49,80,9.2,295.9,329.1,297.9
928.5,811,16.5,14.8,89,11.45,80,9.2,295.9,329.0,297.9
927.9,817,16.5,14.7,89,11.41,81,9.3,295.9,329.0,297.9
927.3,822,16.5,14.7,89,11.39,81,9.3,295.9,328.9,297.9
926.8,827,16.4,14.7,89,11.39,81,9.3,295.9,328.9,298.0
926.2,833,16.4,14.7,89,11.40,81,9.4,296.0,329.0,298.0
925.6,838,16.4,14.7,90,11.41,80,9.4,296.0,329.0,298.0
925.0,844,16.3,14.7,90,11.41,80,9.5,296.0,329.1,298.0
924.5,849,16.3,14.6,90,11.38,80,9.5,296.0,329.0,298.0
923.9,854,16.2,14.5,89,11.31,80,9.5,296.0,328.8,298.0
923.4,859,16.2,14.4,89,11.21,80,9.6,296.0,328.6,298.0
922.9,863,16.2,14.3,88,11.14,80,9.6,296.1,328.4,298.1
922.4,868,16.2,14.2,88,11.13,80,9.6,296.1,328.4,298.1
921.9,872,16.2,14.2,88,11.14,80,9.6,296.1,328.5,298.1
921.4,877,16.1,14.2,88,11.13,80,9.6,296.1,328.5,298.1
921.0,881,16.1,14.2,88,11.10,80,9.7,296.1,328.4,298.1
920.5,885,16.1,14.1,88,11.06,80,9.7,296.2,328.3,298.1
920.1,889,16.1,14.1,88,11.02,80,9.6,296.2,328.2,298.1
919.6,894,16.0,14.1,88,11.06,80,9.6,296.2,328.3,298.1
919.1,898,16.0,14.1,89,11.10,80,9.6,296.2,328.4,298.1
918.7,902,15.9,14.1,89,11.08,80,9.6,296.1,328.3,298.1
918.2,906,15.9,14.0,89,11.01,80,9.6,296.2,328.1,298.1
917.7,911,15.8,13.9,88,10.96,80,9.5,296.2,328.0,298.1
917.3,915,15.8,13.9,88,10.92,79,9.5,296.2,327.9,298.1
916.8,920,15.8,13.8,88,10.91,79,9.4,296.2,327.9,298.1
916.3,924,15.7,13.8,88,10.90,79,9.4,296.2,327.9,298.1
915.8,929,15.7,13.8,88,10.88,79,9.3,296.2,327.8,298.1
915.3,934,15.7,13.7,88,10.83,79,9.3,296.2,327.7,298.1
914.7,939,15.6,13.6,88,10.76,79,9.2,296.2,327.5,298.1
914.2,943,15.6,13.5,87,10.69,79,9.2,296.3,327.3,298.2
913.7,948,15.6,13.4,87,10.64,79,9.1,296.3,327.2,298.2
913.2,953,15.6,13.4,87,10.62,79,9.1,296.3,327.2,298.2
912.7,957,15.5,13.4,87,10.62,79,9.0,296.3,327.2,298.2
912.2,962,15.5,13.4,87,10.63,79,9.0,296.3,327.3,298.2
911.8,966,15.5,13.4,87,10.64,78,8.9,296.3,327.3,298.2
911.3,971,15.5,13.4,87,10.65,78,8.9,296.4,327.3,298.3
910.7,976,15.4,13.4,88,10.66,78,8.8,296.4,327.4,298.3
910.2,981,15.4,13.4,88,10.66,78,8.8,296.4,327.4,298.3
909.6,986,15.3,13.4,88,10.66,78,8.7,296.4,327.4,298.3
909.0,992,15.3,13.3,88,10.64,78,8.7,296.4,327.3,298.3
908.4,997,15.2,13.3,88,10.61,78,8.6,296.4,327.3,298.3
907.9,1003,15.2,13.2,88,10.55,78,8.6,296.4,327.1,298.3
907.3,1008,15.2,13.1,87,10.47,78,8.6,296.4,326.9,298.3
906.8,1013,15.2,13.0,87,10.41,77,8.5,296.5,326.8,298.3
906.3,1018,15.1,12.9,87,10.38,77,8.5,296.5,326.7,298.4
905.8,1022,15.1,12.9,87,10.39,77,8.5,296.5,326.8,298.4
905.3,1027,15.1,13.0,87,10.43,77,8.5,296.6,326.9,298.4
904.8,1032,15.1,13.0,88,10.47,77,8.4,296.6,327.1,298.4
904.3,1036,15.0,13.1,88,10.52,77,8.4,296.6,327.2,298.5
903.8,1041,15.0,13.1,89,10.55,76,8.4,296.6,327.3,298.5
903.2,1046,15.0,13.1,89,10.58,76,8.4,296.6,327.4,298.5
902.7,1051,14.9,13.2,89,10.60,76,8.3,296.6,327.5,298.5
902.1,1057,14.9,13.2,89,10.60,75,8.3,296.6,327.5,298.5
901.5,1062,14.8,13.2,90,10.61,75,8.3,296.6,327.5,298.5
900.9,1068,14.8,13.1,90,10.58,74,8.2,296.7,327.5,298.6
900.3,1074,14.8,13.1,90,10.57,74,8.2,296.7,327.5,298.6
899.7,1079,14.7,13.1,90,10.56,73,8.1,296.7,327.5,298.6
899.1,1085,14.7,13.1,90,10.56,73,8.1,296.7,327.5,298.6
898.5,1091,14.6,13.0,90,10.55,72,8.0,296.7,327.5,298.6
897.9,1096,14.6,13.0,90,10.51,72,8.0,296.8,327.4,298.6
897.4,1101,14.6,12.9,89,10.46,71,7.9,296.8,327.3,298.7
896.8,1107,14.6,12.8,89,10.42,71,7.8,296.8,327.2,298.7
896.3,1112,14.6,12.7,89,10.37,70,7.8,296.9,327.1,298.7
895.8,1117,14.6,12.6,88,10.30,70,7.7,296.9,326.9,298.7
895.2,1122,14.5,12.5,88,10.26,69,7.6,296.9,326.9,298.8
894.7,1127,14.5,12.5,88,10.24,69,7.6,297.0,326.8,298.8
894.2,1132,14.5,12.5,88,10.23,68,7.5,296.9,326.8,298.8
893.7,1136,14.4,12.4,88,10.18,68,7.5,297.0,326.7,298.8
893.2,1141,14.4,12.3,87,10.10,68,7.4,297.0,326.5,298.8
892.7,1146,14.4,12.2,86,10.04,68,7.4,297.0,326.4,298.8
892.2,1150,14.4,12.2,86,10.03,68,7.3,297.1,326.4,298.9
891.7,1155,14.4,12.2,87,10.04,68,7.3,297.1,326.4,298.9
891.2,1160,14.4,12.2,87,10.06,68,7.2,297.1,326.5,298.9
890.7,1165,14.3,12.2,87,10.08,68,7.2,297.1,326.6,298.9
890.1,1170,14.3,12.2,87,10.10,69,7.2,297.2,326.7,299.0
889.6,1175,14.2,12.3,88,10.14,69,7.2,297.2,326.8,299.0
889.0,1181,14.2,12.3,88,10.16,70,7.2,297.2,326.9,299.0
888.4,1186,14.1,12.3,89,10.16,71,7.2,297.2,326.9,299.0
887.8,1192,14.1,12.3,89,10.16,72,7.2,297.2,326.9,299.0
887.2,1198,14.1,12.2,89,10.13,73,7.2,297.2,326.8,299.0
886.6,1204,14.0,12.2,89,10.09,74,7.2,297.2,326.7,299.0
886.0,1209,14.0,12.1,88,10.04,75,7.2,297.2,326.6,299.0
885.5,1214,14.0,11.9,88,9.96,76,7.3,297.3,326.4,299.1
885.0,1219,14.0,11.8,87,9.88,77,7.3,297.3,326.2,299.1
884.5,1224,14.0,11.7,86,9.83,78,7.4,297.4,326.2,299.1
884.0,1229,14.0,11.7,86,9.84,79,7.4,297.4,326.2,299.2
883.5,1233,14.0,11.8,87,9.87,80,7.5,297.5,326.4,299.2
883.0,1238,14.0,11.8,87,9.87,81,7.5,297.5,326.4,299.3
882.5,1242,13.9,11.8,87,9.87,82,7.6,297.5,326.4,299.3
882.0,1247,13.9,11.8,87,9.92,83,7.7,297.5,326.6,299.3
881.5,1252,13.9,11.9,88,10.00,84,7.7,297.5,326.8,299.3
881.0,1257,13.8,12.0,89,10.05,85,7.8,297.6,327.0,299.4
880.5,1262,13.8,12.0,89,10.03,85,7.9,297.6,326.9,299.4
879.9,1267,13.8,11.9,89,10.01,86,7.9,297.6,326.9,299.4
879.4,1272,13.7,12.0,89,10.06,87,7.9,297.6,327.1,299.4
878.9,1277,13.7,12.1,90,10.12,87,8.0,297.6,327.3,299.4
878.4,1282,13.7,12.1,90,10.15,87,8.0,297.6,327.4,299.5
877.9,1287,13.6,12.1,90,10.15,88,8.0,297.7,327.4,299.5
877.4,1292,13.6,12.1,90,10.14,88,8.0,297.7,327.3,299.5
876.9,1297,13.6,12.0,90,10.09,88,8.0,297.7,327.2,299.5
876.4,1302,13.6,11.8,89,9.97,88,8.0,297.7,326.9,299.5
875.9,1306,13.5,11.5,88,9.80,88,8.0,297.8,326.5,299.5
875.4,1311,13.5,11.3,87,9.68,88,7.9,297.8,326.2,299.5
874.9,1316,13.5,11.3,86,9.65,88,7.9,297.8,326.1,299.6
874.4,1320,13.5,11.3,86,9.66,88,7.8,297.9,326.2,299.6
873.9,1325,13.5,11.3,87,9.69,87,7.8,297.9,326.3,299.6
873.4,1330,13.4,11.4,88,9.76,87,7.7,297.9,326.5,299.6
872.9,1335,13.4,11.6,89,9.87,87,7.6,297.9,326.9,299.7
872.3,1341,13.4,11.8,90,10.01,86,7.6,297.9,327.3,299.7
871.7,1347,13.3,11.9,91,10.12,86,7.5,297.9,327.6,299.7
871.1,1352,13.3,11.9,92,10.12,85,7.4,297.9,327.6,299.7
870.5,1358,13.2,11.9,92,10.10,84,7.4,297.9,327.5,299.7
869.9,1364,13.2,11.9,92,10.10,84,7.3,297.9,327.6,299.8
869.3,1370,13.1,11.9,92,10.14,83,7.2,298.0,327.7,299.8
868.7,1375,13.1,12.0,93,10.20,82,7.2,298.0,327.9,299.8
868.2,1381,13.0,12.0,94,10.23,81,7.1,298.0,328.0,299.8
867.6,1386,13.0,12.0,94,10.24,81,7.1,298.0,328.0,299.8
867.1,1391,13.0,12.0,94,10.23,80,7.0,298.0,328.0,299.9
866.6,1396,12.9,12.0,94,10.24,79,7.0,298.0,328.0,299.9
866.1,1401,12.9,12.0,94,10.25,79,7.0,298.0,328.1,299.9
865.7,1405,12.9,12.0,95,10.26,79,7.0,298.1,328.1,299.9
865.2,1410,12.9,12.0,95,10.25,78,7.0,298.1,328.1,299.9
864.7,1415,12.8,12.0,95,10.25,78,7.0,298.1,328.1,299.9
864.2,1419,12.8,12.0,95,10.25,78,7.0,298.1,328.1,299.9
863.7,1424,12.7,12.0,95,10.25,78,7.0,298.1,328.2,300.0
863.2,1429,12.7,12.0,96,10.27,78,7.0,298.1,328.2,300.0
862.7,1434,12.6,12.0,96,10.28,78,7.1,298.1,328.3,300.0
862.2,1440,12.6,12.0,96,10.30,79,7.1,298.1,328.3,299.9
861.6,1445,12.5,12.0,97,10.30,79,7.1,298.1,328.3,299.9
861.0,1450,12.5,12.0,97,10.27,80,7.2,298.1,328.2,299.9
860.5,1456,12.4,11.9,97,10.24,80,7.3,298.1,328.1,299.9
859.9,1461,12.4,11.9,97,10.22,81,7.3,298.1,328.1,300.0
859.4,1467,12.4,11.9,97,10.24,82,7.4,298.1,328.1,300.0
858.8,1472,12.3,11.9,97,10.26,83,7.5,298.1,328.2,300.0
858.3,1478,12.3,11.9,97,10.24,83,7.5,298.2,328.2,300.0
857.7,1483,12.2,11.8,97,10.21,84,7.6,298.2,328.1,300.0
857.2,1488,12.2,11.8,97,10.19,85,7.7,298.2,328.1,300.0
856.6,1494,12.2,11.8,97,10.19,86,7.8,298.2,328.1,300.0
856.1,1499,12.1,11.8,98,10.19,87,7.9,298.2,328.1,300.1
855.6,1503,12.1,11.8,98,10.21,87,7.9,298.2,328.2,300.1
855.1,1508,12.1,11.8,98,10.23,88,8.0,298.3,328.3,300.1
854.7,1513,12.0,11.8,99,10.24,88,8.1,298.3,328.3,300.1
854.2,1517,12.0,11.8,99,10.24,89,8.1,298.3,328.3,300.1
853.7,1522,12.0,11.8,98,10.22,89,8.2,298.3,328.3,300.2
853.3,1527,12.0,11.7,98,10.17,89,8.2,298.3,328.2,300.2
852.8,1531,12.0,11.6,97,10.08,90,8.3,298.4,328.0,300.2
852.4,1536,12.0,11.4,96,9.98,90,8.3,298.4,327.7,300.2
851.9,1540,12.0,11.3,95,9.90,90,8.3,298.5,327.6,300.2
851.4,1545,12.0,11.2,95,9.85,90,8.3,298.5,327.5,300.3
850.9,1550,12.0,11.1,95,9.83,89,8.3,298.6,327.5,300.3
850.4,1555,11.9,11.1,95,9.84,89,8.3,298.6,327.5,300.4
850.0,1559,11.9,11.2,95,9.85,89,8.3,298.6,327.6,300.4
849.9,1560,11.9,11.2,95,9.86,89,8.3,298.6,327.6,300.4
849.3,1565,11.9,11.2,96,9.88,88,8.3,298.6,327.7,300.4
848.8,1571,11.8,11.2,96,9.92,88,8.3,298.6,327.8,300.4
848.3,1576,11.8,11.3,97,9.93,87,8.3,298.6,327.9,300.4
847.7,1581,11.7,11.2,96,9.89,87,8.2,298.7,327.8,300.4
847.2,1587,11.7,11.0,95,9.76,86,8.2,298.7,327.4,300.4
846.7,1592,11.7,10.7,94,9.61,86,8.2,298.7,327.0,300.4
846.1,1597,11.7,10.7,94,9.59,85,8.2,298.8,327.0,300.5
845.6,1602,11.7,10.9,95,9.71,84,8.1,298.8,327.4,300.6
845.1,1607,11.7,11.2,97,9.91,84,8.1,298.8,328.0,300.6
844.6,1612,11.6,11.4,99,10.08,83,8.1,298.8,328.5,300.7
844.1,1617,11.6,11.5,99,10.15,82,8.1,298.8,328.7,300.7
843.6,1622,11.5,11.5,99,10.13,82,8.0,298.9,328.7,300.7
843.1,1627,11.5,11.4,99,10.09,81,8.0,298.9,328.6,300.7
842.6,1632,11.5,11.3,99,10.06,81,8.0,298.9,328.5,300.7
842.1,1637,11.5,11.3,99,10.03,81,8.0,299.0,328.5,300.8
841.6,1643,11.5,11.3,99,10.02,80,8.0,299.0,328.5,300.8
841.0,1648,11.4,11.3,99,10.04,80,8.0,299.0,328.6,300.8
840.4,1654,11.4,11.3,99,10.03,80,8.0,299.1,328.6,300.9
839.9,1660,11.4,11.2,99,10.00,80,8.1,299.1,328.5,300.9
839.3,1665,11.4,11.1,98,9.95,80,8.1,299.1,328.5,300.9
838.7,1671,11.4,11.0,98,9.90,80,8.1,299.2,328.4,301.0
838.2,1676,11.4,11.0,97,9.86,80,8.1,299.2,328.3,301.0
837.7,1681,11.4,10.9,97,9.83,80,8.2,299.3,328.3,301.0
837.2,1687,11.3,10.9,97,9.85,80,8.2,299.3,328.4,301.1
836.6,1692,11.3,11.0,98,9.89,80,8.2,299.3,328.5,301.1
836.1,1697,11.3,11.1,98,9.95,81,8.3,299.4,328.7,301.2
835.5,1703,11.3,11.1,99,9.99,81,8.3,299.4,328.9,301.2
835.0,1709,11.2,11.1,99,9.99,81,8.4,299.4,328.9,301.2
834.4,1714,11.2,11.1,99,9.97,82,8.4,299.4,328.8,301.2
833.8,1720,11.2,11.0,99,9.93,82,8.5,299.5,328.8,301.2
833.2,1726,11.1,10.9,99,9.90,82,8.6,299.5,328.7,301.3
832.6,1732,11.1,10.9,99,9.89,83,8.6,299.5,328.7,301.3
832.0,1738,11.1,10.9,99,9.87,83,8.7,299.6,328.7,301.3
831.4,1744,11.1,10.8,98,9.82,83,8.7,299.6,328.6,301.4
830.9,1750,11.1,10.7,97,9.77,84,8.8,299.7,328.6,301.4
830.3,1755,11.1,10.6,97,9.73,84,8.9,299.7,328.5,301.5
829.8,1761,11.0,10.6,97,9.72,84,8.9,299.8,328.5,301.5
829.2,1766,11.0,10.6,97,9.74,85,9.0,299.8,328.6,301.5
828.7,1771,11.0,10.6,98,9.76,85,9.1,299.8,328.6,301.6
828.2,1777,11.0,10.6,98,9.75,85,9.1,299.8,328.7,301.6
827.7,1782,10.9,10.6,98,9.74,85,9.2,299.8,328.6,301.6
827.2,1787,10.9,10.6,98,9.73,86,9.3,299.8,328.6,301.6
826.6,1792,10.8,10.6,98,9.74,86,9.3,299.8,328.6,301.6
826.1,1797,10.8,10.6,99,9.74,86,9.4,299.9,328.7,301.6
825.7,1802,10.7,10.6,99,9.74,86,9.4,299.9,328.7,301.6
825.2,1807,10.7,10.6,99,9.75,86,9.5,299.9,328.7,301.6
824.7,1812,10.7,10.5,99,9.74,86,9.6,299.9,328.7,301.6
824.2,1817,10.6,10.5,99,9.72,86,9.6,299.9,328.7,301.6
823.7,1822,10.6,10.5,99,9.72,86,9.6,299.9,328.6,301.7
823.2,1827,10.5,10.5,100,9.72,87,9.7,299.9,328.7,301.7
822.7,1832,10.5,10.5,100,9.72,87,9.7,299.9,328.7,301.7
822.2,1837,10.5,10.5,100,9.72,87,9.7,299.9,328.7,301.7
