PRES,HGHT,TEMP,DWPT,RELH,MIXR,DRCT,SPED,THTA,THTE,THTV
1011.5,31,23.9,18.6,72,13.43,30,4.3,296.1,334.9,298.5
1011.0,35,23.7,19.0,75,13.77,25,4.3,295.9,335.8,298.4
1010.4,40,23.5,18.8,75,13.63,22,4.5,295.8,335.2,298.2
1009.6,47,23.3,18.5,75,13.43,22,4.9,295.6,334.4,298.0
1009.1,51,23.1,18.4,75,13.32,22,5.2,295.5,333.9,297.8
1008.7,54,23.1,18.4,75,13.30,22,5.6,295.5,333.9,297.9
1008.3,58,22.9,18.1,74,13.07,22,5.9,295.4,333.1,297.7
1007.6,64,22.9,17.9,74,12.93,21,6.2,295.4,332.7,297.7
1007.0,69,22.8,17.8,74,12.86,21,6.6,295.4,332.5,297.6
1006.4,74,22.7,17.7,73,12.73,21,6.9,295.3,332.1,297.6
1005.9,79,22.7,17.6,73,12.66,21,7.2,295.3,331.9,297.5
1005.2,85,22.6,17.6,73,12.71,21,7.5,295.3,332.0,297.6
1004.6,90,22.6,17.7,74,12.76,20,7.7,295.3,332.2,297.6
1004.0,95,22.5,17.7,74,12.76,20,8.0,295.3,332.2,297.6
1003.4,101,22.5,17.8,75,12.85,20,8.2,295.4,332.4,297.6
1002.8,106,22.5,17.8,75,12.89,20,8.4,295.4,332.6,297.6
1002.2,111,22.4,17.8,75,12.86,19,8.6,295.3,332.5,297.6
1001.6,116,22.3,17.7,75,12.84,19,8.7,295.3,332.4,297.6
1001.0,122,22.3,17.7,75,12.81,19,8.9,295.3,332.3,297.6
1000.4,127,22.2,17.7,76,12.87,18,9.0,295.3,332.5,297.6
1000.0,130,22.2,17.8,76,12.90,18,9.0,295.4,332.6,297.6
999.8,132,22.2,17.8,76,12.91,18,9.1,295.4,332.6,297.7
999.2,137,22.1,17.7,76,12.86,18,9.2,295.4,332.5,297.6
998.6,143,22.1,17.6,76,12.80,17,9.3,295.4,332.3,297.6
998.0,148,22.0,17.5,76,12.70,17,9.3,295.3,332.0,297.6
997.3,154,21.9,17.4,75,12.61,17,9.3,295.3,331.7,297.5
996.7,159,21.8,17.4,76,12.61,17,9.4,295.3,331.7,297.5
996.1,165,21.8,17.4,76,12.69,16,9.4,295.3,331.9,297.5
995.4,170,21.8,17.5,77,12.76,16,9.4,295.3,332.1,297.6
994.8,176,21.7,17.5,77,12.78,16,9.3,295.3,332.2,297.6
994.1,182,21.6,17.4,77,12.66,16,9.3,295.3,331.8,297.5
993.5,187,21.6,17.2,76,12.53,16,9.3,295.3,331.4,297.5
992.8,193,21.5,17.2,76,12.50,15,9.3,295.2,331.3,297.5
992.2,198,21.4,17.2,77,12.51,15,9.2,295.2,331.3,297.5
991.6,204,21.4,17.2,77,12.53,15,9.2,295.3,331.4,297.5
991.0,209,21.4,17.2,77,12.52,15,9.2,295.3,331.4,297.5
990.4,214,21.3,17.1,77,12.49,15,9.1,295.3,331.3,297.5
989.9,219,21.3,17.1,77,12.45,16,9.1,295.3,331.2,297.5
989.3,224,21.2,17.0,77,12.42,16,9.1,295.3,331.1,297.5
988.7,229,21.2,17.0,77,12.38,16,9.0,295.3,331.0,297.5
988.1,235,21.1,16.9,77,12.32,16,9.0,295.3,330.8,297.5
987.5,240,21.1,16.8,77,12.30,16,9.0,295.3,330.8,297.5
986.9,245,21.0,16.9,77,12.36,17,9.0,295.3,331.0,297.5
986.3,250,21.0,17.0,78,12.45,17,9.0,295.3,331.2,297.5
985.7,256,20.9,17.0,79,12.49,17,9.0,295.3,331.3,297.5
985.1,261,20.9,17.0,78,12.45,17,9.1,295.3,331.2,297.5
984.5,266,20.8,17.0,79,12.45,18,9.1,295.3,331.2,297.5
983.9,271,20.7,17.0,79,12.52,18,9.1,295.3,331.4,297.5
983.3,276,20.7,17.1,80,12.57,18,9.2,295.2,331.5,297.5
982.8,281,20.6,17.1,80,12.58,18,9.2,295.2,331.5,297.4
982.2,286,20.6,17.1,80,12.58,19,9.3,295.2,331.5,297.5
981.7,291,20.5,17.1,80,12.56,19,9.3,295.2,331.5,297.5
981.1,296,20.5,17.1,81,12.58,19,9.4,295.2,331.5,297.5
980.5,301,20.4,17.1,81,12.64,19,9.5,295.2,331.7,297.5
980.0,306,20.4,17.1,82,12.65,19,9.5,295.2,331.7,297.5
979.4,311,20.3,17.1,82,12.62,19,9.6,295.2,331.6,297.5
978.8,316,20.3,17.0,82,12.58,19,9.6,295.2,331.5,297.5
978.2,322,20.2,17.0,82,12.57,19,9.7,295.2,331.5,297.5
977.6,327,20.2,17.1,82,12.61,19,9.7,295.2,331.6,297.5
977.0,332,20.1,17.1,83,12.64,19,9.8,295.2,331.7,297.5
976.4,337,20.1,17.1,83,12.64,19,9.8,295.2,331.7,297.5
975.8,343,20.0,17.0,83,12.62,19,9.8,295.2,331.6,297.5
975.3,348,20.0,17.0,83,12.61,19,9.9,295.2,331.6,297.5
974.7,353,19.9,17.0,83,12.62,19,9.9,295.2,331.6,297.5
974.1,358,19.9,17.0,84,12.63,19,9.9,295.2,331.7,297.5
973.5,363,19.8,17.1,84,12.66,18,9.9,295.2,331.7,297.5
972.9,368,19.8,17.1,85,12.69,18,9.9,295.2,331.8,297.5
972.4,373,19.7,17.1,85,12.72,18,9.8,295.2,331.9,297.5
971.8,378,19.7,17.1,85,12.76,18,9.8,295.2,332.0,297.5
971.2,383,19.6,17.2,86,12.82,18,9.8,295.2,332.2,297.5
970.7,388,19.6,17.2,86,12.85,18,9.8,295.2,332.3,297.5
970.1,393,19.5,17.2,87,12.83,17,9.7,295.2,332.2,297.5
969.6,398,19.5,17.2,87,12.81,17,9.7,295.2,332.2,297.5
969.0,403,19.4,17.2,87,12.82,17,9.7,295.2,332.2,297.5
968.4,408,19.4,17.2,87,12.84,17,9.6,295.2,332.2,297.5
967.9,414,19.3,17.2,87,12.85,17,9.6,295.2,332.3,297.5
967.3,419,19.3,17.2,88,12.85,16,9.6,295.2,332.3,297.5
966.7,424,19.2,17.2,88,12.84,16,9.5,295.2,332.2,297.5
966.1,430,19.2,17.1,88,12.78,16,9.5,295.2,332.1,297.5
965.5,435,19.1,17.0,88,12.72,16,9.5,295.2,331.9,297.5
964.9,440,19.1,16.9,88,12.68,15,9.4,295.2,331.8,297.4
964.3,445,19.0,16.9,88,12.69,15,9.4,295.2,331.8,297.4
963.8,450,19.0,17.0,88,12.73,15,9.4,295.2,331.9,297.5
963.3,454,18.9,17.0,89,12.76,14,9.3,295.2,332.0,297.5
962.8,459,18.9,17.0,89,12.77,14,9.3,295.2,332.0,297.5
962.3,463,18.9,17.0,89,12.74,14,9.3,295.3,332.0,297.5
961.8,467,18.9,16.9,89,12.72,13,9.2,295.3,332.0,297.5
961.3,472,18.8,17.0,89,12.78,13,9.2,295.3,332.1,297.5
960.8,476,18.8,17.1,90,12.83,13,9.2,295.3,332.3,297.5
960.3,481,18.7,17.0,90,12.82,12,9.1,295.2,332.2,297.5
959.8,485,18.7,16.9,90,12.75,12,9.1,295.3,332.0,297.5
959.3,490,18.6,16.9,89,12.71,12,9.0,295.3,331.9,297.5
958.8,494,18.6,16.8,89,12.69,12,9.0,295.3,331.9,297.5
958.3,499,18.6,16.8,89,12.67,12,9.0,295.3,331.9,297.6
957.9,503,18.6,16.8,89,12.65,11,8.9,295.3,331.8,297.5
957.4,507,18.5,16.8,90,12.66,11,8.9,295.3,331.8,297.5
956.9,511,18.4,16.8,90,12.64,11,8.8,295.3,331.7,297.5
956.5,516,18.4,16.7,90,12.61,11,8.8,295.3,331.7,297.5
956.0,520,18.4,16.7,90,12.62,11,8.7,295.3,331.7,297.6
955.6,524,18.4,16.8,90,12.66,11,8.7,295.3,331.9,297.6
955.1,528,18.3,16.8,91,12.71,11,8.7,295.3,332.0,297.6
954.7,532,18.3,16.8,91,12.74,11,8.6,295.3,332.1,297.6
954.2,536,18.2,16.9,92,12.77,11,8.6,295.3,332.2,297.6
953.8,540,18.2,16.9,92,12.76,11,8.6,295.3,332.1,297.6
953.3,544,18.2,16.8,92,12.70,11,8.5,295.3,332.0,297.6
952.9,548,18.2,16.7,91,12.65,10,8.5,295.3,331.9,297.6
952.4,552,18.1,16.7,91,12.65,10,8.5,295.4,331.9,297.6
951.9,556,18.1,16.7,92,12.67,10,8.5,295.4,331.9,297.6
951.4,561,18.0,16.7,92,12.67,10,8.5,295.3,331.9,297.6
950.9,566,18.0,16.7,92,12.66,10,8.5,295.3,331.9,297.6
950.3,571,17.9,16.7,92,12.65,10,8.5,295.3,331.9,297.6
949.8,576,17.9,16.7,93,12.65,10,8.5,295.3,331.9,297.6
949.2,581,17.8,16.6,93,12.65,9,8.5,295.4,331.9,297.6
948.7,586,17.8,16.6,93,12.64,9,8.5,295.4,331.8,297.6
948.1,591,17.8,16.6,93,12.61,9,8.5,295.4,331.8,297.6
947.6,595,17.7,16.6,93,12.60,9,8.6,295.4,331.7,297.6
947.1,600,17.7,16.4,92,12.50,8,8.6,295.4,331.5,297.6
946.6,605,17.7,16.2,91,12.35,8,8.6,295.4,331.1,297.6
946.1,609,17.7,16.1,90,12.23,8,8.6,295.5,330.8,297.7
945.6,614,17.7,16.0,90,12.19,7,8.7,295.5,330.7,297.7
945.1,618,17.7,16.0,90,12.19,7,8.7,295.5,330.8,297.7
944.6,623,17.6,16.0,90,12.18,7,8.7,295.6,330.8,297.7
944.1,628,17.6,16.0,90,12.21,6,8.8,295.6,330.9,297.7
943.5,632,17.5,16.1,91,12.28,6,8.8,295.6,331.0,297.7
943.0,637,17.5,15.9,91,12.17,5,8.8,295.5,330.7,297.7
942.5,642,17.5,15.7,90,12.01,5,8.9,295.6,330.3,297.7
941.9,647,17.4,15.6,89,11.92,5,8.9,295.6,330.1,297.7
941.4,652,17.4,15.5,89,11.87,4,8.9,295.6,330.0,297.7
940.8,657,17.4,15.5,89,11.85,4,8.9,295.7,329.9,297.8
940.3,662,17.4,15.5,89,11.84,3,9.0,295.7,329.9,297.8
939.7,667,17.4,15.4,88,11.80,3,9.0,295.7,329.9,297.8
939.1,672,17.4,15.4,88,11.78,2,9.0,295.8,329.9,297.9
938.6,678,17.3,15.4,88,11.78,1,9.1,295.8,329.9,297.9
938.0,683,17.3,15.3,88,11.77,1,9.1,295.8,329.9,297.9
937.5,688,17.3,15.3,88,11.74,360,9.1,295.8,329.8,297.9
936.9,692,17.2,15.3,88,11.73,359,9.2,295.8,329.8,297.9
936.4,697,17.2,15.3,89,11.73,359,9.2,295.8,329.8,297.9
935.9,702,17.1,15.3,89,11.72,358,9.2,295.8,329.8,297.9
935.4,706,17.1,15.2,89,11.72,357,9.2,295.8,329.8,297.9
934.9,711,17.0,15.3,89,11.75,357,9.3,295.8,329.9,297.9
934.4,715,17.0,15.3,90,11.77,356,9.3,295.8,329.9,297.9
933.9,720,17.0,15.3,90,11.77,355,9.3,295.8,329.9,297.9
933.4,725,16.9,15.2,89,11.71,354,9.4,295.8,329.8,297.9
932.9,729,16.9,15.1,89,11.61,354,9.4,295.9,329.5,297.9
932.4,734,16.9,14.9,88,11.51,353,9.4,295.9,329.3,298.0
931.9,739,16.9,14.9,88,11.47,353,9.5,296.0,329.2,298.0
931.4,743,16.9,14.9,88,11.50,352,9.5,296.0,329.4,298.1
930.9,748,16.9,14.9,88,11.53,352,9.5,296.0,329.5,298.1
930.3,753,16.9,14.9,88,11.51,351,9.5,296.0,329.4,298.1
929.8,758,16.8,14.8,88,11.47,351,9.6,296.1,329.3,298.1
929.3,762,16.8,14.7,87,11.39,351,9.6,296.1,329.1,298.1
928.8,767,16.8,14.6,87,11.30,351,9.6,296.1,328.9,298.1
928.3,772,16.8,14.5,86,11.24,351,9.6,296.2,328.8,298.2
927.8,776,16.9,14.4,86,11.20,351,9.6,296.3,328.8,298.3
927.4,780,16.9,14.4,85,11.17,351,9.6,296.4,328.8,298.3
926.9,785,16.9,14.3,85,11.12,351,9.5,296.4,328.7,298.4
926.4,789,16.9,14.2,84,11.06,351,9.5,296.4,328.6,298.4
925.9,794,16.9,14.1,84,11.00,352,9.5,296.5,328.5,298.4
925.5,798,16.9,14.0,83,10.95,352,9.4,296.5,328.4,298.5
925.0,802,16.9,14.0,83,10.92,352,9.4,296.6,328.3,298.5
924.5,806,16.9,14.0,83,10.91,353,9.4,296.6,328.4,298.5
924.1,811,16.9,14.0,83,10.90,353,9.3,296.6,328.4,298.6
923.6,815,16.9,13.9,83,10.89,354,9.2,296.7,328.4,298.6
923.2,819,16.8,13.9,83,10.86,354,9.2,296.7,328.3,298.6
922.7,823,16.8,13.8,83,10.83,355,9.1,296.7,328.2,298.6
922.3,827,16.8,13.8,83,10.84,355,9.1,296.7,328.2,298.6
921.9,831,16.7,13.8,83,10.85,356,9.0,296.7,328.3,298.6
921.4,835,16.7,13.8,83,10.84,356,8.9,296.7,328.3,298.6
921.0,839,16.7,13.8,83,10.82,357,8.9,296.7,328.2,298.6
920.5,843,16.6,13.7,83,10.80,357,8.8,296.7,328.2,298.6
920.1,848,16.6,13.7,83,10.78,357,8.7,296.7,328.1,298.7
919.6,853,16.6,13.7,83,10.77,358,8.7,296.7,328.1,298.7
919.0,857,16.5,13.7,83,10.78,358,8.6,296.8,328.2,298.7
918.5,862,16.5,13.7,84,10.78,358,8.6,296.8,328.2,298.7
918.0,867,16.4,13.7,84,10.76,358,8.5,296.8,328.1,298.7
917.4,873,16.4,13.6,84,10.75,358,8.4,296.8,328.1,298.7
916.9,878,16.3,13.6,84,10.75,357,8.4,296.7,328.1,298.7
916.3,883,16.3,13.6,84,10.75,357,8.4,296.7,328.0,298.7
915.8,887,16.2,13.6,84,10.72,357,8.3,296.7,328.0,298.6
915.3,892,16.2,13.5,84,10.70,356,8.3,296.7,327.9,298.7
914.9,896,16.2,13.5,84,10.70,356,8.3,296.8,327.9,298.7
914.4,900,16.1,13.5,85,10.72,355,8.3,296.8,328.0,298.7
914.0,904,16.1,13.6,85,10.75,354,8.4,296.8,328.1,298.7
913.6,908,16.1,13.6,85,10.75,353,8.4,296.8,328.1,298.7
913.2,912,16.0,13.6,85,10.75,353,8.4,296.8,328.1,298.7
912.8,915,16.0,13.5,85,10.73,352,8.5,296.8,328.0,298.7
912.4,919,16.0,13.5,85,10.73,351,8.5,296.8,328.0,298.7
912.0,923,15.9,13.5,86,10.73,350,8.6,296.8,328.0,298.7
911.6,926,15.9,13.5,86,10.72,350,8.7,296.8,328.0,298.7
911.2,930,15.9,13.5,86,10.73,349,8.8,296.8,328.0,298.7
910.9,933,15.8,13.5,86,10.74,349,8.9,296.8,328.1,298.7
910.5,937,15.8,13.5,86,10.75,348,9.0,296.8,328.1,298.7
910.1,941,15.7,13.5,87,10.76,348,9.1,296.8,328.1,298.7
909.7,944,15.7,13.5,87,10.76,347,9.2,296.8,328.1,298.7
909.3,948,15.7,13.5,87,10.76,347,9.3,296.8,328.1,298.7
908.9,952,15.6,13.5,87,10.76,347,9.4,296.8,328.1,298.7
908.5,956,15.6,13.5,87,10.75,347,9.5,296.8,328.1,298.7
908.0,960,15.6,13.5,87,10.75,347,9.6,296.8,328.1,298.7
907.6,964,15.5,13.5,87,10.75,347,9.7,296.8,328.1,298.7
907.1,968,15.5,13.4,88,10.74,347,9.8,296.8,328.1,298.7
906.7,973,15.5,13.4,88,10.75,348,9.8,296.8,328.1,298.7
906.2,977,15.4,13.4,88,10.75,348,9.9,296.8,328.1,298.7
905.7,982,15.4,13.4,88,10.75,348,9.9,296.8,328.1,298.7
905.2,987,15.3,13.4,88,10.73,349,10.0,296.8,328.1,298.7
904.7,991,15.3,13.3,88,10.70,349,10.0,296.8,328.0,298.7
904.2,996,15.3,13.3,88,10.67,350,10.0,296.8,327.9,298.7
903.7,1000,15.2,13.3,88,10.66,350,10.0,296.8,327.9,298.7
903.3,1005,15.2,13.3,88,10.67,351,10.0,296.9,327.9,298.8
902.8,1009,15.2,13.3,89,10.69,352,10.0,296.9,328.0,298.8
902.3,1014,15.1,13.3,89,10.70,352,10.0,296.9,328.0,298.8
901.8,1018,15.1,13.3,89,10.72,353,9.9,296.9,328.1,298.8
901.3,1023,15.0,13.3,90,10.73,354,9.9,296.9,328.1,298.8
900.9,1027,15.0,13.3,90,10.70,355,9.8,296.9,328.1,298.8
900.4,1032,15.0,13.2,89,10.67,355,9.8,296.9,328.0,298.8
899.9,1036,14.9,13.2,89,10.65,356,9.7,296.9,327.9,298.8
899.5,1040,14.9,13.2,90,10.65,357,9.6,296.9,327.9,298.8
899.1,1044,14.9,13.2,90,10.66,357,9.6,296.9,328.0,298.8
898.7,1048,14.8,13.2,90,10.69,358,9.5,296.9,328.0,298.8
898.3,1052,14.8,13.2,90,10.71,359,9.4,296.9,328.1,298.8
897.9,1056,14.8,13.2,91,10.70,359,9.3,296.9,328.1,298.8
897.4,1060,14.7,13.2,91,10.68,360,9.2,296.9,328.0,298.8
897.0,1064,14.7,13.2,91,10.68,1,9.1,296.9,328.0,298.8
896.5,1068,14.6,13.2,91,10.67,1,9.0,296.9,328.0,298.8
896.1,1073,14.6,13.1,91,10.63,2,8.9,296.9,327.9,298.8
895.6,1077,14.6,13.1,91,10.61,2,8.8,296.9,327.8,298.8
895.2,1081,14.5,13.0,91,10.60,3,8.7,296.9,327.8,298.8
894.8,1085,14.5,13.0,91,10.60,3,8.6,296.9,327.8,298.8
894.3,1089,14.4,13.0,91,10.61,4,8.5,296.9,327.9,298.8
893.9,1093,14.4,13.1,92,10.64,4,8.4,296.9,327.9,298.8
893.5,1097,14.4,13.1,92,10.67,5,8.4,296.9,328.0,298.8
893.1,1101,14.4,13.1,92,10.69,5,8.3,296.9,328.1,298.8
892.6,1105,14.3,13.1,92,10.68,6,8.2,297.0,328.1,298.9
892.2,1109,14.3,13.1,92,10.66,6,8.1,297.0,328.0,298.9
891.8,1113,14.3,13.1,92,10.65,7,8.0,297.0,328.0,298.9
891.4,1117,14.2,13.0,92,10.63,7,7.9,297.0,328.0,298.9
890.9,1121,14.2,13.0,93,10.63,8,7.8,297.0,328.0,298.9
890.5,1125,14.2,13.0,93,10.62,8,7.7,297.0,328.0,298.9
890.1,1129,14.1,13.0,93,10.61,9,7.7,297.0,327.9,298.9
889.7,1133,14.1,12.9,93,10.58,10,7.6,297.0,327.9,298.9
889.4,1136,14.1,12.9,92,10.55,10,7.5,297.0,327.8,298.9
889.0,1140,14.1,12.9,92,10.54,11,7.5,297.0,327.8,298.9
888.6,1144,14.0,12.8,92,10.54,11,7.4,297.0,327.8,298.9
888.2,1148,14.0,12.8,92,10.51,12,7.3,297.1,327.7,299.0
887.8,1151,14.0,12.8,92,10.49,12,7.3,297.1,327.7,299.0
887.3,1155,14.0,12.7,92,10.47,13,7.2,297.2,327.7,299.0
886.9,1159,14.0,12.7,92,10.45,13,7.2,297.2,327.7,299.0
886.5,1164,14.0,12.6,92,10.43,14,7.1,297.2,327.6,299.0
886.1,1168,14.0,12.6,92,10.40,15,7.1,297.2,327.6,299.1
885.6,1172,13.9,12.5,91,10.36,15,7.1,297.2,327.5,299.1
885.2,1176,13.9,12.4,90,10.28,16,7.0,297.3,327.3,299.1
884.8,1180,14.0,12.3,90,10.22,16,7.0,297.3,327.2,299.1
884.3,1184,14.0,12.3,90,10.21,16,7.0,297.4,327.2,299.2
883.9,1189,13.9,12.3,90,10.22,17,6.9,297.4,327.3,299.2
883.4,1193,13.9,12.3,90,10.23,17,6.9,297.4,327.3,299.2
882.9,1197,13.9,12.3,90,10.24,18,6.9,297.4,327.3,299.2
882.5,1202,13.9,12.3,90,10.23,18,6.9,297.4,327.4,299.3
882.0,1206,13.8,12.3,90,10.22,18,6.8,297.5,327.3,299.3
881.6,1211,13.8,12.2,90,10.18,19,6.8,297.5,327.3,299.3
881.1,1215,13.8,12.1,89,10.11,19,6.7,297.5,327.1,299.3
880.7,1219,13.8,11.9,88,9.97,19,6.7,297.6,326.8,299.4
880.2,1224,13.9,11.6,86,9.78,19,6.7,297.7,326.4,299.5
879.8,1228,14.0,11.2,83,9.56,19,6.6,297.9,325.9,299.6
879.3,1232,14.1,10.9,81,9.37,19,6.5,298.0,325.6,299.7
878.9,1236,14.2,10.7,79,9.23,19,6.5,298.2,325.4,299.8
878.5,1241,14.3,10.6,78,9.16,19,6.4,298.3,325.3,299.9
878.0,1245,14.3,10.5,78,9.11,19,6.3,298.4,325.2,300.0
877.6,1249,14.4,10.4,77,9.08,19,6.2,298.4,325.2,300.1
877.1,1254,14.4,10.3,77,9.03,20,6.1,298.5,325.1,300.1
876.6,1258,14.4,10.3,76,9.01,20,6.0,298.6,325.1,300.2
876.1,1263,14.4,10.3,76,9.00,20,5.9,298.6,325.1,300.2
875.6,1268,14.4,10.3,76,9.00,20,5.8,298.6,325.2,300.2
875.1,1273,14.3,10.2,76,8.98,20,5.7,298.6,325.1,300.3
874.7,1277,14.3,10.2,76,8.95,20,5.6,298.6,325.1,300.3
874.2,1282,14.3,10.1,76,8.93,20,5.5,298.7,325.1,300.3
873.7,1287,14.3,10.1,76,8.90,20,5.3,298.7,325.0,300.3
873.2,1291,14.3,10.0,75,8.87,20,5.2,298.8,325.0,300.4
872.7,1296,14.3,9.9,75,8.83,21,5.1,298.9,325.0,300.5
872.2,1301,14.4,9.8,74,8.78,21,5.0,299.0,325.0,300.6
871.7,1306,14.5,9.8,73,8.74,21,4.9,299.1,325.0,300.7
871.2,1311,14.5,9.7,73,8.71,21,4.7,299.2,325.0,300.8
870.6,1317,14.6,9.6,72,8.66,22,4.6,299.4,325.0,300.9
870.0,1322,14.6,9.5,71,8.60,22,4.5,299.5,325.0,301.0
869.4,1328,14.7,9.4,71,8.54,22,4.4,299.5,324.9,301.1
868.8,1334,14.7,9.3,70,8.50,23,4.3,299.6,324.8,301.1
868.2,1340,14.7,9.2,70,8.46,23,4.2,299.7,324.8,301.2
867.6,1346,14.7,9.1,69,8.36,23,4.2,299.7,324.6,301.2
867.0,1352,14.7,8.7,67,8.17,24,4.1,299.8,324.1,301.3
866.3,1358,14.8,8.1,64,7.85,24,4.0,300.0,323.4,301.4
865.7,1364,14.9,7.4,61,7.48,24,4.0,300.2,322.5,301.5
865.1,1370,15.0,7.1,59,7.32,24,3.9,300.3,322.2,301.6
864.5,1376,15.0,7.1,59,7.31,25,3.9,300.4,322.3,301.7
863.9,1382,15.1,7.1,59,7.32,25,3.9,300.5,322.5,301.9
863.3,1387,15.1,6.9,58,7.25,25,3.9,300.6,322.4,302.0
862.8,1393,15.2,6.7,57,7.16,25,3.9,300.8,322.2,302.1
862.2,1398,15.3,6.5,56,7.07,25,3.9,300.9,322.1,302.2
861.7,1403,15.3,6.4,55,7.00,25,3.9,301.0,322.0,302.3
861.2,1408,15.3,6.3,55,6.96,25,3.9,301.1,322.0,302.3
860.7,1413,15.3,6.2,54,6.93,25,3.9,301.1,321.9,302.4
860.3,1418,15.3,6.1,54,6.86,25,3.9,301.1,321.8,302.4
859.8,1422,15.3,5.9,53,6.79,25,3.9,301.2,321.6,302.4
859.3,1427,15.3,5.8,53,6.76,25,4.0,301.2,321.6,302.5
858.9,1432,15.3,5.8,53,6.75,25,4.0,301.3,321.6,302.5
858.4,1436,15.3,5.8,53,6.77,25,4.0,301.3,321.7,302.5
857.9,1441,15.2,5.9,54,6.79,25,4.0,301.3,321.7,302.5
857.5,1445,15.2,5.9,54,6.82,25,4.0,301.3,321.8,302.5
857.0,1450,15.1,6.0,54,6.86,25,4.0,301.3,321.9,302.5
856.6,1454,15.1,6.1,55,6.92,25,4.1,301.3,322.1,302.5
856.1,1459,15.1,6.2,55,6.98,25,4.1,301.3,322.3,302.6
855.7,1463,15.0,6.3,56,7.01,26,4.1,301.3,322.4,302.6
855.3,1467,15.0,6.3,56,7.01,26,4.1,301.3,322.4,302.6
854.9,1471,15.0,6.2,56,6.97,26,4.1,301.3,322.3,302.6
854.5,1475,15.0,6.0,55,6.87,26,4.0,301.4,322.1,302.6
854.0,1479,15.0,5.8,54,6.77,26,4.0,301.4,321.8,302.6
853.6,1483,15.0,5.6,53,6.69,26,4.0,301.4,321.6,302.6
853.2,1488,14.9,5.4,53,6.61,26,4.0,301.5,321.4,302.7
852.7,1492,14.9,5.3,52,6.55,26,4.0,301.5,321.3,302.7
852.2,1497,14.9,5.4,53,6.60,26,4.0,301.5,321.4,302.7
851.7,1502,14.8,5.5,53,6.65,26,3.9,301.5,321.5,302.7
851.2,1507,14.8,5.4,53,6.61,26,3.9,301.5,321.4,302.7
850.7,1512,14.7,5.1,52,6.49,26,3.9,301.5,321.1,302.7
850.2,1517,14.7,4.7,51,6.32,26,3.9,301.5,320.6,302.7
850.0,1519,14.7,4.6,51,6.26,26,3.9,301.5,320.5,302.7
849.8,1522,14.7,4.5,50,6.21,26,3.9,301.6,320.4,302.7
849.3,1526,14.7,4.4,50,6.20,26,3.9,301.6,320.4,302.7
848.8,1531,14.7,4.5,50,6.22,26,3.9,301.6,320.5,302.8
848.4,1535,14.7,4.5,51,6.25,26,3.9,301.6,320.6,302.8
848.0,1540,14.6,4.6,51,6.27,26,3.9,301.6,320.6,302.8
847.5,1544,14.6,4.6,51,6.27,26,3.9,301.6,320.6,302.8
847.1,1548,14.5,4.6,51,6.27,26,3.9,301.6,320.6,302.8
846.7,1552,14.5,4.5,51,6.27,26,4.0,301.6,320.6,302.8
846.3,1556,14.5,4.6,51,6.28,26,4.0,301.7,320.7,302.8
845.9,1561,14.4,4.6,52,6.31,26,4.1,301.7,320.8,302.8
845.4,1565,14.4,4.7,52,6.33,27,4.2,301.7,320.8,302.8
845.0,1570,14.3,4.7,52,6.34,27,4.3,301.7,320.8,302.8
844.5,1574,14.3,4.6,52,6.32,27,4.4,301.7,320.8,302.8
844.0,1579,14.2,4.6,52,6.30,27,4.5,301.7,320.7,302.8
843.6,1583,14.2,4.6,52,6.30,27,4.6,301.6,320.7,302.8
843.1,1588,14.2,4.6,52,6.31,27,4.7,301.7,320.8,302.8
842.6,1593,14.1,4.6,53,6.32,27,4.8,301.7,320.8,302.8
842.1,1598,14.1,4.6,53,6.32,27,4.9,301.7,320.9,302.9
841.6,1603,14.1,4.6,53,6.33,27,5.0,301.8,320.9,302.9
841.1,1608,14.1,4.6,53,6.31,27,5.2,301.8,320.9,302.9
840.6,1614,14.0,4.5,53,6.29,27,5.3,301.8,320.8,302.9
840.1,1619,14.0,4.4,52,6.26,27,5.4,301.8,320.8,302.9
839.5,1624,14.0,4.4,52,6.25,27,5.5,301.8,320.7,303.0
839.0,1629,13.9,4.4,52,6.24,26,5.6,301.8,320.7,303.0
838.5,1635,13.9,4.3,52,6.23,26,5.7,301.9,320.7,303.0
837.9,1640,13.9,4.2,52,6.20,26,5.8,301.9,320.7,303.0
837.4,1646,13.9,4.1,52,6.15,25,5.9,301.9,320.6,303.1
836.8,1651,13.8,4.0,51,6.11,25,6.0,302.0,320.5,303.1
836.3,1657,13.8,3.9,51,6.07,24,6.1,302.0,320.4,303.1
835.8,1662,13.8,3.9,51,6.08,24,6.2,302.0,320.5,303.1
835.2,1667,13.7,4.0,52,6.10,24,6.3,302.0,320.5,303.1
834.7,1673,13.7,4.0,52,6.11,23,6.3,302.0,320.6,303.1
834.2,1678,13.6,4.0,52,6.12,23,6.4,302.0,320.6,303.1
833.7,1683,13.6,4.0,52,6.12,23,6.4,302.0,320.6,303.1
833.3,1687,13.5,4.0,52,6.11,22,6.5,302.0,320.5,303.1
832.8,1692,13.5,3.9,52,6.10,22,6.5,302.0,320.5,303.1
832.4,1696,13.4,3.9,52,6.08,22,6.6,302.0,320.5,303.1
831.9,1701,13.4,3.8,52,6.07,21,6.7,302.0,320.4,303.1
831.5,1705,13.4,3.8,52,6.06,21,6.7,302.0,320.4,303.1
831.1,1709,13.3,3.8,53,6.07,21,6.8,302.0,320.4,303.1
830.7,1713,13.3,3.8,53,6.08,21,6.8,302.0,320.5,303.1
830.3,1717,13.3,3.9,53,6.09,21,6.9,302.0,320.5,303.2
829.8,1722,13.2,3.9,53,6.10,21,7.0,302.1,320.6,303.2
829.4,1726,13.2,3.9,53,6.12,21,7.0,302.1,320.6,303.2
828.9,1731,13.2,3.9,53,6.12,21,7.1,302.1,320.7,303.2
828.4,1736,13.1,3.9,53,6.11,21,7.2,302.1,320.6,303.2
