PRES,HGHT,TEMP,DWPT,RELH,MIXR,DRCT,SPED,THTA,THTE,THTV
1013.3,31,23.3,21.8,91,16.40,88,4.9,295.3,342.6,298.2
1012.7,36,23.6,22.0,91,16.65,92,3.8,295.7,343.7,298.6
1012.2,40,23.7,22.0,90,16.65,93,3.7,295.8,343.9,298.8
1011.4,47,23.7,21.9,90,16.63,94,3.8,295.9,343.9,298.9
1010.6,54,23.7,21.8,89,16.52,94,4.1,296.0,343.7,298.9
1010.0,59,23.7,21.7,88,16.39,94,4.4,296.0,343.4,298.9
1009.4,64,23.7,21.6,88,16.27,93,4.7,296.0,343.0,298.9
1008.7,70,23.6,21.5,88,16.20,94,4.9,296.0,342.8,298.9
1008.1,76,23.6,21.5,88,16.22,94,5.2,296.0,342.9,298.9
1007.4,82,23.5,21.5,88,16.24,94,5.4,296.0,343.0,298.9
1006.8,87,23.5,21.5,89,16.22,94,5.6,296.0,342.9,298.9
1006.1,93,23.4,21.5,89,16.23,94,5.8,296.1,342.9,298.9
1005.5,99,23.4,21.5,89,16.25,94,6.0,296.1,343.0,298.9
1004.8,104,23.3,21.5,89,16.25,94,6.1,296.1,343.0,298.9
1004.2,110,23.2,21.5,90,16.25,94,6.3,296.0,343.0,298.9
1003.5,116,23.2,21.5,90,16.26,94,6.4,296.0,343.0,298.9
1002.9,121,23.2,21.4,90,16.25,95,6.5,296.1,343.0,298.9
1002.2,127,23.1,21.4,90,16.24,95,6.6,296.1,343.0,298.9
1001.6,133,23.0,21.4,91,16.24,95,6.8,296.1,343.0,298.9
1000.9,138,23.0,21.4,91,16.25,96,6.8,296.1,343.0,298.9
1000.2,144,22.9,21.4,91,16.25,96,6.9,296.1,343.0,298.9
1000.0,146,22.9,21.4,91,16.24,97,7.0,296.1,343.0,298.9
999.6,150,22.9,21.4,91,16.24,97,7.0,296.0,342.9,298.9
998.9,156,22.8,21.3,92,16.22,98,7.1,296.0,342.9,298.9
998.2,162,22.7,21.3,92,16.22,98,7.2,296.0,342.9,298.9
997.5,168,22.7,21.4,92,16.25,99,7.2,296.1,343.0,298.9
996.8,174,22.6,21.3,92,16.23,100,7.3,296.1,342.9,298.9
996.2,180,22.6,21.2,92,16.16,100,7.4,296.0,342.7,298.9
995.5,186,22.5,21.1,92,16.05,101,7.5,296.0,342.4,298.9
994.9,191,22.5,21.0,91,15.92,102,7.5,296.0,342.0,298.9
994.3,197,22.4,20.9,91,15.81,103,7.6,296.1,341.7,298.9
993.7,202,22.4,20.8,91,15.77,104,7.7,296.1,341.6,298.9
993.1,207,22.4,20.8,91,15.80,104,7.8,296.1,341.8,298.9
992.5,212,22.3,20.9,91,15.84,105,7.9,296.1,341.9,298.9
991.9,217,22.3,20.9,92,15.85,106,8.0,296.1,341.9,298.9
991.3,223,22.2,20.8,92,15.78,106,8.1,296.1,341.7,298.9
990.7,228,22.2,20.6,91,15.64,107,8.2,296.1,341.3,298.9
990.1,233,22.1,20.5,91,15.56,107,8.3,296.1,341.1,298.9
989.5,238,22.1,20.6,91,15.58,108,8.4,296.1,341.1,298.9
988.9,244,22.0,20.6,92,15.65,108,8.5,296.1,341.3,298.9
988.4,249,22.0,20.7,92,15.70,109,8.6,296.1,341.5,298.9
987.8,253,21.9,20.6,92,15.69,109,8.7,296.1,341.5,298.9
987.3,258,21.9,20.5,92,15.60,109,8.8,296.1,341.2,298.9
986.8,263,21.9,20.4,92,15.49,109,8.9,296.1,340.9,298.9
986.2,267,21.8,20.4,91,15.43,109,8.9,296.1,340.8,298.9
985.7,272,21.8,20.3,91,15.40,109,9.0,296.2,340.7,298.9
985.1,277,21.8,20.3,91,15.35,109,9.0,296.2,340.6,298.9
984.5,283,21.7,20.2,91,15.30,109,9.0,296.2,340.4,298.9
983.9,288,21.7,20.1,91,15.25,109,9.1,296.2,340.3,298.9
983.2,294,21.6,20.1,91,15.20,109,9.0,296.2,340.2,298.9
982.6,300,21.6,20.0,91,15.16,109,9.0,296.2,340.1,298.9
982.0,305,21.5,20.0,91,15.14,109,9.0,296.2,340.0,298.9
981.4,310,21.5,20.0,91,15.12,109,9.0,296.2,340.0,298.9
980.8,316,21.5,20.0,91,15.13,109,8.9,296.2,340.0,298.9
980.2,321,21.4,20.0,92,15.17,109,8.8,296.2,340.1,298.9
979.6,326,21.4,20.0,92,15.21,109,8.7,296.2,340.2,298.9
979.0,332,21.3,20.0,92,15.25,109,8.7,296.3,340.3,299.0
978.3,337,21.2,20.1,93,15.33,110,8.6,296.2,340.6,299.0
977.7,343,21.2,20.2,94,15.40,110,8.5,296.2,340.7,299.0
977.1,348,21.1,20.2,95,15.45,110,8.3,296.2,340.9,299.0
976.5,354,21.1,20.2,95,15.47,110,8.2,296.2,340.9,298.9
975.9,359,21.0,20.2,95,15.44,110,8.1,296.2,340.8,298.9
975.3,364,20.9,20.1,95,15.40,111,8.0,296.2,340.7,298.9
974.7,369,20.9,20.1,95,15.36,111,7.9,296.2,340.6,298.9
974.2,374,20.9,20.0,95,15.33,111,7.7,296.2,340.5,298.9
973.6,379,20.8,19.9,95,15.23,112,7.6,296.2,340.2,298.9
973.1,384,20.8,19.7,94,15.04,112,7.5,296.2,339.7,298.9
972.6,389,20.8,19.5,92,14.83,113,7.4,296.3,339.2,298.9
972.0,394,20.8,19.4,91,14.71,113,7.3,296.4,338.9,299.0
971.5,399,20.8,19.4,91,14.71,113,7.2,296.4,339.0,299.0
970.9,403,20.8,19.4,92,14.75,114,7.1,296.4,339.1,299.0
970.4,408,20.7,19.4,92,14.74,114,7.0,296.4,339.1,299.0
969.8,413,20.7,19.3,92,14.71,115,6.9,296.4,339.0,299.0
969.3,418,20.7,19.3,92,14.66,115,6.9,296.4,338.9,299.0
968.7,423,20.6,19.2,92,14.63,115,6.8,296.5,338.8,299.1
968.2,428,20.6,19.2,92,14.61,115,6.7,296.5,338.8,299.1
967.7,433,20.6,19.1,91,14.56,116,6.7,296.5,338.7,299.1
967.1,438,20.6,19.0,91,14.46,116,6.6,296.5,338.4,299.1
966.5,443,20.5,18.9,90,14.37,116,6.6,296.6,338.2,299.1
966.0,448,20.5,18.8,90,14.29,116,6.6,296.6,338.0,299.1
965.4,453,20.5,18.7,90,14.22,116,6.5,296.6,337.8,299.1
964.8,458,20.5,18.7,89,14.17,116,6.5,296.7,337.7,299.2
964.2,464,20.5,18.6,89,14.14,115,6.5,296.7,337.7,299.2
963.6,469,20.4,18.6,89,14.13,115,6.5,296.7,337.6,299.2
963.0,474,20.4,18.6,90,14.14,115,6.4,296.7,337.7,299.2
962.4,480,20.3,18.6,90,14.16,115,6.4,296.7,337.8,299.2
961.8,485,20.3,18.6,90,14.17,114,6.4,296.7,337.8,299.2
961.2,491,20.2,18.6,90,14.17,114,6.4,296.7,337.8,299.2
960.5,497,20.2,18.5,90,14.13,114,6.4,296.7,337.7,299.2
959.9,503,20.1,18.5,90,14.08,113,6.4,296.7,337.5,299.2
959.2,508,20.1,18.4,90,14.01,113,6.3,296.8,337.4,299.2
958.6,514,20.1,18.3,90,13.95,113,6.3,296.8,337.3,299.3
958.0,520,20.1,18.2,89,13.89,112,6.3,296.8,337.1,299.3
957.3,526,20.0,18.2,89,13.86,112,6.3,296.9,337.1,299.3
956.7,532,20.0,18.1,89,13.83,112,6.2,296.9,337.0,299.3
956.0,537,20.0,18.1,89,13.81,111,6.2,296.9,337.0,299.4
955.4,543,19.9,18.1,89,13.79,111,6.2,296.9,336.9,299.3
954.8,549,19.9,18.0,89,13.76,111,6.1,296.9,336.8,299.4
954.2,554,19.8,18.0,89,13.73,111,6.1,296.9,336.8,299.4
953.6,560,19.8,18.0,89,13.73,111,6.1,296.9,336.8,299.4
953.0,565,19.8,18.0,90,13.78,111,6.0,297.0,337.0,299.4
952.3,571,19.7,18.1,90,13.82,111,6.0,297.0,337.1,299.4
951.7,577,19.6,18.1,91,13.83,111,5.9,297.0,337.1,299.4
951.1,582,19.6,18.0,91,13.81,111,5.8,297.0,337.1,299.4
950.4,588,19.5,18.0,91,13.81,111,5.8,297.0,337.0,299.4
949.8,594,19.5,18.0,91,13.81,111,5.7,296.9,337.0,299.4
949.1,600,19.4,18.0,91,13.79,111,5.7,296.9,337.0,299.4
948.5,606,19.3,17.9,91,13.74,112,5.6,296.9,336.8,299.4
947.9,612,19.3,17.8,91,13.68,112,5.6,296.9,336.6,299.4
947.2,617,19.3,17.8,91,13.64,113,5.5,297.0,336.6,299.4
946.6,623,19.2,17.7,91,13.62,113,5.5,297.0,336.6,299.4
946.0,628,19.2,17.7,91,13.58,113,5.5,297.0,336.5,299.5
945.4,634,19.2,17.6,91,13.54,114,5.4,297.1,336.4,299.5
944.8,640,19.2,17.6,90,13.51,115,5.4,297.1,336.4,299.5
944.1,646,19.2,17.6,91,13.53,115,5.4,297.2,336.5,299.6
943.5,651,19.1,17.6,91,13.56,116,5.4,297.2,336.6,299.6
942.8,657,19.1,17.6,91,13.58,116,5.4,297.2,336.7,299.6
942.2,663,19.0,17.6,92,13.58,116,5.4,297.2,336.6,299.6
941.5,669,18.9,17.6,92,13.58,117,5.4,297.2,336.6,299.6
940.9,675,18.9,17.6,92,13.56,117,5.4,297.2,336.6,299.6
940.3,681,18.8,17.6,92,13.55,118,5.4,297.2,336.5,299.6
939.6,687,18.8,17.5,92,13.55,118,5.4,297.2,336.6,299.6
939.0,693,18.8,17.5,93,13.55,118,5.4,297.2,336.6,299.6
938.3,699,18.7,17.5,93,13.54,118,5.5,297.2,336.6,299.6
937.7,705,18.6,17.5,93,13.50,119,5.5,297.2,336.4,299.6
937.0,711,18.6,17.4,93,13.48,119,5.5,297.2,336.4,299.6
936.3,717,18.5,17.4,93,13.45,119,5.5,297.2,336.3,299.6
935.6,723,18.5,17.3,93,13.43,119,5.5,297.2,336.3,299.6
935.0,729,18.4,17.3,93,13.40,119,5.5,297.2,336.2,299.6
934.3,735,18.4,17.3,93,13.39,119,5.5,297.2,336.1,299.6
933.7,741,18.3,17.3,93,13.39,119,5.5,297.2,336.2,299.6
933.1,746,18.3,17.3,94,13.42,118,5.5,297.3,336.3,299.7
932.6,752,18.2,17.3,94,13.42,118,5.5,297.3,336.3,299.7
932.0,757,18.2,17.2,94,13.40,118,5.5,297.3,336.2,299.7
931.4,762,18.2,17.2,94,13.39,118,5.4,297.3,336.2,299.7
930.9,767,18.1,17.2,95,13.41,117,5.4,297.3,336.3,299.7
930.3,773,18.1,17.3,95,13.44,117,5.3,297.3,336.4,299.7
929.7,778,18.0,17.3,95,13.45,117,5.3,297.3,336.4,299.7
929.1,784,18.0,17.3,96,13.45,116,5.2,297.3,336.4,299.7
928.4,790,17.9,17.2,96,13.42,116,5.2,297.3,336.3,299.7
927.8,796,17.8,17.2,96,13.39,115,5.1,297.3,336.2,299.7
927.2,801,17.8,17.1,96,13.35,115,5.1,297.3,336.1,299.7
926.6,807,17.7,17.1,96,13.32,114,5.0,297.3,336.0,299.7
926.0,813,17.7,17.0,96,13.28,114,4.9,297.3,335.9,299.7
925.3,818,17.7,17.0,96,13.26,113,4.9,297.3,335.9,299.7
925.0,822,17.6,16.9,96,13.22,113,4.9,297.3,335.8,299.7
924.7,824,17.6,16.9,95,13.19,113,4.8,297.3,335.7,299.7
924.1,830,17.6,16.7,95,13.09,112,4.7,297.4,335.4,299.7
923.5,836,17.6,16.6,94,12.99,111,4.7,297.4,335.2,299.7
922.8,842,17.6,16.5,93,12.87,111,4.6,297.5,334.9,299.7
922.2,848,17.6,16.3,92,12.71,110,4.5,297.5,334.6,299.8
921.6,853,17.6,16.1,91,12.55,109,4.5,297.6,334.2,299.8
921.0,859,17.6,15.9,90,12.42,108,4.4,297.6,333.9,299.9
920.4,865,17.6,15.8,89,12.34,108,4.3,297.7,333.7,299.9
919.8,870,17.5,15.7,89,12.28,107,4.3,297.7,333.5,299.9
919.2,876,17.5,15.6,89,12.24,106,4.2,297.7,333.4,299.9
918.6,881,17.5,15.6,89,12.22,105,4.1,297.8,333.4,299.9
918.1,886,17.4,15.6,89,12.22,105,4.1,297.8,333.4,300.0
917.5,892,17.4,15.6,89,12.25,104,4.0,297.8,333.5,300.0
916.9,897,17.4,15.7,90,12.31,103,3.9,297.8,333.7,300.0
916.4,902,17.3,15.8,91,12.39,103,3.9,297.8,333.9,300.0
915.8,907,17.3,15.8,91,12.44,102,3.8,297.8,334.1,300.0
915.2,913,17.2,15.8,92,12.47,102,3.7,297.8,334.2,300.1
914.7,918,17.2,15.8,92,12.44,102,3.7,297.8,334.1,300.1
914.1,923,17.2,15.8,91,12.42,101,3.6,297.9,334.1,300.1
913.5,929,17.1,15.8,92,12.46,101,3.5,297.9,334.2,300.1
912.9,935,17.1,15.9,92,12.51,101,3.5,297.9,334.4,300.1
912.3,940,17.0,15.9,93,12.54,102,3.4,297.9,334.5,300.1
911.7,946,17.0,15.9,93,12.53,102,3.3,297.9,334.5,300.1
911.0,952,16.9,15.8,93,12.49,103,3.3,297.9,334.4,300.1
910.4,958,16.9,15.7,93,12.44,103,3.2,297.9,334.3,300.2
909.7,964,16.9,15.7,93,12.43,104,3.2,298.0,334.3,300.2
909.1,971,16.8,15.7,93,12.44,105,3.2,298.0,334.3,300.2
908.4,977,16.8,15.7,93,12.44,106,3.2,298.0,334.3,300.2
907.7,984,16.8,15.6,93,12.41,107,3.2,298.0,334.3,300.3
907.0,990,16.7,15.6,93,12.35,108,3.2,298.0,334.1,300.2
906.3,997,16.6,15.5,93,12.28,109,3.2,298.0,333.9,300.2
905.6,1003,16.6,15.3,92,12.20,110,3.2,298.1,333.7,300.2
905.0,1009,16.6,15.3,92,12.16,111,3.3,298.1,333.7,300.3
904.4,1015,16.6,15.3,92,12.18,112,3.4,298.2,333.8,300.3
903.8,1020,16.5,15.3,93,12.20,112,3.4,298.2,333.8,300.3
903.2,1026,16.5,15.3,93,12.20,113,3.5,298.2,333.8,300.4
902.6,1032,16.5,15.3,93,12.22,113,3.6,298.2,333.9,300.4
902.0,1037,16.4,15.3,94,12.22,114,3.7,298.2,333.9,300.4
901.4,1043,16.3,15.3,94,12.21,114,3.8,298.2,333.9,300.4
900.7,1049,16.3,15.3,94,12.20,114,4.0,298.2,333.9,300.4
900.1,1055,16.3,15.3,94,12.20,114,4.1,298.2,333.9,300.4
899.5,1061,16.2,15.2,94,12.19,114,4.2,298.3,333.9,300.4
898.8,1067,16.2,15.2,94,12.17,113,4.3,298.3,333.9,300.4
898.2,1073,16.1,15.2,94,12.16,113,4.5,298.3,333.8,300.5
897.6,1079,16.1,15.1,94,12.13,112,4.6,298.3,333.8,300.5
897.0,1085,16.0,15.1,94,12.11,112,4.7,298.3,333.7,300.5
896.3,1091,16.0,15.1,94,12.10,112,4.8,298.3,333.7,300.5
895.7,1097,15.9,15.0,94,12.09,111,4.9,298.3,333.7,300.5
895.1,1103,15.9,15.0,94,12.08,111,5.0,298.3,333.7,300.5
894.5,1109,15.9,15.0,95,12.06,110,5.1,298.4,333.6,300.5
893.8,1115,15.8,15.0,95,12.06,110,5.2,298.4,333.6,300.5
893.2,1121,15.7,15.0,95,12.06,110,5.3,298.4,333.7,300.5
892.5,1128,15.7,14.9,95,12.05,109,5.4,298.4,333.6,300.5
891.8,1134,15.7,14.9,95,12.02,109,5.4,298.4,333.6,300.6
891.1,1141,15.7,14.8,94,11.94,109,5.5,298.5,333.5,300.6
890.5,1147,15.7,14.7,93,11.87,109,5.5,298.6,333.4,300.7
889.8,1153,15.8,14.6,93,11.82,109,5.6,298.7,333.4,300.8
889.1,1160,15.8,14.5,92,11.78,109,5.6,298.8,333.3,300.9
888.5,1166,15.7,14.5,93,11.77,109,5.7,298.8,333.3,300.9
887.9,1172,15.6,14.5,93,11.78,109,5.7,298.7,333.3,300.8
887.3,1177,15.6,14.5,94,11.81,109,5.7,298.7,333.3,300.9
886.7,1183,15.5,14.6,94,11.84,109,5.7,298.7,333.4,300.9
886.1,1188,15.4,14.6,95,11.87,109,5.8,298.7,333.5,300.9
885.6,1194,15.4,14.6,95,11.88,109,5.8,298.7,333.5,300.8
885.0,1199,15.3,14.5,95,11.84,109,5.8,298.7,333.4,300.8
884.4,1205,15.3,14.4,95,11.76,109,5.8,298.7,333.2,300.8
883.8,1211,15.3,14.4,94,11.72,110,5.9,298.8,333.2,300.9
883.2,1217,15.3,14.3,94,11.71,110,5.9,298.9,333.2,301.0
882.6,1223,15.2,14.3,94,11.72,110,5.9,298.9,333.2,301.0
881.9,1229,15.2,14.3,95,11.73,110,6.0,298.9,333.3,301.0
881.3,1235,15.1,14.3,95,11.72,110,6.0,298.8,333.2,300.9
880.6,1242,15.0,14.3,95,11.70,110,6.0,298.9,333.2,301.0
879.9,1248,15.0,14.2,95,11.66,110,6.1,298.9,333.1,301.0
879.3,1254,15.0,14.1,95,11.61,109,6.1,298.9,333.0,301.0
878.6,1261,15.0,14.1,94,11.57,109,6.1,299.0,333.0,301.1
878.0,1267,15.1,14.0,94,11.54,109,6.2,299.1,333.0,301.2
877.4,1272,15.1,14.0,93,11.51,109,6.2,299.2,333.0,301.3
876.8,1278,15.1,13.9,93,11.49,108,6.3,299.2,333.0,301.3
876.3,1283,15.0,13.9,93,11.44,108,6.3,299.2,332.8,301.3
875.7,1289,15.0,13.8,93,11.37,108,6.4,299.2,332.7,301.3
875.2,1294,15.1,13.6,91,11.27,107,6.4,299.4,332.6,301.5
874.6,1300,15.2,13.4,89,11.09,107,6.5,299.6,332.3,301.6
874.0,1306,15.3,13.1,87,10.92,107,6.5,299.7,331.9,301.7
873.4,1312,15.3,12.9,85,10.77,106,6.6,299.9,331.7,301.8
872.8,1318,15.3,12.6,84,10.57,106,6.6,299.9,331.1,301.8
872.1,1324,15.4,12.1,81,10.25,105,6.7,300.0,330.4,301.9
871.5,1330,15.5,11.7,78,9.96,105,6.7,300.2,329.7,302.0
870.8,1336,15.5,11.5,77,9.81,104,6.8,300.3,329.4,302.1
870.2,1343,15.5,11.4,77,9.77,104,6.8,300.3,329.3,302.1
869.5,1349,15.5,11.4,77,9.79,104,6.9,300.4,329.4,302.1
868.9,1355,15.4,11.5,78,9.85,103,6.9,300.4,329.6,302.1
868.3,1362,15.3,11.5,78,9.87,103,7.0,300.4,329.6,302.2
867.6,1368,15.3,11.5,78,9.87,103,7.0,300.4,329.6,302.2
867.0,1374,15.2,11.4,78,9.82,102,7.0,300.4,329.5,302.2
866.4,1379,15.2,11.3,78,9.78,102,7.1,300.4,329.4,302.2
865.9,1385,15.2,11.3,78,9.76,102,7.1,300.4,329.3,302.2
865.3,1391,15.1,11.3,78,9.76,101,7.1,300.4,329.3,302.2
864.7,1396,15.0,11.3,78,9.78,101,7.1,300.4,329.4,302.2
864.2,1402,15.0,11.3,79,9.80,101,7.1,300.4,329.4,302.2
863.6,1407,14.9,11.3,79,9.81,100,7.1,300.4,329.5,302.1
863.0,1413,14.8,11.3,79,9.80,100,7.1,300.4,329.4,302.1
862.5,1418,14.8,11.3,79,9.78,100,7.1,300.4,329.4,302.1
861.9,1424,14.7,11.3,80,9.80,99,7.0,300.4,329.4,302.1
861.3,1430,14.7,11.4,80,9.86,99,7.0,300.4,329.6,302.2
860.7,1436,14.6,11.4,81,9.92,98,6.9,300.4,329.8,302.2
860.1,1442,14.6,11.5,82,9.94,98,6.9,300.4,329.8,302.2
859.4,1448,14.5,11.4,82,9.93,98,6.8,300.4,329.8,302.2
858.8,1455,14.4,11.4,82,9.88,97,6.8,300.4,329.6,302.1
858.1,1461,14.4,11.2,82,9.81,97,6.7,300.3,329.4,302.1
857.5,1468,14.3,11.1,81,9.71,96,6.7,300.4,329.1,302.1
856.8,1474,14.3,10.9,80,9.63,96,6.6,300.4,329.0,302.1
856.2,1480,14.2,10.9,80,9.61,96,6.5,300.4,328.9,302.2
855.6,1486,14.2,10.9,81,9.64,95,6.4,300.4,329.0,302.2
855.1,1491,14.1,11.0,81,9.66,95,6.4,300.4,329.1,302.1
854.5,1497,14.1,11.0,82,9.68,95,6.3,300.4,329.1,302.1
854.0,1502,14.0,11.0,82,9.67,94,6.2,300.4,329.1,302.1
853.4,1507,14.0,10.9,82,9.63,94,6.1,300.4,329.0,302.2
852.9,1513,13.9,10.8,82,9.60,94,6.0,300.4,328.9,302.2
852.3,1519,13.9,10.8,82,9.59,94,6.0,300.5,328.9,302.2
851.7,1525,13.8,10.8,82,9.59,94,5.9,300.5,328.9,302.2
851.1,1531,13.8,10.8,82,9.57,94,5.8,300.5,328.9,302.2
850.5,1537,13.7,10.6,81,9.48,94,5.8,300.5,328.6,302.2
850.0,1542,13.7,10.3,80,9.30,94,5.8,300.5,328.1,302.2
849.8,1543,13.7,10.2,80,9.25,94,5.7,300.5,328.0,302.2
849.3,1549,13.7,9.6,76,8.88,94,5.7,300.6,327.0,302.2
848.7,1555,13.9,9.1,73,8.55,94,5.7,300.8,326.3,302.4
848.1,1560,14.0,8.8,71,8.43,94,5.7,300.9,326.1,302.5
847.6,1566,14.0,8.8,71,8.44,95,5.6,301.0,326.2,302.5
847.0,1571,13.9,8.9,72,8.48,95,5.6,301.0,326.4,302.6
846.5,1576,13.9,8.9,72,8.51,95,5.6,301.1,326.5,302.6
846.0,1582,13.9,8.9,72,8.51,96,5.6,301.1,326.5,302.6
845.5,1587,13.8,8.9,72,8.50,96,5.7,301.1,326.5,302.6
844.9,1592,13.8,8.9,72,8.48,96,5.7,301.1,326.4,302.7
844.4,1597,13.8,8.8,72,8.47,96,5.7,301.1,326.4,302.7
843.9,1602,13.8,8.8,72,8.48,96,5.7,301.2,326.5,302.7
843.4,1607,13.7,8.9,72,8.49,96,5.8,301.2,326.6,302.7
842.9,1613,13.7,8.8,72,8.45,97,5.8,301.2,326.5,302.7
842.4,1618,13.7,8.7,72,8.38,97,5.9,301.2,326.3,302.7
841.8,1623,13.7,8.5,71,8.28,97,5.9,301.3,326.0,302.8
841.3,1628,13.6,8.3,70,8.18,96,6.0,301.3,325.8,302.8
840.8,1633,13.6,8.1,69,8.10,96,6.0,301.3,325.6,302.8
840.3,1638,13.6,8.0,69,8.03,96,6.1,301.4,325.5,302.8
839.8,1643,13.6,7.8,68,7.96,96,6.1,301.4,325.3,302.9
839.3,1648,13.7,7.7,67,7.89,96,6.2,301.6,325.2,303.0
838.8,1653,13.7,7.7,67,7.86,95,6.2,301.6,325.2,303.1
838.3,1658,13.7,7.7,67,7.87,95,6.3,301.7,325.3,303.1
837.8,1663,13.7,7.7,67,7.89,95,6.3,301.7,325.4,303.1
837.3,1669,13.6,7.7,67,7.91,94,6.3,301.7,325.4,303.1
836.8,1674,13.6,7.7,68,7.91,94,6.4,301.7,325.4,303.2
836.3,1679,13.5,7.7,68,7.88,94,6.4,301.7,325.4,303.1
835.8,1684,13.5,7.6,67,7.86,93,6.5,301.7,325.3,303.2
835.3,1689,13.5,7.5,67,7.83,93,6.5,301.8,325.3,303.2
834.7,1694,13.5,7.5,67,7.81,93,6.6,301.9,325.3,303.3
834.2,1700,13.5,7.4,67,7.79,92,6.6,301.9,325.3,303.3
833.7,1705,13.5,7.5,67,7.84,92,6.7,301.9,325.5,303.4
833.3,1709,13.4,7.9,69,8.05,92,6.8,301.9,326.1,303.4
832.8,1714,13.4,8.3,71,8.28,92,6.8,301.9,326.7,303.4
832.3,1719,13.3,8.5,73,8.41,92,6.9,301.9,327.1,303.4
831.8,1724,13.3,8.7,74,8.50,92,7.0,301.9,327.4,303.5
831.3,1729,13.2,8.8,75,8.61,92,7.0,301.9,327.7,303.5
830.8,1734,13.2,9.0,76,8.70,92,7.1,301.9,327.9,303.5
830.3,1739,13.1,9.0,76,8.73,92,7.2,301.9,328.0,303.5
829.8,1744,13.1,9.0,77,8.74,92,7.3,301.9,328.1,303.5
829.3,1750,13.0,9.1,77,8.76,92,7.4,301.9,328.1,303.5
828.8,1755,13.0,9.1,77,8.77,92,7.5,301.9,328.1,303.5
828.2,1761,12.9,9.1,78,8.81,92,7.6,301.9,328.3,303.5
827.7,1766,12.9,9.2,78,8.89,93,7.7,301.9,328.5,303.5
827.2,1771,12.9,9.5,80,9.02,93,7.8,301.9,328.9,303.6
826.6,1777,12.8,9.7,81,9.16,93,7.9,301.9,329.3,303.6
826.1,1782,12.7,9.8,82,9.25,93,8.0,301.9,329.5,303.6
825.7,1787,12.7,9.9,83,9.29,93,8.1,301.9,329.6,303.6
825.2,1792,12.6,10.0,84,9.36,94,8.2,301.9,329.8,303.6
824.7,1796,12.6,10.1,85,9.43,94,8.3,301.9,330.1,303.6
824.3,1801,12.5,10.2,85,9.50,94,8.3,301.9,330.3,303.6
823.8,1806,12.5,10.2,86,9.52,94,8.4,301.9,330.4,303.7
823.3,1811,12.6,10.0,85,9.44,94,8.5,302.0,330.2,303.7
822.8,1816,12.6,9.8,83,9.30,94,8.6,302.1,329.9,303.8
822.3,1821,12.6,9.6,82,9.14,95,8.6,302.2,329.6,303.9
821.8,1826,12.6,9.2,80,8.94,95,8.7,302.2,329.0,303.9
821.3,1831,12.6,8.7,77,8.66,95,8.7,302.3,328.3,303.9
820.8,1837,12.7,8.2,74,8.35,95,8.8,302.4,327.5,303.9
820.3,1842,12.7,7.7,72,8.06,95,8.8,302.5,326.7,304.0
819.8,1847,12.7,7.2,69,7.77,95,8.8,302.6,326.0,304.0
819.3,1852,12.8,6.7,66,7.53,95,8.8,302.7,325.4,304.0
818.8,1856,12.8,6.4,65,7.38,95,8.8,302.8,325.1,304.1
818.4,1861,12.9,6.3,64,7.33,95,8.7,302.9,325.1,304.2
818.0,1865,12.9,6.4,64,7.38,96,8.7,303.0,325.3,304.3
817.6,1869,12.9,6.6,66,7.51,96,8.7,303.0,325.7,304.4
817.2,1873,12.9,7.0,68,7.72,96,8.6,303.0,326.3,304.4
816.8,1878,12.8,7.5,70,7.99,96,8.5,303.0,327.1,304.5
816.3,1883,12.8,8.0,73,8.28,96,8.5,303.0,327.9,304.5
815.8,1887,12.7,8.4,75,8.51,96,8.4,302.9,328.6,304.5
815.3,1892,12.6,8.6,76,8.62,96,8.3,302.9,328.9,304.5
814.9,1897,12.6,8.6,77,8.63,97,8.2,302.9,328.9,304.5
814.4,1902,12.6,8.5,76,8.61,97,8.1,303.0,328.9,304.6
814.0,1907,12.6,8.5,76,8.58,97,8.0,303.0,328.8,304.6
813.5,1911,12.5,8.4,76,8.53,97,7.9,303.0,328.7,304.6
813.1,1916,12.5,8.2,75,8.44,97,7.8,303.0,328.4,304.6
812.6,1920,12.5,8.0,74,8.32,97,7.7,303.1,328.1,304.6
812.2,1925,12.5,7.8,73,8.23,98,7.6,303.1,327.9,304.6
811.7,1930,12.4,7.8,73,8.18,98,7.5,303.1,327.8,304.6
811.2,1935,12.4,7.8,74,8.23,98,7.4,303.1,328.0,304.6
810.7,1940,12.3,8.1,75,8.37,98,7.3,303.1,328.4,304.7
810.2,1945,12.3,8.3,77,8.52,98,7.2,303.1,328.8,304.7
809.8,1950,12.2,8.4,78,8.60,98,7.2,303.1,329.0,304.7
809.3,1955,12.2,8.6,78,8.69,98,7.1,303.2,329.3,304.7
808.8,1960,12.2,8.7,79,8.76,98,7.0,303.2,329.5,304.8
808.4,1964,12.2,8.8,80,8.81,98,7.0,303.2,329.7,304.8
808.0,1969,12.1,8.8,80,8.86,98,6.9,303.2,329.8,304.8
807.5,1973,12.1,9.0,81,8.98,97,6.9,303.2,330.2,304.9
807.1,1978,12.1,9.3,83,9.14,97,6.8,303.2,330.7,304.9
806.6,1983,12.0,9.4,84,9.22,97,6.8,303.2,331.0,304.9
806.1,1988,12.0,9.4,84,9.20,96,6.8,303.3,330.9,305.0
805.7,1993,12.0,9.2,83,9.13,96,6.8,303.3,330.8,305.0
805.2,1998,12.0,9.1,82,9.03,95,6.8,303.3,330.5,305.0
804.6,2003,12.0,9.0,82,9.00,95,6.8,303.4,330.5,305.0
804.1,2009,11.9,9.1,83,9.05,94,6.8,303.4,330.7,305.1
803.6,2014,11.9,9.2,84,9.15,93,6.8,303.4,330.9,305.1
803.1,2019,11.9,9.4,85,9.25,93,6.8,303.4,331.2,305.1
