PRES,HGHT,TEMP,DWPT,RELH,MIXR,DRCT,SPED,THTA,THTE,THTV
1014.5,31,29.6,23.3,69,18.08,65,6.2,301.5,355.0,304.8
1014.0,35,29.3,22.9,69,17.65,74,3.3,301.2,353.4,304.4
1013.6,39,28.9,23.0,70,17.67,76,3.0,300.9,353.1,304.1
1012.9,44,28.5,22.9,72,17.66,77,3.0,300.5,352.6,303.7
1012.1,52,27.9,22.8,74,17.50,76,3.3,300.0,351.5,303.2
1011.2,60,27.3,22.5,75,17.27,75,3.6,299.5,350.2,302.6
1010.6,65,26.8,22.3,77,17.04,74,3.9,299.0,348.9,302.1
1010.0,70,26.4,22.1,77,16.80,73,4.1,298.7,347.8,301.7
1009.4,76,26.1,21.9,78,16.65,73,4.3,298.4,347.1,301.4
1008.8,81,25.9,21.9,78,16.62,72,4.6,298.3,346.8,301.3
1008.2,86,25.9,21.8,78,16.58,71,4.8,298.3,346.7,301.3
1007.6,91,25.8,21.7,78,16.48,71,5.0,298.3,346.4,301.2
1007.0,96,25.7,21.6,78,16.34,71,5.2,298.2,345.9,301.1
1006.5,101,25.6,21.5,78,16.28,70,5.4,298.1,345.6,301.1
1005.9,106,25.5,21.6,79,16.35,70,5.6,298.1,345.8,301.0
1005.4,110,25.4,21.6,80,16.39,69,5.8,298.1,345.9,301.0
1004.9,115,25.4,21.6,80,16.39,69,6.0,298.1,345.9,301.0
1004.4,120,25.3,21.6,80,16.36,69,6.1,298.1,345.8,301.0
1003.8,124,25.3,21.6,80,16.42,69,6.3,298.1,346.0,301.0
1003.3,129,25.2,21.8,81,16.59,68,6.4,298.1,346.5,301.1
1002.7,134,25.2,21.8,82,16.65,68,6.5,298.1,346.6,301.1
1002.2,139,25.1,21.8,82,16.66,68,6.6,298.1,346.7,301.1
1001.6,144,25.1,21.9,82,16.70,68,6.7,298.1,346.8,301.1
1001.1,149,25.0,21.9,83,16.73,68,6.8,298.1,346.9,301.1
1000.5,154,25.0,21.9,83,16.73,67,6.8,298.1,346.9,301.1
1000.0,158,24.9,21.8,83,16.69,67,6.8,298.1,346.8,301.1
999.4,163,24.9,21.7,82,16.56,67,6.9,298.1,346.4,301.1
998.9,167,24.9,21.6,82,16.52,67,7.0,298.1,346.3,301.1
998.4,172,24.9,21.7,83,16.61,67,7.0,298.2,346.6,301.1
997.9,176,24.8,21.6,82,16.48,67,7.1,298.2,346.2,301.1
997.4,181,24.8,21.4,82,16.32,66,7.1,298.1,345.7,301.0
996.9,185,24.7,21.4,82,16.28,66,7.1,298.1,345.6,301.0
996.4,189,24.7,21.4,82,16.30,66,7.2,298.1,345.7,301.0
995.9,194,24.6,21.4,82,16.33,66,7.2,298.1,345.7,301.0
995.4,198,24.6,21.4,83,16.35,66,7.2,298.1,345.8,301.0
994.9,203,24.5,21.4,83,16.35,66,7.2,298.1,345.8,301.0
994.4,208,24.5,21.4,83,16.31,66,7.2,298.1,345.7,301.0
993.8,213,24.5,21.3,83,16.25,66,7.3,298.1,345.5,301.0
993.2,218,24.4,21.2,82,16.19,65,7.3,298.2,345.4,301.0
992.6,223,24.4,21.2,82,16.17,65,7.3,298.2,345.3,301.0
992.0,229,24.3,21.2,83,16.18,65,7.4,298.1,345.3,301.0
991.3,235,24.2,21.2,83,16.15,65,7.4,298.1,345.2,301.0
990.6,241,24.2,21.1,83,16.13,65,7.4,298.1,345.2,301.0
990.0,246,24.2,21.1,83,16.11,65,7.5,298.2,345.1,301.0
989.3,252,24.1,21.1,83,16.10,65,7.5,298.2,345.1,301.0
988.7,258,24.1,21.0,83,16.06,65,7.6,298.2,345.0,301.0
988.1,263,24.0,21.0,83,16.05,65,7.6,298.2,345.0,301.0
987.6,268,24.0,21.0,83,16.03,65,7.7,298.2,344.9,301.0
987.0,273,23.9,20.9,83,16.00,65,7.7,298.2,344.8,301.0
986.5,278,23.9,20.9,84,16.00,65,7.7,298.2,344.8,301.0
986.0,282,23.8,20.9,84,16.02,66,7.8,298.2,344.9,301.0
985.5,287,23.8,20.9,84,16.03,66,7.8,298.2,345.0,301.1
984.9,291,23.8,21.0,84,16.05,66,7.8,298.2,345.0,301.1
984.4,296,23.7,21.0,85,16.11,66,7.9,298.2,345.2,301.1
983.9,301,23.7,21.0,85,16.13,66,7.9,298.2,345.2,301.1
983.3,306,23.6,21.0,85,16.13,66,7.9,298.2,345.3,301.1
982.7,311,23.6,21.0,85,16.12,67,7.9,298.2,345.2,301.1
982.2,316,23.5,21.0,86,16.12,67,8.0,298.2,345.2,301.1
981.6,321,23.5,20.9,86,16.08,67,8.0,298.2,345.1,301.1
981.0,326,23.4,20.9,86,16.04,67,8.0,298.2,345.0,301.1
980.4,332,23.4,20.9,86,16.03,67,8.0,298.2,345.0,301.1
979.9,336,23.3,20.9,86,16.04,67,8.0,298.2,345.0,301.1
979.3,341,23.3,20.8,86,16.01,67,8.0,298.2,344.9,301.1
978.8,346,23.3,20.8,86,15.95,67,8.0,298.2,344.8,301.1
978.3,351,23.2,20.8,86,15.96,67,8.0,298.2,344.8,301.1
977.7,356,23.2,20.8,86,15.99,67,8.0,298.2,344.9,301.1
977.2,361,23.1,20.8,87,16.01,67,8.0,298.2,344.9,301.1
976.6,366,23.1,20.8,87,16.01,67,8.0,298.2,344.9,301.1
976.1,370,23.0,20.8,87,16.01,67,8.0,298.2,344.9,301.1
975.6,375,23.0,20.8,87,16.01,67,8.0,298.2,344.9,301.1
975.1,380,22.9,20.8,88,16.03,67,7.9,298.2,345.0,301.1
974.6,384,22.9,20.8,88,16.04,67,7.9,298.2,345.0,301.1
974.1,389,22.9,20.8,88,16.03,67,7.9,298.3,345.0,301.1
973.5,393,22.9,20.7,88,16.02,67,7.9,298.3,345.0,301.1
973.0,398,22.8,20.7,88,16.02,67,7.9,298.3,345.0,301.1
972.5,403,22.8,20.7,88,16.02,67,7.8,298.3,345.0,301.1
972.0,407,22.7,20.7,88,16.00,67,7.8,298.3,344.9,301.1
971.4,412,22.7,20.7,88,15.98,67,7.8,298.3,344.9,301.1
970.9,417,22.6,20.6,89,15.94,66,7.8,298.3,344.8,301.1
970.4,422,22.6,20.6,89,15.91,66,7.8,298.3,344.7,301.1
969.9,426,22.5,20.6,89,15.91,66,7.8,298.3,344.7,301.1
969.4,431,22.5,20.6,89,15.96,66,7.8,298.3,344.8,301.1
968.9,435,22.5,20.6,89,15.98,66,7.8,298.3,344.9,301.1
968.4,440,22.4,20.6,89,15.96,66,7.7,298.3,344.8,301.1
967.9,445,22.4,20.6,90,15.93,66,7.7,298.3,344.8,301.1
967.3,449,22.3,20.6,90,15.94,66,7.7,298.3,344.8,301.1
966.8,454,22.3,20.5,90,15.94,66,7.7,298.3,344.8,301.1
966.3,459,22.2,20.5,90,15.91,66,7.7,298.3,344.7,301.1
965.8,463,22.2,20.4,90,15.85,66,7.7,298.3,344.5,301.1
965.4,467,22.1,20.4,90,15.83,67,7.7,298.3,344.4,301.1
964.9,471,22.1,20.4,90,15.80,67,7.8,298.3,344.4,301.1
964.5,475,22.1,20.3,90,15.76,67,7.8,298.3,344.3,301.1
964.0,479,22.1,20.3,89,15.70,67,7.8,298.3,344.1,301.1
963.6,483,22.0,20.2,89,15.68,68,7.8,298.3,344.1,301.1
963.1,487,22.0,20.2,90,15.69,68,7.8,298.3,344.1,301.1
962.7,491,22.0,20.2,90,15.68,68,7.8,298.3,344.1,301.1
962.3,495,21.9,20.2,90,15.66,69,7.8,298.3,344.0,301.1
961.8,499,21.9,20.2,90,15.64,69,7.8,298.3,344.0,301.1
961.3,504,21.9,20.2,90,15.64,69,7.9,298.3,344.0,301.1
960.9,508,21.8,20.2,90,15.67,70,7.9,298.3,344.1,301.1
960.4,512,21.8,20.2,91,15.70,70,7.9,298.3,344.1,301.1
959.9,517,21.7,20.2,91,15.71,70,7.9,298.3,344.2,301.1
959.4,521,21.7,20.2,91,15.71,71,7.9,298.3,344.2,301.1
958.9,526,21.6,20.2,91,15.69,71,7.9,298.3,344.1,301.1
958.4,530,21.6,20.1,91,15.65,71,7.9,298.3,344.0,301.1
957.9,535,21.5,20.1,91,15.62,71,8.0,298.3,343.9,301.1
957.3,540,21.5,20.1,92,15.61,72,8.0,298.3,343.9,301.1
956.8,545,21.4,20.0,92,15.61,72,8.0,298.3,343.9,301.1
956.2,550,21.4,20.0,92,15.56,72,8.0,298.3,343.8,301.1
955.7,555,21.4,19.9,91,15.48,72,8.0,298.4,343.5,301.1
955.1,560,21.4,19.9,91,15.46,72,8.0,298.4,343.5,301.2
954.6,565,21.3,19.9,92,15.50,72,8.0,298.4,343.6,301.2
954.1,570,21.3,19.9,92,15.47,72,8.0,298.4,343.5,301.2
953.5,575,21.2,19.8,91,15.41,72,7.9,298.4,343.4,301.2
953.0,580,21.2,19.7,91,15.34,72,7.9,298.4,343.2,301.2
952.4,585,21.2,19.7,91,15.32,72,7.9,298.4,343.2,301.2
951.8,590,21.1,19.7,91,15.34,72,7.9,298.5,343.2,301.2
951.2,596,21.1,19.7,92,15.35,72,7.9,298.4,343.3,301.2
950.6,601,21.0,19.7,92,15.34,72,7.9,298.4,343.2,301.2
950.0,607,21.0,19.6,92,15.32,72,7.9,298.5,343.2,301.2
949.4,612,20.9,19.6,92,15.32,72,7.9,298.5,343.2,301.2
948.9,617,20.9,19.6,93,15.33,72,7.9,298.4,343.2,301.2
948.3,622,20.8,19.6,93,15.36,72,7.9,298.5,343.3,301.2
947.8,627,20.8,19.7,93,15.38,72,7.9,298.5,343.4,301.2
947.2,632,20.7,19.7,94,15.39,72,7.9,298.5,343.4,301.2
946.7,637,20.7,19.7,94,15.40,72,7.9,298.5,343.4,301.2
946.2,642,20.6,19.6,94,15.38,72,7.9,298.4,343.4,301.2
945.7,647,20.6,19.6,94,15.40,73,7.9,298.5,343.4,301.2
945.1,651,20.5,19.6,95,15.39,73,7.9,298.5,343.4,301.2
944.6,656,20.5,19.6,95,15.38,73,7.9,298.4,343.3,301.2
944.1,661,20.4,19.6,95,15.40,73,8.0,298.4,343.4,301.2
943.5,666,20.4,19.6,95,15.41,74,8.0,298.4,343.4,301.2
943.0,671,20.3,19.6,95,15.39,74,8.0,298.4,343.4,301.2
942.4,676,20.3,19.5,96,15.36,75,8.1,298.4,343.3,301.2
941.8,682,20.2,19.5,96,15.33,75,8.2,298.4,343.2,301.2
941.3,687,20.2,19.5,96,15.31,75,8.2,298.4,343.1,301.2
940.7,692,20.1,19.4,96,15.28,76,8.3,298.4,343.0,301.2
940.2,697,20.1,19.4,96,15.26,77,8.4,298.5,343.0,301.2
939.7,702,20.1,19.4,96,15.26,77,8.5,298.5,343.0,301.2
939.1,707,20.0,19.4,96,15.31,78,8.6,298.5,343.2,301.2
938.6,711,20.0,19.5,97,15.38,78,8.7,298.5,343.4,301.2
938.1,716,19.9,19.5,98,15.43,79,8.8,298.5,343.5,301.2
937.5,721,19.9,19.5,98,15.41,79,8.9,298.5,343.5,301.2
937.0,726,19.8,19.4,98,15.35,80,9.1,298.5,343.3,301.2
936.4,731,19.8,19.4,98,15.31,80,9.2,298.5,343.2,301.2
935.9,736,19.7,19.4,98,15.32,80,9.3,298.5,343.2,301.2
935.4,741,19.7,19.4,98,15.32,81,9.4,298.5,343.2,301.2
934.9,746,19.7,19.4,98,15.30,81,9.6,298.5,343.2,301.2
934.3,751,19.6,19.3,98,15.25,81,9.7,298.5,343.0,301.2
933.8,756,19.6,19.2,98,15.15,82,9.8,298.5,342.7,301.2
933.3,760,19.5,19.1,97,15.04,82,9.9,298.5,342.5,301.2
932.8,765,19.5,19.0,97,14.98,82,10.1,298.5,342.3,301.2
932.3,770,19.5,18.9,97,14.95,83,10.2,298.5,342.2,301.2
931.8,775,19.4,18.9,97,14.94,83,10.3,298.6,342.2,301.2
931.3,779,19.4,18.9,97,14.92,83,10.4,298.6,342.2,301.2
930.8,784,19.4,18.9,97,14.89,83,10.5,298.6,342.1,301.2
930.3,789,19.4,18.8,96,14.81,83,10.5,298.6,341.9,301.2
929.8,793,19.3,18.7,96,14.78,83,10.6,298.6,341.8,301.3
929.3,797,19.3,18.7,96,14.72,84,10.7,298.6,341.7,301.3
928.8,802,19.3,18.5,95,14.60,84,10.7,298.7,341.3,301.3
928.3,806,19.3,18.4,95,14.47,84,10.7,298.7,341.0,301.3
927.8,811,19.3,18.3,94,14.41,84,10.8,298.7,340.9,301.3
927.3,816,19.2,18.1,93,14.28,84,10.8,298.8,340.5,301.3
926.8,821,19.2,17.9,92,14.09,84,10.8,298.8,340.0,301.3
926.3,826,19.2,17.9,92,14.03,84,10.8,298.8,339.9,301.3
925.8,830,19.2,17.8,92,13.98,85,10.8,298.9,339.8,301.4
925.2,835,19.2,17.7,91,13.91,85,10.8,298.9,339.6,301.4
925.0,838,19.2,17.7,91,13.90,85,10.8,298.9,339.6,301.4
924.7,840,19.2,17.7,91,13.90,85,10.8,299.0,339.6,301.4
924.2,845,19.2,17.7,91,13.95,85,10.7,299.0,339.8,301.5
923.7,850,19.1,17.8,92,14.02,86,10.7,299.0,340.0,301.5
923.2,855,19.1,17.9,93,14.12,86,10.7,299.0,340.3,301.5
922.6,860,19.0,18.0,94,14.23,86,10.7,298.9,340.6,301.5
922.1,865,18.9,18.1,95,14.30,87,10.6,298.9,340.8,301.5
921.5,870,18.8,18.0,95,14.25,87,10.6,298.9,340.6,301.4
920.9,876,18.8,17.9,95,14.14,87,10.6,298.9,340.3,301.4
920.3,882,18.7,17.9,95,14.13,88,10.6,298.9,340.3,301.4
919.7,887,18.7,17.8,95,14.09,88,10.6,298.9,340.2,301.4
919.1,893,18.7,17.6,94,13.91,89,10.6,298.9,339.7,301.4
918.6,898,18.7,17.3,92,13.64,89,10.6,299.0,338.9,301.4
918.0,903,18.7,17.1,90,13.45,89,10.6,299.1,338.5,301.5
917.5,908,18.7,17.0,90,13.43,90,10.6,299.1,338.5,301.5
917.0,913,18.7,17.1,91,13.52,90,10.6,299.1,338.8,301.6
916.4,918,18.6,17.2,92,13.64,91,10.6,299.1,339.1,301.6
915.9,922,18.6,17.3,92,13.71,91,10.6,299.1,339.3,301.6
915.4,927,18.5,17.3,93,13.72,91,10.6,299.1,339.3,301.6
914.9,932,18.5,17.3,93,13.69,92,10.7,299.1,339.2,301.6
914.4,937,18.4,17.2,93,13.65,92,10.7,299.1,339.1,301.6
913.9,941,18.4,17.2,93,13.62,93,10.7,299.1,339.1,301.6
913.4,946,18.3,17.2,93,13.62,93,10.7,299.1,339.0,301.6
913.0,951,18.3,17.1,93,13.59,93,10.8,299.1,338.9,301.5
912.5,955,18.3,17.0,93,13.50,94,10.8,299.1,338.7,301.5
912.0,960,18.2,16.9,92,13.44,94,10.8,299.2,338.5,301.6
911.5,964,18.2,16.9,92,13.39,95,10.8,299.2,338.4,301.6
911.0,969,18.2,16.9,92,13.42,95,10.8,299.2,338.5,301.6
910.5,974,18.1,17.0,93,13.53,95,10.9,299.2,338.9,301.6
910.0,978,18.1,17.1,94,13.57,96,10.9,299.2,338.9,301.6
909.5,983,18.0,16.9,93,13.47,96,10.9,299.2,338.7,301.6
909.0,988,18.0,16.8,93,13.37,96,10.9,299.2,338.4,301.6
908.5,993,18.0,16.8,92,13.33,96,10.8,299.2,338.3,301.6
908.0,997,18.0,16.7,92,13.25,97,10.8,299.3,338.1,301.6
907.4,1003,18.0,16.6,92,13.19,97,10.8,299.3,338.0,301.7
906.9,1008,17.9,16.5,91,13.13,97,10.8,299.3,337.9,301.7
906.4,1013,17.9,16.4,91,13.02,97,10.7,299.4,337.6,301.7
905.8,1018,17.9,16.2,90,12.88,97,10.7,299.4,337.2,301.7
905.3,1023,17.9,16.0,89,12.76,97,10.6,299.5,336.9,301.7
904.7,1028,17.9,16.0,88,12.71,98,10.6,299.5,336.9,301.8
904.2,1033,17.9,15.9,88,12.70,98,10.5,299.5,336.8,301.8
903.7,1038,17.9,15.9,88,12.65,98,10.4,299.6,336.8,301.8
903.1,1043,17.9,15.8,88,12.61,97,10.4,299.6,336.7,301.9
902.6,1048,17.8,15.8,88,12.60,97,10.3,299.6,336.7,301.9
902.1,1053,17.8,15.8,88,12.62,97,10.2,299.6,336.7,301.9
901.6,1058,17.8,15.8,88,12.63,97,10.2,299.6,336.8,301.9
901.0,1063,17.7,15.8,88,12.59,97,10.1,299.7,336.7,301.9
900.5,1068,17.7,15.7,88,12.55,97,10.0,299.7,336.6,301.9
900.1,1073,17.7,15.7,88,12.55,96,10.0,299.7,336.6,301.9
899.6,1077,17.6,15.7,89,12.60,96,9.9,299.7,336.7,302.0
899.1,1082,17.6,15.8,89,12.66,96,9.8,299.7,336.9,302.0
898.7,1086,17.5,15.9,90,12.71,96,9.8,299.7,337.1,302.0
898.2,1090,17.5,15.9,90,12.73,95,9.7,299.7,337.1,302.0
897.8,1095,17.4,15.9,91,12.75,95,9.7,299.7,337.2,302.0
897.3,1099,17.4,15.9,91,12.75,94,9.6,299.7,337.2,302.0
896.8,1104,17.4,15.9,91,12.75,94,9.6,299.7,337.2,302.0
896.4,1108,17.3,15.8,91,12.73,94,9.6,299.7,337.1,302.0
895.9,1112,17.3,15.8,91,12.71,93,9.5,299.7,337.0,302.0
895.4,1117,17.2,15.8,91,12.69,93,9.5,299.7,337.0,302.0
895.0,1121,17.2,15.7,91,12.67,93,9.5,299.7,337.0,302.0
894.5,1126,17.2,15.7,91,12.68,93,9.5,299.7,337.0,302.0
894.0,1130,17.1,15.8,92,12.73,92,9.5,299.7,337.1,302.0
893.6,1135,17.1,15.9,93,12.78,92,9.4,299.7,337.3,302.0
893.1,1139,17.0,15.9,93,12.83,92,9.4,299.7,337.4,302.0
892.6,1144,17.0,15.9,93,12.85,92,9.4,299.7,337.5,302.0
892.1,1148,16.9,15.9,94,12.85,91,9.4,299.7,337.5,302.0
891.7,1153,16.9,15.9,94,12.84,91,9.4,299.7,337.4,302.0
891.2,1158,16.9,15.9,94,12.83,91,9.4,299.7,337.4,302.0
890.6,1163,16.8,15.9,94,12.84,91,9.3,299.7,337.4,302.0
890.1,1168,16.8,15.8,94,12.83,91,9.3,299.7,337.4,302.0
889.6,1173,16.7,15.8,94,12.81,91,9.3,299.7,337.4,302.0
889.0,1178,16.7,15.8,95,12.80,91,9.3,299.7,337.4,302.0
888.5,1183,16.6,15.8,95,12.82,91,9.2,299.7,337.4,302.0
888.0,1189,16.6,15.8,95,12.83,91,9.2,299.7,337.4,302.0
887.4,1194,16.5,15.8,96,12.84,91,9.2,299.7,337.5,302.0
886.9,1199,16.5,15.8,96,12.83,91,9.1,299.7,337.4,302.0
886.4,1204,16.4,15.8,96,12.85,91,9.1,299.7,337.5,302.0
885.9,1209,16.4,15.8,96,12.85,91,9.1,299.7,337.5,302.0
885.4,1214,16.3,15.8,96,12.82,91,9.0,299.7,337.4,302.0
884.9,1218,16.3,15.7,96,12.77,91,9.0,299.7,337.3,302.0
884.4,1223,16.3,15.7,96,12.75,92,8.9,299.7,337.2,302.0
883.9,1228,16.2,15.7,97,12.77,92,8.9,299.7,337.3,302.0
883.4,1233,16.2,15.7,97,12.82,92,8.8,299.7,337.4,302.0
882.9,1238,16.1,15.8,98,12.86,92,8.8,299.8,337.6,302.1
882.4,1242,16.1,15.8,98,12.86,92,8.8,299.8,337.6,302.1
881.8,1248,16.1,15.7,98,12.86,93,8.7,299.8,337.6,302.1
881.3,1253,16.0,15.7,98,12.86,93,8.6,299.8,337.6,302.1
880.8,1258,16.0,15.7,98,12.86,93,8.6,299.8,337.6,302.1
880.2,1263,15.9,15.7,99,12.87,93,8.5,299.8,337.6,302.1
879.7,1268,15.9,15.7,99,12.85,94,8.5,299.8,337.6,302.1
879.2,1273,15.8,15.6,99,12.80,94,8.4,299.8,337.5,302.1
878.6,1279,15.8,15.5,98,12.74,94,8.3,299.8,337.3,302.1
878.1,1284,15.8,15.5,98,12.73,94,8.3,299.8,337.3,302.1
877.5,1289,15.7,15.5,98,12.72,94,8.2,299.9,337.3,302.2
877.0,1295,15.7,15.4,98,12.69,95,8.1,299.9,337.2,302.2
876.4,1300,15.7,15.4,98,12.68,95,8.0,299.9,337.2,302.2
875.8,1306,15.7,15.4,98,12.66,95,7.9,300.0,337.2,302.2
875.3,1311,15.6,15.4,98,12.64,95,7.8,300.0,337.2,302.3
874.7,1316,15.6,15.4,99,12.65,95,7.7,300.0,337.2,302.3
874.2,1322,15.6,15.3,99,12.64,94,7.6,300.0,337.2,302.3
873.7,1327,15.5,15.3,99,12.62,94,7.5,300.0,337.2,302.3
873.2,1332,15.5,15.3,99,12.61,94,7.3,300.1,337.2,302.3
872.7,1336,15.5,15.3,99,12.64,93,7.2,300.1,337.3,302.3
872.2,1341,15.4,15.4,99,12.68,93,7.1,300.1,337.4,302.4
871.7,1346,15.4,15.4,100,12.69,92,6.9,300.1,337.5,302.4
871.2,1351,15.4,15.3,100,12.69,92,6.8,300.1,337.5,302.4
870.7,1356,15.3,15.3,100,12.65,91,6.7,300.1,337.4,302.4
870.2,1361,15.3,15.2,99,12.55,90,6.5,300.1,337.1,302.4
869.7,1366,15.2,15.0,99,12.44,89,6.4,300.1,336.8,302.4
869.2,1371,15.2,14.9,98,12.37,88,6.3,300.1,336.6,302.4
868.7,1375,15.2,14.9,98,12.35,87,6.2,300.2,336.6,302.4
868.2,1380,15.2,14.9,98,12.38,86,6.0,300.2,336.7,302.4
867.7,1385,15.1,15.0,99,12.42,85,5.9,300.2,336.8,302.4
867.2,1390,15.1,15.0,99,12.43,84,5.8,300.2,336.8,302.5
866.7,1395,15.1,14.9,99,12.40,82,5.7,300.2,336.8,302.5
866.3,1399,15.0,14.9,99,12.37,81,5.6,300.2,336.7,302.5
865.8,1404,15.0,14.9,99,12.36,81,5.6,300.2,336.7,302.5
865.4,1408,14.9,14.9,99,12.37,80,5.5,300.2,336.7,302.5
864.9,1412,14.9,14.9,100,12.39,79,5.4,300.3,336.8,302.5
864.5,1417,14.9,14.9,100,12.39,79,5.3,300.3,336.8,302.5
864.0,1421,14.9,14.9,100,12.39,78,5.3,300.3,336.9,302.6
863.5,1426,14.9,14.8,100,12.38,78,5.2,300.3,336.9,302.6
863.1,1431,14.8,14.8,100,12.35,78,5.2,300.3,336.8,302.6
862.6,1436,14.8,14.7,99,12.28,78,5.1,300.3,336.6,302.6
862.1,1441,14.7,14.5,99,12.16,78,5.1,300.3,336.2,302.5
861.6,1446,14.7,14.3,98,12.02,79,5.0,300.3,335.8,302.5
861.1,1450,14.7,14.2,97,11.91,79,5.0,300.4,335.5,302.5
860.6,1455,14.6,14.1,97,11.83,80,4.9,300.4,335.3,302.5
860.1,1460,14.7,13.9,95,11.70,81,4.9,300.5,335.0,302.6
859.7,1464,14.7,13.6,93,11.47,82,4.8,300.6,334.5,302.7
859.2,1469,14.8,13.3,91,11.28,84,4.8,300.7,334.1,302.8
858.7,1474,14.9,13.2,90,11.21,85,4.7,300.9,334.0,302.9
858.3,1478,14.9,13.2,90,11.22,87,4.7,300.9,334.2,303.0
857.8,1483,15.0,13.2,89,11.21,88,4.6,301.0,334.2,303.0
857.3,1487,15.0,13.2,89,11.18,90,4.6,301.1,334.2,303.1
856.9,1492,15.0,13.1,88,11.11,92,4.5,301.2,334.1,303.2
856.4,1497,15.1,13.0,87,11.03,94,4.5,301.3,334.0,303.3
855.9,1501,15.1,12.9,87,10.97,95,4.4,301.3,333.9,303.3
855.4,1506,15.1,12.8,86,10.91,97,4.4,301.4,333.8,303.4
854.9,1511,15.1,12.7,86,10.88,99,4.4,301.5,333.8,303.5
854.4,1517,15.1,12.7,85,10.86,101,4.3,301.5,333.8,303.5
853.9,1522,15.1,12.6,85,10.83,102,4.3,301.6,333.7,303.5
853.3,1527,15.1,12.6,85,10.78,104,4.3,301.6,333.7,303.6
852.8,1532,15.1,12.5,85,10.74,105,4.2,301.6,333.6,303.6
852.3,1538,15.1,12.5,85,10.74,107,4.2,301.7,333.6,303.6
851.7,1543,15.0,12.5,85,10.75,108,4.2,301.7,333.7,303.6
851.2,1548,15.0,12.5,85,10.76,109,4.2,301.7,333.7,303.6
850.7,1553,14.9,12.4,85,10.73,110,4.2,301.7,333.6,303.6
850.2,1558,14.9,12.4,85,10.69,110,4.2,301.7,333.5,303.6
850.0,1560,14.9,12.3,85,10.67,111,4.2,301.7,333.5,303.7
849.7,1563,14.9,12.3,85,10.64,111,4.2,301.7,333.4,303.7
849.2,1568,14.9,12.3,85,10.63,111,4.2,301.8,333.4,303.7
848.7,1573,14.8,12.3,85,10.63,111,4.2,301.8,333.4,303.7
848.3,1578,14.8,12.2,85,10.62,111,4.2,301.8,333.4,303.7
847.8,1583,14.8,12.2,85,10.59,111,4.2,301.8,333.3,303.7
847.2,1588,14.7,12.1,84,10.55,110,4.3,301.9,333.3,303.8
846.7,1593,14.7,12.0,84,10.46,110,4.3,301.9,333.1,303.8
846.2,1599,14.7,11.8,82,10.32,109,4.3,302.0,332.7,303.8
845.6,1604,14.8,11.5,81,10.16,108,4.4,302.1,332.4,303.9
845.0,1610,14.8,11.3,79,9.98,108,4.5,302.2,332.0,304.0
844.5,1616,14.9,10.9,77,9.77,107,4.5,302.3,331.5,304.1
843.9,1621,15.0,10.5,75,9.51,106,4.6,302.4,330.9,304.2
843.4,1626,15.1,10.1,72,9.26,105,4.7,302.6,330.4,304.3
842.9,1631,15.2,9.8,70,9.07,104,4.8,302.8,330.0,304.4
842.5,1636,15.3,9.7,69,9.00,103,4.9,302.9,329.9,304.5
842.0,1641,15.3,9.7,69,8.99,102,5.0,303.0,330.0,304.6
841.5,1646,15.3,9.6,69,8.98,101,5.1,303.0,330.1,304.7
841.0,1651,15.3,9.6,69,8.97,100,5.3,303.1,330.1,304.7
840.5,1656,15.3,9.5,68,8.92,99,5.4,303.1,330.0,304.8
840.0,1661,15.3,9.4,68,8.85,99,5.5,303.2,329.8,304.8
839.4,1666,15.3,9.3,67,8.77,98,5.7,303.3,329.7,304.9
838.9,1671,15.3,9.1,67,8.71,98,5.8,303.3,329.5,304.9
838.4,1677,15.3,9.1,66,8.66,97,6.0,303.3,329.4,304.9
837.9,1682,15.3,9.0,66,8.61,97,6.1,303.4,329.3,305.0
837.4,1687,15.3,8.9,66,8.55,97,6.3,303.4,329.2,305.0
836.9,1692,15.3,8.8,65,8.51,97,6.4,303.5,329.1,305.0
836.5,1697,15.2,8.7,65,8.47,97,6.6,303.5,329.1,305.0
836.0,1702,15.2,8.7,65,8.45,97,6.8,303.5,329.0,305.1
835.4,1707,15.2,8.6,65,8.44,97,6.9,303.6,329.0,305.1
834.9,1712,15.2,8.6,65,8.42,98,7.1,303.6,329.0,305.1
834.4,1717,15.2,8.5,64,8.38,98,7.3,303.6,328.9,305.1
833.9,1723,15.1,8.4,64,8.32,98,7.4,303.6,328.8,305.2
833.4,1728,15.1,8.3,64,8.28,99,7.6,303.7,328.7,305.2
832.8,1733,15.1,8.3,64,8.26,99,7.8,303.7,328.7,305.2
832.3,1739,15.1,8.2,63,8.23,99,7.9,303.8,328.6,305.3
831.8,1744,15.1,8.1,63,8.20,100,8.1,303.8,328.6,305.3
831.3,1749,15.0,8.1,63,8.17,100,8.3,303.8,328.5,305.3
830.8,1754,15.0,7.9,63,8.10,101,8.4,303.8,328.3,305.3
830.3,1760,15.0,7.8,62,8.02,101,8.5,303.9,328.1,305.3
829.7,1765,15.0,7.7,62,7.96,101,8.7,303.9,328.0,305.4
829.2,1770,15.0,7.6,61,7.92,102,8.8,304.0,328.0,305.5
828.7,1775,15.0,7.5,61,7.89,102,8.9,304.1,328.0,305.5
828.2,1780,15.1,7.5,60,7.87,102,9.0,304.2,328.1,305.7
827.8,1785,15.2,7.4,60,7.85,102,9.0,304.3,328.2,305.8
827.3,1790,15.3,7.4,59,7.83,102,9.1,304.5,328.2,305.9
826.8,1795,15.3,7.3,59,7.80,102,9.1,304.5,328.2,306.0
826.4,1800,15.3,7.2,59,7.75,102,9.1,304.6,328.1,306.0
825.9,1804,15.3,7.1,58,7.69,102,9.1,304.6,328.0,306.1
