PRES,HGHT,TEMP,DWPT,RELH,MIXR,DRCT,SPED,THTA,THTE,THTV
1013.5,31,24.6,20.9,80,15.57,60,4.9,296.6,341.7,299.4
1013.1,34,24.8,21.1,80,15.73,64,3.6,296.8,342.5,299.6
1012.5,40,24.9,21.1,79,15.72,65,3.5,297.0,342.6,299.7
1011.5,48,24.9,21.0,79,15.63,66,3.7,297.1,342.5,299.9
1010.7,55,24.9,20.8,78,15.52,66,3.9,297.2,342.2,299.9
1010.1,60,24.9,20.7,78,15.41,66,4.2,297.1,341.9,299.9
1009.5,66,24.8,20.6,78,15.33,66,4.5,297.1,341.7,299.9
1008.8,71,24.8,20.5,77,15.25,66,4.7,297.2,341.5,299.9
1008.2,77,24.7,20.5,77,15.20,66,4.9,297.2,341.4,299.9
1007.5,82,24.7,20.5,77,15.20,66,5.1,297.2,341.4,299.9
1006.9,88,24.7,20.5,78,15.23,67,5.3,297.2,341.5,299.9
1006.3,93,24.6,20.5,78,15.26,67,5.5,297.2,341.6,299.9
1005.7,99,24.6,20.5,78,15.26,67,5.7,297.2,341.6,299.9
1005.1,104,24.5,20.5,78,15.25,67,5.9,297.2,341.5,299.9
1004.4,110,24.4,20.4,78,15.23,67,6.1,297.2,341.4,299.9
1003.8,115,24.4,20.4,78,15.21,67,6.2,297.2,341.4,299.9
1003.2,121,24.3,20.4,79,15.20,68,6.3,297.2,341.4,299.9
1002.5,126,24.3,20.4,79,15.21,68,6.5,297.2,341.4,299.9
1001.9,132,24.2,20.4,79,15.19,68,6.6,297.2,341.3,299.9
1001.3,137,24.2,20.3,79,15.19,68,6.7,297.2,341.3,299.9
1000.7,143,24.1,20.3,79,15.19,68,6.8,297.2,341.3,299.9
1000.1,148,24.1,20.3,79,15.16,68,6.9,297.2,341.3,299.9
1000.0,148,24.1,20.3,79,15.15,68,7.0,297.2,341.2,299.9
999.5,153,24.0,20.2,79,15.12,68,7.0,297.2,341.1,299.9
998.9,158,24.0,20.2,80,15.11,68,7.0,297.2,341.1,299.9
998.3,163,23.9,20.3,80,15.17,68,7.1,297.2,341.3,299.9
997.7,169,23.9,20.3,80,15.19,68,7.2,297.2,341.4,299.9
997.1,174,23.9,20.3,80,15.18,67,7.2,297.2,341.4,299.9
996.5,179,23.8,20.3,81,15.21,67,7.3,297.3,341.5,300.0
995.9,184,23.8,20.3,81,15.23,67,7.3,297.3,341.5,300.0
995.4,189,23.7,20.3,81,15.23,67,7.4,297.2,341.5,300.0
994.8,194,23.7,20.3,82,15.26,66,7.4,297.3,341.6,300.0
994.2,200,23.6,20.3,82,15.26,66,7.4,297.3,341.6,300.0
993.6,205,23.6,20.3,82,15.23,66,7.5,297.3,341.5,300.0
993.0,210,23.5,20.2,82,15.17,65,7.5,297.3,341.4,300.0
992.4,215,23.5,20.1,81,15.12,65,7.6,297.3,341.2,300.0
991.8,220,23.4,20.1,82,15.14,65,7.6,297.3,341.3,300.0
991.2,226,23.4,20.2,82,15.18,64,7.7,297.3,341.4,300.0
990.6,231,23.3,20.2,82,15.18,64,7.7,297.3,341.4,300.0
990.0,237,23.3,20.1,82,15.16,64,7.8,297.3,341.4,300.0
989.4,242,23.2,20.1,82,15.13,64,7.8,297.3,341.3,300.0
988.7,248,23.2,20.1,83,15.10,63,7.8,297.3,341.2,300.0
988.1,254,23.1,20.0,83,15.08,63,7.9,297.3,341.1,300.0
987.5,259,23.1,20.0,83,15.04,63,7.9,297.3,341.0,300.0
986.9,264,23.0,19.9,82,14.97,63,8.0,297.3,340.8,300.0
986.3,270,23.0,19.8,82,14.91,63,8.0,297.3,340.7,300.0
985.7,275,23.0,19.8,82,14.88,63,8.0,297.3,340.6,300.0
985.1,280,22.9,19.7,82,14.85,63,8.1,297.3,340.5,300.0
984.6,285,22.9,19.7,82,14.86,63,8.1,297.3,340.5,300.0
984.0,290,22.8,19.8,83,14.94,63,8.1,297.3,340.8,300.0
983.5,295,22.8,19.8,84,14.99,64,8.2,297.3,340.9,300.0
982.9,299,22.7,19.8,84,14.97,64,8.2,297.3,340.8,300.0
982.4,304,22.7,19.8,84,14.98,64,8.2,297.3,340.9,300.0
981.8,309,22.6,19.8,84,15.01,64,8.2,297.3,341.0,300.0
981.2,314,22.6,19.8,85,15.01,65,8.2,297.3,341.0,300.0
980.7,319,22.5,19.8,85,15.02,65,8.2,297.3,341.0,300.0
980.1,325,22.4,19.8,85,15.04,65,8.2,297.3,341.0,300.0
979.5,330,22.4,19.8,85,15.02,66,8.3,297.3,340.9,300.0
978.9,335,22.3,19.8,85,14.99,66,8.3,297.3,340.8,300.0
978.3,341,22.3,19.7,85,14.92,66,8.3,297.3,340.7,299.9
977.7,346,22.3,19.6,85,14.83,67,8.3,297.3,340.4,300.0
977.1,351,22.2,19.6,85,14.81,67,8.3,297.3,340.4,300.0
976.5,357,22.2,19.6,85,14.83,67,8.3,297.3,340.4,300.0
975.9,362,22.1,19.6,85,14.83,68,8.3,297.3,340.4,300.0
975.4,367,22.1,19.5,85,14.83,68,8.3,297.3,340.4,300.0
974.8,372,22.0,19.5,86,14.83,68,8.3,297.4,340.4,300.0
974.2,377,22.0,19.5,86,14.78,68,8.4,297.4,340.3,300.0
973.6,382,22.0,19.4,86,14.76,69,8.4,297.4,340.3,300.0
973.0,388,21.9,19.5,86,14.78,69,8.4,297.4,340.3,300.0
972.4,393,21.9,19.5,86,14.80,69,8.5,297.4,340.4,300.0
971.8,399,21.8,19.5,87,14.82,69,8.5,297.4,340.4,300.0
971.2,404,21.8,19.5,87,14.83,69,8.5,297.4,340.5,300.0
970.5,410,21.7,19.5,87,14.83,69,8.6,297.4,340.5,300.0
969.9,416,21.6,19.5,87,14.84,69,8.6,297.4,340.5,300.0
969.2,422,21.6,19.5,88,14.87,69,8.7,297.4,340.6,300.0
968.6,427,21.5,19.5,88,14.89,70,8.8,297.3,340.6,300.0
968.0,433,21.4,19.5,88,14.87,70,8.8,297.3,340.5,300.0
967.4,438,21.4,19.4,88,14.82,70,8.9,297.4,340.4,300.0
966.8,443,21.4,19.3,88,14.77,70,9.0,297.4,340.3,300.0
966.2,449,21.3,19.3,88,14.72,70,9.0,297.4,340.1,300.0
965.6,454,21.3,19.3,88,14.71,70,9.1,297.4,340.1,300.0
965.0,460,21.2,19.3,89,14.73,70,9.2,297.4,340.2,300.0
964.4,465,21.2,19.3,89,14.73,70,9.3,297.4,340.2,300.0
963.8,470,21.2,19.1,88,14.63,71,9.3,297.4,340.0,300.0
963.2,476,21.1,19.0,88,14.51,71,9.4,297.5,339.7,300.0
962.7,481,21.1,18.9,87,14.46,71,9.5,297.5,339.5,300.1
962.1,486,21.1,19.0,88,14.53,71,9.5,297.5,339.7,300.1
961.5,491,21.0,19.1,89,14.64,71,9.6,297.4,340.0,300.1
960.9,496,20.9,19.1,90,14.68,72,9.6,297.4,340.1,300.0
960.4,501,20.9,19.1,90,14.63,72,9.7,297.4,339.9,300.0
959.8,506,20.8,19.0,89,14.59,72,9.7,297.4,339.9,300.0
959.3,511,20.8,19.0,89,14.55,72,9.7,297.4,339.8,300.0
958.7,516,20.8,19.0,89,14.54,73,9.8,297.5,339.8,300.1
958.2,521,20.7,18.9,89,14.51,73,9.8,297.5,339.7,300.1
957.7,526,20.7,18.9,89,14.50,73,9.8,297.5,339.7,300.1
957.1,531,20.6,18.9,90,14.53,73,9.8,297.5,339.7,300.1
956.5,536,20.6,19.0,91,14.59,73,9.7,297.5,339.9,300.1
956.0,541,20.5,19.0,91,14.59,74,9.7,297.4,339.9,300.0
955.4,546,20.4,18.9,91,14.56,74,9.7,297.4,339.8,300.0
954.9,551,20.4,18.9,91,14.54,74,9.7,297.4,339.7,300.0
954.3,557,20.4,18.9,91,14.52,74,9.6,297.4,339.7,300.0
953.7,562,20.3,18.8,91,14.51,74,9.6,297.5,339.7,300.1
953.2,567,20.3,18.8,91,14.51,75,9.5,297.5,339.7,300.1
952.6,572,20.2,18.8,92,14.53,75,9.5,297.5,339.7,300.1
952.1,577,20.2,18.9,92,14.55,75,9.4,297.5,339.8,300.1
951.5,582,20.1,18.9,93,14.63,75,9.4,297.5,340.0,300.1
950.9,587,20.0,19.0,94,14.72,75,9.3,297.4,340.2,300.1
950.4,592,20.0,19.1,95,14.80,76,9.3,297.4,340.4,300.0
949.8,597,19.9,19.1,95,14.83,76,9.2,297.4,340.5,300.0
949.2,603,19.8,19.1,96,14.85,76,9.2,297.4,340.6,300.0
948.7,608,19.8,19.1,96,14.86,76,9.1,297.4,340.6,300.0
948.1,613,19.7,19.1,96,14.82,76,9.1,297.4,340.5,300.0
947.4,619,19.7,19.1,96,14.81,76,9.1,297.4,340.4,300.0
946.8,625,19.6,19.0,96,14.80,77,9.1,297.4,340.4,300.0
946.2,631,19.6,19.0,97,14.79,77,9.1,297.4,340.3,300.0
945.5,637,19.5,19.0,97,14.83,77,9.1,297.4,340.5,300.0
944.9,642,19.4,19.1,98,14.85,77,9.1,297.4,340.5,300.0
944.3,648,19.4,19.0,98,14.80,77,9.1,297.4,340.4,300.0
943.7,653,19.3,18.9,97,14.73,77,9.1,297.4,340.2,300.0
943.1,659,19.3,18.8,97,14.66,77,9.2,297.4,340.0,300.0
942.6,664,19.2,18.8,97,14.62,77,9.2,297.4,339.9,300.0
942.0,669,19.2,18.7,97,14.59,77,9.3,297.4,339.8,300.0
941.5,674,19.2,18.7,97,14.60,77,9.3,297.4,339.8,300.0
940.9,679,19.1,18.7,97,14.57,78,9.4,297.4,339.8,300.0
940.3,684,19.1,18.7,97,14.57,78,9.5,297.5,339.8,300.1
939.7,690,19.1,18.8,98,14.66,78,9.6,297.5,340.1,300.1
939.1,695,19.0,18.8,99,14.69,78,9.7,297.5,340.2,300.1
938.5,701,19.0,18.7,98,14.58,78,9.8,297.5,339.9,300.1
937.8,707,18.9,18.5,98,14.47,78,9.9,297.5,339.6,300.1
937.2,713,18.9,18.4,97,14.34,78,10.0,297.5,339.2,300.0
936.5,719,18.9,18.2,96,14.19,78,10.1,297.5,338.8,300.1
935.9,725,18.9,18.1,95,14.09,78,10.2,297.6,338.6,300.1
935.2,731,18.8,18.1,96,14.12,78,10.3,297.6,338.7,300.1
934.6,737,18.8,18.2,97,14.21,78,10.4,297.6,338.9,300.1
934.0,742,18.7,18.2,97,14.22,78,10.5,297.6,338.9,300.1
933.4,748,18.6,18.1,97,14.18,78,10.6,297.6,338.8,300.1
932.8,753,18.6,18.0,97,14.10,79,10.7,297.6,338.6,300.1
932.3,758,18.6,17.9,96,13.96,79,10.8,297.6,338.2,300.1
931.7,763,18.5,17.8,95,13.88,79,10.8,297.6,338.0,300.1
931.2,768,18.5,17.8,95,13.87,79,10.9,297.7,338.0,300.1
930.7,773,18.5,17.7,95,13.86,80,11.0,297.7,338.0,300.2
930.2,778,18.5,17.8,96,13.88,80,11.0,297.7,338.1,300.2
929.6,783,18.4,17.9,96,13.99,80,11.1,297.7,338.5,300.2
929.1,788,18.4,18.0,98,14.16,81,11.1,297.7,339.0,300.3
928.5,793,18.4,18.1,99,14.23,81,11.2,297.7,339.2,300.3
927.9,798,18.3,17.9,98,14.07,82,11.2,297.7,338.7,300.2
927.4,804,18.2,17.7,97,13.89,82,11.2,297.7,338.1,300.2
926.8,809,18.2,17.7,97,13.85,83,11.3,297.7,338.0,300.2
926.2,815,18.1,17.7,97,13.85,83,11.3,297.7,338.1,300.2
925.5,820,18.1,17.6,97,13.85,84,11.3,297.7,338.1,300.2
925.0,826,18.0,17.6,97,13.83,84,11.3,297.7,338.0,300.2
924.9,826,18.0,17.6,98,13.83,84,11.3,297.7,338.0,300.2
924.4,832,18.0,17.6,98,13.82,85,11.3,297.7,338.0,300.2
923.8,837,17.9,17.6,98,13.84,85,11.3,297.7,338.0,300.2
923.2,843,17.9,17.6,99,13.88,86,11.3,297.7,338.1,300.2
922.6,848,17.8,17.7,99,13.92,86,11.3,297.7,338.3,300.2
922.0,853,17.8,17.7,99,13.93,87,11.3,297.7,338.3,300.2
921.5,858,17.7,17.7,99,13.92,87,11.3,297.8,338.3,300.2
921.0,863,17.7,17.6,99,13.91,88,11.3,297.8,338.3,300.3
920.4,868,17.7,17.6,100,13.93,88,11.3,297.8,338.4,300.3
919.8,874,17.7,17.6,100,13.93,88,11.4,297.9,338.5,300.4
919.3,879,17.7,17.6,100,13.90,89,11.4,297.9,338.4,300.4
918.7,885,17.6,17.5,99,13.86,89,11.4,297.9,338.3,300.4
918.1,890,17.6,17.3,98,13.65,90,11.4,297.9,337.7,300.3
917.5,896,17.5,17.0,97,13.37,90,11.4,297.8,336.8,300.2
916.9,902,17.4,16.7,95,13.15,90,11.5,297.9,336.2,300.2
916.3,907,17.4,16.6,95,13.08,91,11.5,297.9,336.1,300.3
915.7,912,17.4,16.6,95,13.07,91,11.6,298.0,336.1,300.3
915.1,918,17.4,16.5,95,13.05,91,11.6,298.0,336.1,300.3
914.6,923,17.4,16.5,95,13.03,92,11.7,298.0,336.0,300.3
914.0,928,17.3,16.5,95,13.03,92,11.7,298.0,336.1,300.4
913.4,934,17.3,16.5,95,13.03,92,11.8,298.1,336.1,300.4
912.9,939,17.3,16.5,95,13.03,93,11.8,298.1,336.1,300.4
912.3,944,17.2,16.4,95,13.01,93,11.9,298.1,336.0,300.4
911.8,949,17.2,16.4,95,12.96,93,12.0,298.1,335.9,300.4
911.2,954,17.2,16.3,95,12.90,94,12.0,298.1,335.8,300.4
910.7,960,17.1,16.2,94,12.84,94,12.1,298.1,335.6,300.4
910.1,965,17.1,16.1,94,12.77,94,12.2,298.2,335.5,300.5
909.6,970,17.1,16.0,94,12.71,95,12.3,298.2,335.3,300.5
909.1,974,17.1,16.0,93,12.67,95,12.4,298.2,335.2,300.5
908.6,979,17.1,16.0,93,12.65,95,12.5,298.3,335.2,300.5
908.1,983,17.0,15.9,93,12.63,96,12.5,298.3,335.2,300.5
907.7,988,17.0,15.9,93,12.63,96,12.6,298.3,335.2,300.5
907.2,992,17.0,15.9,93,12.62,96,12.7,298.3,335.2,300.5
906.8,996,16.9,15.9,93,12.60,96,12.8,298.3,335.1,300.5
906.3,1000,16.9,15.8,93,12.57,97,12.9,298.3,335.0,300.5
905.9,1005,16.9,15.7,93,12.45,97,13.0,298.3,334.7,300.5
905.4,1009,16.9,15.4,91,12.24,97,13.0,298.4,334.2,300.5
904.9,1014,16.9,15.0,89,11.97,97,13.1,298.5,333.5,300.6
904.4,1018,17.0,14.7,86,11.70,98,13.2,298.6,332.9,300.7
903.9,1023,17.1,14.5,85,11.56,98,13.2,298.7,332.6,300.8
903.4,1028,17.1,14.5,84,11.53,98,13.3,298.8,332.6,300.9
902.9,1033,17.1,14.5,85,11.54,98,13.4,298.8,332.7,300.9
902.4,1038,17.0,14.5,85,11.55,98,13.4,298.8,332.7,300.9
901.9,1043,17.0,14.4,85,11.54,98,13.5,298.8,332.7,300.9
901.4,1047,17.0,14.4,85,11.52,99,13.5,298.9,332.7,300.9
900.8,1052,16.9,14.3,85,11.48,99,13.5,298.9,332.6,300.9
900.3,1057,16.9,14.3,84,11.42,99,13.5,298.9,332.4,301.0
899.8,1062,16.9,14.1,84,11.32,99,13.5,298.9,332.2,301.0
899.3,1067,16.9,14.0,83,11.23,99,13.6,299.0,332.0,301.0
898.8,1072,16.9,13.9,82,11.16,99,13.6,299.0,331.8,301.0
898.3,1077,16.9,13.8,82,11.11,99,13.6,299.1,331.7,301.1
897.8,1082,16.9,13.8,82,11.10,99,13.6,299.1,331.7,301.1
897.2,1087,16.8,13.8,82,11.12,99,13.5,299.1,331.8,301.1
896.7,1092,16.8,13.8,83,11.12,99,13.5,299.1,331.8,301.1
896.1,1097,16.7,13.8,83,11.10,99,13.5,299.1,331.8,301.1
895.6,1102,16.7,13.7,83,11.09,99,13.5,299.1,331.7,301.1
895.1,1107,16.7,13.7,83,11.09,99,13.5,299.1,331.8,301.1
894.5,1113,16.6,13.7,83,11.09,99,13.4,299.2,331.8,301.2
894.0,1118,16.6,13.7,83,11.10,98,13.4,299.2,331.8,301.2
893.4,1123,16.6,13.7,83,11.11,98,13.4,299.2,331.9,301.2
892.8,1129,16.6,13.7,83,11.12,98,13.4,299.2,332.0,301.2
892.3,1134,16.5,13.6,83,11.06,98,13.3,299.3,331.8,301.2
891.7,1140,16.5,13.4,82,10.93,98,13.3,299.3,331.5,301.3
891.1,1145,16.5,13.3,81,10.81,97,13.3,299.4,331.2,301.3
890.6,1150,16.5,13.2,80,10.74,97,13.3,299.4,331.1,301.4
890.0,1156,16.5,13.1,80,10.73,97,13.3,299.5,331.1,301.4
889.5,1161,16.5,13.1,80,10.71,97,13.3,299.5,331.1,301.4
889.0,1166,16.5,13.1,81,10.72,96,13.3,299.5,331.1,301.4
888.4,1171,16.4,13.1,81,10.74,96,13.3,299.5,331.2,301.4
887.9,1176,16.4,13.1,81,10.71,96,13.3,299.5,331.1,301.4
887.4,1180,16.3,13.0,81,10.66,96,13.3,299.5,330.9,301.4
886.9,1185,16.3,12.9,80,10.61,95,13.3,299.5,330.8,301.5
886.4,1190,16.3,12.9,80,10.60,95,13.3,299.6,330.9,301.5
885.9,1195,16.3,12.9,80,10.62,95,13.3,299.6,331.0,301.5
885.4,1200,16.3,13.0,81,10.67,95,13.3,299.7,331.1,301.6
884.8,1205,16.2,13.0,81,10.72,94,13.3,299.7,331.3,301.6
884.3,1211,16.2,13.0,82,10.73,94,13.4,299.7,331.3,301.6
883.8,1216,16.1,13.0,81,10.69,94,13.4,299.7,331.2,301.6
883.2,1221,16.1,12.9,81,10.64,94,13.4,299.7,331.1,301.6
882.7,1226,16.1,12.9,81,10.62,94,13.5,299.8,331.1,301.7
882.1,1232,16.1,12.8,81,10.59,94,13.5,299.8,331.1,301.7
881.6,1237,16.1,12.7,80,10.54,94,13.5,299.8,331.0,301.7
881.0,1242,16.1,12.6,80,10.44,94,13.6,299.9,330.8,301.8
880.5,1247,16.1,12.4,79,10.36,93,13.6,300.0,330.6,301.9
880.0,1252,16.2,12.4,78,10.34,93,13.6,300.1,330.7,302.0
879.4,1258,16.3,12.5,78,10.42,93,13.7,300.2,331.1,302.1
878.9,1263,16.3,12.7,79,10.53,93,13.7,300.3,331.4,302.2
878.4,1268,16.2,12.8,80,10.63,93,13.7,300.3,331.8,302.2
877.8,1273,16.2,12.9,81,10.71,93,13.8,300.3,332.0,302.3
877.3,1278,16.2,12.9,81,10.74,94,13.8,300.3,332.1,302.3
876.7,1284,16.1,13.0,82,10.77,94,13.8,300.3,332.2,302.3
876.2,1289,16.1,12.9,82,10.77,94,13.9,300.3,332.2,302.3
875.7,1294,16.0,12.9,82,10.75,94,13.9,300.3,332.1,302.3
875.1,1299,16.0,12.9,82,10.72,94,13.9,300.4,332.1,302.3
874.6,1304,15.9,12.8,82,10.69,94,13.9,300.4,332.0,302.3
874.1,1309,15.9,12.8,82,10.68,94,14.0,300.4,332.0,302.3
873.6,1315,15.9,12.8,82,10.68,94,14.0,300.4,332.0,302.3
873.1,1320,15.8,12.8,82,10.72,94,14.0,300.4,332.1,302.3
872.5,1325,15.8,12.8,83,10.74,94,14.0,300.4,332.2,302.4
872.0,1330,15.7,12.9,83,10.75,94,14.0,300.4,332.2,302.4
871.4,1335,15.7,12.9,83,10.76,95,14.0,300.4,332.3,302.4
870.9,1341,15.6,12.8,83,10.76,95,14.1,300.4,332.3,302.4
870.3,1346,15.6,12.8,84,10.76,95,14.1,300.4,332.3,302.4
869.7,1352,15.6,12.9,84,10.78,95,14.1,300.4,332.4,302.4
869.2,1358,15.5,12.9,84,10.80,95,14.1,300.4,332.4,302.4
868.6,1363,15.5,12.9,85,10.81,95,14.0,300.5,332.4,302.4
868.0,1369,15.4,12.9,85,10.80,95,14.0,300.5,332.4,302.4
867.4,1375,15.3,12.8,85,10.80,95,14.0,300.4,332.4,302.4
866.8,1381,15.3,12.8,85,10.78,95,14.0,300.5,332.3,302.4
866.2,1387,15.2,12.8,85,10.77,95,14.0,300.5,332.3,302.4
865.6,1393,15.2,12.8,86,10.78,95,14.0,300.5,332.4,302.4
865.0,1399,15.1,12.8,86,10.80,95,14.0,300.5,332.4,302.4
864.4,1405,15.1,12.8,86,10.84,95,13.9,300.5,332.5,302.4
863.8,1410,15.0,12.9,87,10.87,94,13.9,300.5,332.7,302.5
863.2,1416,15.0,12.9,87,10.89,94,13.9,300.5,332.7,302.5
862.7,1421,15.0,12.9,88,10.91,94,13.9,300.5,332.8,302.5
862.1,1427,14.9,12.9,88,10.92,94,13.8,300.5,332.8,302.5
861.6,1432,14.9,12.9,88,10.91,94,13.8,300.5,332.8,302.5
861.1,1437,14.8,12.9,88,10.91,94,13.8,300.6,332.8,302.5
860.6,1442,14.8,12.9,88,10.93,94,13.8,300.6,332.9,302.5
860.1,1447,14.8,13.0,89,10.98,93,13.7,300.6,333.1,302.6
859.5,1452,14.8,13.0,89,11.04,93,13.7,300.6,333.3,302.6
859.0,1457,14.8,13.1,90,11.09,93,13.7,300.7,333.5,302.7
858.5,1463,14.8,13.1,90,11.14,93,13.7,300.8,333.7,302.8
858.0,1468,14.8,13.1,90,11.14,93,13.6,300.8,333.8,302.8
857.4,1473,14.7,13.1,90,11.12,93,13.6,300.8,333.7,302.8
856.9,1478,14.7,13.1,90,11.10,93,13.6,300.8,333.7,302.8
856.4,1484,14.6,13.0,90,11.08,92,13.6,300.8,333.6,302.8
855.8,1489,14.6,13.0,90,11.06,92,13.6,300.8,333.6,302.8
855.3,1494,14.5,13.0,90,11.04,92,13.6,300.8,333.5,302.8
854.8,1499,14.5,12.9,91,11.04,92,13.6,300.8,333.5,302.8
854.2,1505,14.4,12.9,91,11.05,92,13.6,300.8,333.5,302.8
853.7,1510,14.4,13.0,91,11.08,92,13.6,300.8,333.6,302.8
853.1,1516,14.3,13.0,92,11.11,92,13.6,300.8,333.7,302.8
852.5,1522,14.3,13.0,92,11.10,92,13.6,300.8,333.7,302.8
851.9,1528,14.2,12.9,92,11.06,92,13.6,300.8,333.6,302.8
851.3,1534,14.1,12.8,92,11.01,92,13.6,300.8,333.4,302.8
850.7,1540,14.1,12.8,92,10.98,92,13.6,300.8,333.3,302.8
850.1,1546,14.0,12.7,92,10.95,92,13.6,300.8,333.3,302.8
850.0,1547,14.0,12.7,92,10.96,92,13.6,300.8,333.3,302.8
849.5,1552,14.0,12.7,92,10.96,92,13.6,300.8,333.3,302.8
848.9,1558,13.9,12.7,93,10.96,92,13.7,300.8,333.3,302.8
848.3,1563,13.9,12.7,93,10.98,92,13.7,300.8,333.4,302.8
847.8,1569,13.8,12.8,93,11.00,92,13.7,300.8,333.4,302.8
847.2,1575,13.8,12.8,94,11.03,92,13.7,300.9,333.5,302.9
846.6,1580,13.8,12.8,94,11.06,92,13.7,300.9,333.7,302.9
846.1,1586,13.7,12.8,94,11.07,92,13.8,300.9,333.7,302.9
845.5,1592,13.7,12.8,94,11.05,92,13.8,300.9,333.6,302.9
844.9,1597,13.6,12.8,95,11.05,92,13.8,300.9,333.6,302.9
844.4,1603,13.6,12.8,95,11.05,92,13.8,300.9,333.7,302.9
843.8,1608,13.5,12.8,95,11.07,91,13.8,300.9,333.7,302.9
843.3,1614,13.5,12.8,96,11.12,91,13.8,300.9,333.9,302.9
842.8,1619,13.5,12.9,96,11.16,91,13.8,301.0,334.0,303.0
842.2,1624,13.4,12.9,97,11.16,91,13.7,301.0,334.0,303.0
841.7,1629,13.4,12.8,96,11.13,91,13.7,301.0,334.0,303.0
841.3,1634,13.3,12.8,96,11.11,90,13.7,301.0,333.9,303.0
840.8,1639,13.3,12.8,97,11.14,90,13.7,301.0,334.0,303.0
840.3,1643,13.3,12.9,98,11.21,90,13.6,301.0,334.2,303.0
839.8,1648,13.2,13.0,98,11.26,90,13.6,301.0,334.4,303.1
839.4,1653,13.2,13.0,99,11.29,90,13.5,301.0,334.5,303.1
838.9,1658,13.2,13.0,99,11.27,90,13.5,301.0,334.4,303.1
838.3,1663,13.1,12.9,99,11.24,90,13.4,301.1,334.4,303.1
837.8,1669,13.1,12.9,99,11.21,90,13.4,301.1,334.3,303.1
837.3,1674,13.0,12.8,99,11.18,90,13.3,301.1,334.2,303.1
836.8,1679,13.0,12.8,98,11.15,90,13.2,301.1,334.2,303.1
836.3,1684,13.0,12.7,98,11.12,90,13.2,301.2,334.1,303.2
835.8,1689,13.0,12.6,98,11.06,91,13.1,301.2,334.0,303.2
835.3,1694,13.0,12.6,97,11.02,91,13.0,301.2,333.9,303.2
834.8,1699,12.9,12.5,97,11.00,91,13.0,301.2,333.9,303.2
834.4,1703,12.9,12.5,98,11.02,91,12.9,301.3,333.9,303.3
833.9,1708,12.9,12.6,98,11.05,92,12.9,301.3,334.1,303.3
833.5,1712,12.9,12.6,98,11.07,92,12.8,301.3,334.1,303.3
833.0,1717,12.9,12.6,98,11.07,92,12.8,301.3,334.2,303.3
832.6,1722,12.8,12.6,98,11.08,92,12.7,301.3,334.2,303.4
832.1,1726,12.8,12.6,99,11.10,93,12.7,301.4,334.3,303.4
831.6,1731,12.8,12.6,99,11.11,93,12.7,301.4,334.3,303.4
831.1,1737,12.7,12.6,99,11.11,93,12.7,301.4,334.3,303.4
830.5,1742,12.7,12.6,100,11.11,93,12.6,301.4,334.4,303.4
830.0,1748,12.6,12.6,100,11.11,93,12.6,301.4,334.4,303.4
829.4,1754,12.6,12.5,100,11.08,93,12.6,301.4,334.3,303.4
828.8,1760,12.6,12.4,99,11.02,94,12.6,301.5,334.2,303.5
828.2,1766,12.5,12.4,99,10.97,94,12.6,301.5,334.1,303.5
827.7,1771,12.5,12.4,99,10.97,93,12.6,301.5,334.1,303.5
827.1,1777,12.5,12.4,99,10.98,93,12.6,301.6,334.2,303.6
826.5,1783,12.5,12.4,99,10.98,93,12.6,301.6,334.2,303.6
826.0,1789,12.4,12.3,99,10.96,93,12.6,301.6,334.2,303.6
825.4,1794,12.4,12.3,99,10.95,93,12.6,301.7,334.2,303.6
824.9,1800,12.4,12.3,99,10.95,93,12.7,301.7,334.2,303.7
824.3,1805,12.4,12.3,99,10.95,92,12.7,301.7,334.3,303.7
823.8,1811,12.4,12.3,99,10.96,92,12.7,301.8,334.4,303.8
823.3,1816,12.4,12.2,99,10.95,92,12.7,301.8,334.4,303.8
822.7,1822,12.3,12.2,99,10.90,91,12.8,301.8,334.3,303.8
822.2,1827,12.3,12.1,99,10.88,91,12.8,301.9,334.2,303.8
821.7,1832,12.3,12.2,99,10.90,90,12.8,301.9,334.3,303.9
821.2,1837,12.3,12.2,100,10.94,90,12.9,301.9,334.5,303.9
820.7,1843,12.3,12.2,100,10.95,90,12.9,302.0,334.6,304.0
820.2,1848,12.2,12.2,99,10.92,89,12.9,302.0,334.5,304.0
819.7,1853,12.2,12.1,99,10.90,89,13.0,302.0,334.5,304.0
819.1,1859,12.2,12.1,99,10.90,88,13.0,302.1,334.5,304.1
818.6,1864,12.1,12.0,99,10.86,88,13.1,302.1,334.4,304.0
818.1,1869,12.1,12.0,99,10.83,87,13.1,302.1,334.3,304.0
817.6,1875,12.0,12.0,99,10.81,87,13.2,302.1,334.3,304.0
817.0,1880,12.0,11.9,99,10.80,86,13.2,302.1,334.3,304.1
816.5,1885,12.0,11.9,99,10.78,86,13.3,302.2,334.3,304.1
816.0,1890,12.0,11.9,99,10.77,86,13.4,302.2,334.3,304.1
815.6,1895,12.0,11.9,99,10.78,85,13.4,302.2,334.3,304.2
815.1,1900,11.9,11.9,100,10.79,85,13.5,302.2,334.4,304.2
814.6,1905,11.9,11.9,100,10.80,84,13.5,302.3,334.5,304.2
814.2,1910,11.9,11.9,100,10.81,84,13.6,302.3,334.6,304.3
813.7,1914,12.0,11.9,100,10.82,83,13.7,302.4,334.7,304.4
