PRES,HGHT,TEMP,DWPT,RELH,MIXR,DRCT,SPED,THTA,THTE,THTV
1012.2,31,22.0,20.8,93,15.48,269,2.1,294.1,338.5,296.9
1012.0,32,22.4,21.5,95,16.12,276,2.1,294.5,340.8,297.4
1011.7,35,22.1,21.5,96,16.12,279,2.2,294.3,340.5,297.1
1011.1,40,22.0,21.5,97,16.15,280,2.4,294.3,340.5,297.1
1010.3,47,22.0,21.4,96,16.10,281,2.5,294.3,340.5,297.2
1010.0,50,22.0,21.3,96,15.97,281,2.7,294.3,340.1,297.1
1009.6,53,22.1,21.2,95,15.93,281,2.8,294.4,340.1,297.2
1009.0,58,22.1,21.1,94,15.83,281,2.9,294.5,339.9,297.3
1008.5,63,22.1,20.9,93,15.62,281,3.0,294.5,339.3,297.3
1008.0,67,22.1,20.7,92,15.38,281,3.1,294.5,338.7,297.3
1007.6,71,22.1,20.4,90,15.17,282,3.2,294.6,338.1,297.3
1007.1,75,22.1,20.2,89,14.99,282,3.3,294.7,337.7,297.3
1006.7,78,22.1,20.1,88,14.90,282,3.3,294.7,337.5,297.4
1006.3,82,22.1,20.1,88,14.84,282,3.4,294.8,337.4,297.4
1005.9,85,22.1,20.0,87,14.75,282,3.4,294.8,337.2,297.4
1005.5,88,22.2,19.9,87,14.70,282,3.4,294.8,337.1,297.4
1005.2,91,22.2,19.9,87,14.70,282,3.4,294.9,337.2,297.5
1004.8,95,22.2,19.9,87,14.74,282,3.4,295.0,337.4,297.6
1004.5,98,22.3,20.0,87,14.80,281,3.3,295.0,337.6,297.6
1004.1,101,22.3,20.0,87,14.82,281,3.3,295.1,337.7,297.7
1003.7,104,22.3,20.0,87,14.85,281,3.3,295.1,337.8,297.7
1003.4,107,22.3,20.0,87,14.87,280,3.2,295.1,337.9,297.7
1003.0,110,22.3,20.1,87,14.89,279,3.1,295.2,338.0,297.8
1002.6,113,22.3,20.1,87,14.91,279,3.1,295.2,338.2,297.9
1002.3,117,22.3,20.1,87,14.92,278,3.0,295.2,338.2,297.9
1001.8,120,22.3,20.1,87,14.92,277,2.9,295.3,338.2,297.9
1001.4,124,22.3,20.1,87,14.91,276,2.8,295.3,338.2,297.9
1001.0,128,22.2,20.0,87,14.87,275,2.7,295.3,338.1,297.9
1000.5,132,22.2,19.9,87,14.81,273,2.7,295.3,338.0,297.9
1000.1,136,22.2,19.9,87,14.76,272,2.6,295.3,337.8,297.9
1000.0,136,22.2,19.9,87,14.76,270,2.5,295.3,337.8,297.9
999.6,140,22.2,19.8,87,14.74,270,2.5,295.3,337.8,297.9
999.2,143,22.1,19.8,87,14.74,268,2.4,295.3,337.8,297.9
998.8,147,22.1,19.8,87,14.70,267,2.4,295.3,337.7,297.9
998.4,150,22.1,19.7,86,14.59,265,2.3,295.3,337.4,297.9
998.0,154,22.0,19.6,86,14.51,263,2.2,295.4,337.2,297.9
997.6,157,22.0,19.5,86,14.49,261,2.2,295.4,337.2,298.0
997.3,160,22.0,19.5,86,14.49,259,2.1,295.4,337.2,298.0
996.9,163,22.0,19.6,86,14.53,257,2.1,295.5,337.3,298.0
996.5,167,22.0,19.6,86,14.56,255,2.0,295.5,337.5,298.1
996.1,170,22.0,19.6,86,14.58,253,2.0,295.5,337.5,298.1
995.7,174,22.0,19.6,86,14.54,252,2.0,295.5,337.5,298.1
995.3,177,22.0,19.5,85,14.46,250,1.9,295.6,337.3,298.1
994.8,181,22.1,19.4,85,14.39,249,1.9,295.6,337.2,298.2
994.4,185,22.1,19.4,85,14.37,248,1.9,295.7,337.2,298.2
993.9,190,22.0,19.3,85,14.35,247,1.9,295.7,337.1,298.2
993.4,194,22.1,19.3,84,14.34,246,1.9,295.8,337.2,298.3
992.9,198,22.0,19.3,85,14.34,245,1.9,295.8,337.2,298.3
992.4,203,22.0,19.3,85,14.33,245,1.9,295.8,337.2,298.3
991.9,207,22.0,19.2,84,14.28,245,1.8,295.8,337.1,298.4
991.5,211,22.0,19.1,84,14.21,244,1.8,295.9,336.9,298.4
991.0,215,22.0,19.1,84,14.17,244,1.8,295.9,336.8,298.4
990.5,219,22.0,19.1,84,14.17,244,1.8,295.9,336.9,298.4
990.1,223,22.0,19.1,84,14.16,244,1.9,296.0,336.9,298.5
989.6,227,22.0,19.1,84,14.17,244,1.9,296.0,337.0,298.5
989.2,231,21.9,19.1,84,14.18,244,1.9,296.0,337.0,298.5
988.8,235,21.9,19.0,84,14.16,243,1.9,296.0,337.0,298.5
988.4,238,21.9,19.0,83,14.11,243,1.9,296.0,336.8,298.5
988.1,241,21.9,18.9,83,14.06,243,1.9,296.1,336.7,298.6
987.7,244,21.9,18.9,83,14.03,242,1.9,296.1,336.7,298.6
987.4,247,21.9,18.9,83,14.04,242,1.8,296.1,336.8,298.6
987.1,249,21.9,18.9,83,14.03,241,1.8,296.1,336.7,298.6
986.9,252,21.9,18.8,83,13.98,240,1.8,296.1,336.6,298.6
986.6,254,21.9,18.8,83,13.97,238,1.8,296.1,336.6,298.6
986.4,256,21.8,18.8,83,13.96,237,1.7,296.1,336.5,298.6
986.1,258,21.8,18.8,83,13.94,235,1.7,296.2,336.5,298.6
985.9,260,21.8,18.7,83,13.93,233,1.6,296.2,336.5,298.6
985.7,262,21.8,18.7,82,13.88,230,1.6,296.2,336.3,298.6
985.5,264,21.8,18.6,82,13.83,227,1.5,296.2,336.2,298.6
985.3,266,21.8,18.5,82,13.77,224,1.4,296.2,336.1,298.7
985.0,268,21.8,18.4,81,13.65,220,1.4,296.2,335.7,298.7
984.8,270,21.8,18.2,80,13.44,216,1.3,296.3,335.2,298.7
984.6,272,21.8,17.9,78,13.23,210,1.2,296.3,334.6,298.7
984.3,274,21.9,17.7,77,13.07,204,1.1,296.3,334.2,298.7
984.1,276,21.9,17.7,77,13.02,197,1.0,296.4,334.1,298.7
983.9,278,21.8,17.7,77,13.05,188,1.0,296.3,334.1,298.7
983.6,280,21.8,17.7,77,13.04,178,0.9,296.3,334.1,298.7
983.4,282,21.8,17.7,77,13.03,168,0.9,296.3,334.1,298.7
983.2,284,21.8,17.7,78,13.07,157,0.9,296.3,334.2,298.7
983.0,285,21.7,17.8,78,13.19,146,0.9,296.3,334.6,298.7
982.8,287,21.7,18.0,79,13.31,136,1.0,296.3,334.9,298.7
982.6,289,21.7,18.0,80,13.34,127,1.1,296.3,335.0,298.7
982.4,291,21.7,18.0,80,13.36,120,1.2,296.3,335.0,298.7
982.2,293,21.6,18.0,80,13.35,114,1.3,296.3,335.0,298.7
982.0,295,21.6,18.0,80,13.38,109,1.4,296.3,335.0,298.7
981.8,296,21.6,18.0,80,13.38,104,1.5,296.3,335.0,298.7
981.6,298,21.6,18.0,80,13.36,100,1.6,296.3,335.0,298.6
981.4,300,21.5,18.0,80,13.36,97,1.7,296.3,335.0,298.6
981.2,301,21.5,18.1,81,13.40,95,1.9,296.3,335.1,298.6
981.0,303,21.5,18.1,81,13.44,93,2.0,296.3,335.2,298.7
980.9,305,21.5,18.1,81,13.45,91,2.1,296.3,335.2,298.6
980.7,306,21.5,18.1,81,13.40,90,2.2,296.3,335.1,298.6
980.5,308,21.5,18.0,81,13.39,89,2.3,296.3,335.1,298.7
980.3,310,21.4,18.0,81,13.39,88,2.3,296.3,335.1,298.6
980.1,311,21.4,18.0,81,13.39,88,2.4,296.3,335.1,298.7
979.9,313,21.4,18.0,81,13.40,87,2.5,296.3,335.1,298.7
979.7,315,21.4,18.1,81,13.43,87,2.6,296.3,335.2,298.7
979.5,317,21.4,18.1,81,13.45,88,2.6,296.3,335.2,298.7
979.3,319,21.4,18.1,82,13.46,88,2.7,296.3,335.3,298.7
979.1,320,21.4,18.1,81,13.43,89,2.7,296.3,335.2,298.7
978.9,322,21.3,18.0,81,13.38,90,2.7,296.3,335.0,298.7
978.6,325,21.4,18.0,81,13.37,91,2.8,296.3,335.0,298.7
978.4,327,21.3,18.0,81,13.37,92,2.8,296.3,335.0,298.7
978.1,329,21.3,17.9,81,13.33,94,2.8,296.3,334.9,298.7
977.9,331,21.3,17.8,81,13.25,95,2.8,296.3,334.7,298.7
977.7,333,21.3,17.7,80,13.12,97,2.9,296.3,334.3,298.7
977.4,335,21.3,17.4,78,12.86,99,2.9,296.3,333.6,298.6
977.2,337,21.3,17.1,77,12.62,101,2.9,296.4,333.0,298.7
977.0,339,21.4,17.0,76,12.54,103,2.9,296.5,332.9,298.7
976.8,341,21.4,17.0,76,12.59,105,2.9,296.5,333.0,298.7
976.6,342,21.3,17.1,77,12.62,107,2.9,296.5,333.1,298.7
976.4,344,21.3,17.1,77,12.62,109,3.0,296.5,333.1,298.7
976.2,346,21.3,17.1,77,12.64,111,3.0,296.5,333.1,298.7
975.9,348,21.3,17.1,77,12.66,113,3.0,296.5,333.2,298.8
975.7,351,21.3,17.1,77,12.67,115,3.0,296.5,333.3,298.8
975.4,353,21.3,17.1,77,12.70,117,3.0,296.5,333.3,298.8
975.1,356,21.2,17.1,77,12.71,118,3.1,296.5,333.4,298.8
974.9,358,21.2,17.1,77,12.71,120,3.1,296.5,333.4,298.8
974.6,360,21.2,17.1,77,12.68,122,3.1,296.5,333.3,298.8
974.3,363,21.2,17.1,77,12.66,123,3.1,296.5,333.2,298.8
974.1,365,21.1,17.1,77,12.65,125,3.1,296.5,333.2,298.8
973.9,367,21.1,17.1,78,12.66,126,3.1,296.5,333.2,298.8
973.6,369,21.1,17.1,78,12.66,127,3.1,296.5,333.3,298.8
973.4,371,21.1,17.1,78,12.67,128,3.1,296.5,333.3,298.8
973.2,372,21.1,17.1,78,12.67,130,3.1,296.5,333.3,298.8
973.1,374,21.1,17.1,78,12.67,131,3.1,296.5,333.3,298.8
972.9,376,21.1,17.1,78,12.70,132,3.1,296.5,333.4,298.8
972.7,377,21.0,17.1,78,12.73,133,3.1,296.5,333.5,298.8
972.5,379,21.0,17.2,78,12.76,134,3.0,296.5,333.5,298.8
972.3,381,21.0,17.2,79,12.83,135,3.0,296.5,333.8,298.8
972.1,382,21.0,17.4,80,12.95,136,2.9,296.5,334.1,298.8
972.0,384,21.0,17.6,81,13.17,137,2.9,296.5,334.7,298.9
971.8,385,20.9,17.8,82,13.30,138,2.8,296.5,335.1,298.9
971.6,387,20.9,17.9,83,13.37,139,2.7,296.5,335.3,298.9
971.4,388,20.9,18.0,83,13.50,140,2.7,296.5,335.7,298.9
971.3,390,20.9,18.1,84,13.60,141,2.6,296.5,335.9,298.9
971.1,392,20.9,18.1,84,13.61,142,2.5,296.5,336.0,299.0
970.9,393,20.9,18.1,84,13.60,144,2.4,296.6,336.0,299.0
970.7,395,20.9,18.1,84,13.59,145,2.3,296.6,336.0,299.0
970.4,398,20.9,18.1,84,13.59,147,2.2,296.6,336.0,299.0
970.2,400,20.9,18.1,84,13.61,148,2.1,296.6,336.0,299.0
969.9,402,20.8,18.1,84,13.58,150,2.0,296.5,335.9,299.0
969.6,405,20.8,18.0,84,13.52,152,1.9,296.6,335.7,299.0
969.3,407,20.8,17.9,84,13.46,154,1.8,296.6,335.6,299.0
969.1,410,20.8,17.9,84,13.46,155,1.7,296.6,335.6,299.0
968.8,412,20.8,18.0,84,13.51,157,1.5,296.6,335.8,299.0
968.6,414,20.7,18.1,85,13.58,159,1.4,296.6,335.9,299.0
968.4,416,20.7,18.1,85,13.66,161,1.3,296.6,336.2,299.0
968.2,417,20.7,18.2,85,13.69,162,1.2,296.6,336.3,299.0
968.0,419,20.7,18.1,85,13.66,163,1.1,296.6,336.2,299.0
967.8,421,20.7,18.1,85,13.65,164,1.0,296.6,336.2,299.0
967.7,422,20.7,18.1,85,13.64,165,0.9,296.6,336.1,299.0
967.5,424,20.7,18.1,85,13.66,165,0.8,296.6,336.2,299.0
967.3,426,20.6,18.2,86,13.72,164,0.7,296.6,336.4,299.0
967.1,428,20.6,18.3,87,13.81,161,0.6,296.6,336.6,299.0
966.9,429,20.6,18.4,87,13.90,158,0.5,296.6,336.8,299.0
966.7,431,20.5,18.5,88,13.97,151,0.4,296.5,337.0,299.0
966.4,433,20.5,18.5,88,14.02,141,0.4,296.5,337.2,299.0
966.2,435,20.5,18.5,89,14.05,127,0.3,296.5,337.2,299.0
966.0,437,20.5,18.6,89,14.08,110,0.3,296.5,337.3,299.0
965.8,439,20.5,18.6,89,14.07,93,0.3,296.5,337.3,299.0
965.6,441,20.4,18.5,89,14.04,79,0.4,296.5,337.2,299.0
965.4,442,20.4,18.5,89,14.00,70,0.4,296.5,337.1,299.0
965.3,444,20.4,18.5,88,13.98,64,0.5,296.6,337.1,299.1
965.1,445,20.5,18.5,88,13.98,59,0.6,296.6,337.1,299.1
965.0,446,20.5,18.4,88,13.97,56,0.6,296.7,337.2,299.1
964.8,448,20.5,18.4,88,13.97,55,0.7,296.7,337.2,299.1
964.7,449,20.5,18.4,88,13.98,53,0.7,296.7,337.2,299.1
964.5,451,20.5,18.5,88,14.00,52,0.8,296.7,337.2,299.1
964.3,452,20.5,18.5,88,14.02,52,0.8,296.7,337.3,299.2
964.1,454,20.4,18.5,89,14.03,52,0.9,296.7,337.3,299.2
963.9,456,20.4,18.5,89,14.03,52,0.9,296.7,337.3,299.1
963.7,458,20.4,18.5,89,14.03,52,1.0,296.6,337.3,299.1
963.5,460,20.4,18.5,89,14.02,52,1.0,296.6,337.3,299.1
963.3,462,20.3,18.5,89,14.03,53,1.0,296.6,337.3,299.1
963.1,463,20.3,18.5,89,14.02,54,1.0,296.6,337.3,299.1
962.9,465,20.3,18.5,89,14.01,55,1.1,296.6,337.3,299.1
962.7,467,20.3,18.5,89,14.02,56,1.1,296.6,337.2,299.1
962.5,469,20.3,18.5,89,14.02,58,1.1,296.6,337.3,299.1
962.3,471,20.2,18.4,90,14.00,59,1.1,296.6,337.2,299.1
962.0,473,20.2,18.5,90,14.03,61,1.2,296.6,337.3,299.1
961.8,475,20.2,18.5,90,14.04,64,1.2,296.6,337.3,299.1
961.5,477,20.2,18.5,90,14.03,66,1.2,296.6,337.3,299.1
961.3,479,20.2,18.4,90,14.02,69,1.3,296.7,337.3,299.1
961.1,482,20.2,18.4,90,14.01,71,1.3,296.7,337.3,299.1
960.8,484,20.1,18.4,90,14.03,74,1.4,296.7,337.3,299.2
960.5,486,20.1,18.5,90,14.06,77,1.4,296.7,337.4,299.2
960.3,489,20.1,18.5,90,14.06,79,1.5,296.7,337.4,299.2
960.0,491,20.1,18.5,90,14.06,82,1.6,296.7,337.4,299.2
959.7,494,20.1,18.4,90,14.05,84,1.7,296.7,337.4,299.2
959.5,496,20.0,18.4,90,14.05,87,1.7,296.7,337.4,299.2
959.2,498,20.0,18.4,91,14.04,89,1.8,296.7,337.4,299.2
959.0,500,20.0,18.4,91,14.05,91,1.9,296.7,337.4,299.2
958.7,503,20.0,18.4,91,14.06,93,2.0,296.7,337.4,299.2
958.5,505,20.0,18.4,91,14.03,94,2.1,296.7,337.4,299.2
958.2,507,20.0,18.3,90,13.98,96,2.3,296.7,337.3,299.2
958.0,509,20.0,18.3,90,13.98,97,2.4,296.7,337.3,299.2
957.7,512,20.0,18.4,91,14.01,98,2.5,296.8,337.4,299.2
957.4,514,20.0,18.4,91,14.06,100,2.6,296.8,337.5,299.3
957.1,517,19.9,18.4,91,14.07,101,2.7,296.8,337.6,299.3
956.8,520,19.9,18.4,91,14.03,102,2.7,296.8,337.5,299.3
956.5,522,19.9,18.3,90,13.96,102,2.8,296.8,337.3,299.3
956.3,525,19.9,18.2,90,13.86,103,2.9,296.8,337.0,299.2
956.0,527,19.9,18.1,90,13.81,104,3.0,296.8,336.9,299.2
955.7,530,19.8,18.1,90,13.83,105,3.0,296.8,336.9,299.3
955.5,532,19.8,18.2,90,13.87,105,3.1,296.8,337.1,299.3
955.2,534,19.8,18.2,90,13.94,106,3.2,296.9,337.3,299.3
954.9,537,19.8,18.3,91,13.98,106,3.2,296.9,337.4,299.4
954.7,539,19.8,18.3,91,13.99,107,3.2,296.9,337.5,299.4
954.4,541,19.8,18.3,91,13.98,107,3.3,296.9,337.4,299.4
954.2,544,19.8,18.2,91,13.95,108,3.3,296.9,337.4,299.4
953.9,546,19.8,18.2,91,13.94,109,3.3,296.9,337.4,299.4
953.7,548,19.8,18.2,91,13.94,109,3.3,296.9,337.3,299.4
953.4,550,19.7,18.2,91,13.93,110,3.3,296.9,337.3,299.4
953.2,553,19.7,18.2,91,13.92,111,3.3,296.9,337.3,299.4
953.0,555,19.7,18.2,91,13.92,112,3.3,296.9,337.3,299.4
952.7,557,19.7,18.2,91,13.91,113,3.3,296.9,337.3,299.4
952.5,559,19.6,18.1,91,13.87,115,3.3,296.9,337.1,299.4
952.2,561,19.6,18.1,91,13.83,116,3.3,296.9,337.0,299.4
952.0,564,19.6,18.0,91,13.81,118,3.2,296.9,337.0,299.4
951.7,566,19.6,18.0,91,13.81,120,3.2,296.9,337.0,299.4
951.5,568,19.6,18.0,91,13.81,122,3.2,296.9,337.0,299.4
951.2,571,19.6,18.0,91,13.76,124,3.2,296.9,336.8,299.4
950.9,574,19.5,17.9,90,13.71,126,3.2,296.9,336.7,299.4
950.6,577,19.5,17.9,90,13.70,129,3.2,296.9,336.7,299.4
950.2,579,19.5,17.9,90,13.69,131,3.2,296.9,336.7,299.4
949.9,582,19.5,17.8,90,13.66,134,3.2,296.9,336.6,299.4
949.6,585,19.5,17.8,90,13.65,137,3.2,297.0,336.6,299.4
949.3,588,19.4,17.8,90,13.65,139,3.2,297.0,336.6,299.4
949.0,591,19.4,17.8,90,13.65,142,3.2,297.0,336.6,299.4
948.7,594,19.4,17.8,91,13.65,145,3.2,297.0,336.6,299.4
948.4,596,19.4,17.8,91,13.65,148,3.2,297.0,336.6,299.4
948.1,599,19.4,17.8,91,13.63,150,3.2,297.0,336.6,299.4
947.8,602,19.3,17.8,91,13.62,153,3.2,297.0,336.5,299.4
947.5,604,19.3,17.7,90,13.60,155,3.2,297.0,336.5,299.5
947.2,607,19.3,17.7,90,13.60,158,3.2,297.0,336.5,299.5
946.9,610,19.3,17.7,90,13.58,160,3.2,297.0,336.5,299.5
946.6,612,19.3,17.7,91,13.60,162,3.2,297.1,336.6,299.5
946.3,615,19.3,17.7,91,13.59,164,3.2,297.1,336.6,299.5
946.0,618,19.3,17.7,91,13.60,166,3.1,297.1,336.6,299.5
945.7,621,19.2,17.7,91,13.60,168,3.1,297.1,336.6,299.5
945.4,623,19.2,17.7,91,13.60,170,3.0,297.1,336.6,299.5
945.1,626,19.2,17.7,91,13.58,172,3.0,297.1,336.6,299.5
944.8,629,19.2,17.7,91,13.58,173,2.9,297.1,336.6,299.5
944.5,632,19.2,17.7,91,13.58,175,2.8,297.1,336.6,299.5
944.1,635,19.1,17.6,91,13.56,176,2.7,297.1,336.5,299.5
943.8,638,19.1,17.6,91,13.54,177,2.6,297.1,336.5,299.5
943.4,641,19.1,17.6,91,13.52,178,2.5,297.1,336.4,299.6
943.1,644,19.1,17.6,91,13.51,179,2.4,297.1,336.4,299.5
942.8,647,19.0,17.5,91,13.50,179,2.2,297.1,336.4,299.5
942.5,650,19.0,17.5,91,13.51,179,2.1,297.1,336.4,299.5
942.1,653,19.0,17.5,91,13.52,179,2.0,297.1,336.4,299.5
941.8,656,18.9,17.5,92,13.51,178,1.9,297.1,336.4,299.5
941.5,659,18.9,17.6,92,13.53,177,1.7,297.1,336.5,299.6
941.2,662,18.9,17.6,92,13.56,174,1.6,297.1,336.6,299.6
940.9,665,18.9,17.6,93,13.61,171,1.5,297.1,336.7,299.6
940.5,668,18.8,17.7,93,13.63,167,1.4,297.1,336.7,299.6
940.2,671,18.8,17.7,93,13.65,162,1.3,297.1,336.8,299.6
939.9,674,18.7,17.7,93,13.65,156,1.2,297.1,336.8,299.5
939.6,677,18.7,17.7,94,13.67,148,1.2,297.1,336.8,299.5
939.2,680,18.7,17.7,94,13.68,141,1.2,297.1,336.8,299.5
938.8,684,18.6,17.7,94,13.69,134,1.3,297.1,336.8,299.5
938.5,687,18.6,17.6,94,13.66,127,1.3,297.1,336.7,299.5
938.1,691,18.6,17.6,94,13.62,122,1.4,297.1,336.7,299.5
937.7,694,18.6,17.6,94,13.60,118,1.6,297.1,336.6,299.6
937.3,698,18.6,17.5,94,13.59,114,1.7,297.2,336.6,299.6
936.9,701,18.5,17.5,94,13.57,112,1.8,297.2,336.6,299.6
936.5,705,18.5,17.4,93,13.51,110,2.0,297.2,336.5,299.6
936.2,708,18.5,17.4,93,13.44,108,2.1,297.2,336.2,299.6
935.8,712,18.5,17.3,93,13.37,108,2.3,297.2,336.1,299.6
935.4,715,18.5,17.2,92,13.34,107,2.4,297.2,336.0,299.6
935.1,718,18.5,17.2,93,13.34,107,2.6,297.2,336.0,299.6
934.7,722,18.4,17.2,92,13.31,108,2.7,297.3,336.0,299.6
934.3,725,18.4,17.1,92,13.27,108,2.8,297.3,335.9,299.6
934.0,728,18.4,17.1,92,13.24,109,2.9,297.3,335.8,299.6
933.6,732,18.4,17.1,92,13.22,110,3.0,297.3,335.8,299.6
933.2,735,18.3,17.1,92,13.24,111,3.1,297.3,335.8,299.7
932.8,739,18.3,17.1,93,13.28,112,3.1,297.3,335.9,299.7
932.4,743,18.3,17.1,93,13.28,114,3.2,297.3,335.9,299.7
932.0,746,18.2,17.1,93,13.25,115,3.2,297.3,335.8,299.7
931.6,750,18.2,17.0,93,13.19,117,3.2,297.3,335.7,299.7
931.2,754,18.2,16.9,92,13.12,118,3.3,297.3,335.5,299.7
930.8,757,18.2,16.9,92,13.09,120,3.2,297.3,335.4,299.7
930.4,761,18.1,16.9,92,13.11,122,3.2,297.4,335.5,299.7
930.0,765,18.1,16.9,92,13.11,124,3.2,297.4,335.5,299.7
929.6,769,18.1,16.9,92,13.10,126,3.1,297.4,335.5,299.7
929.2,772,18.1,16.8,93,13.10,128,3.1,297.4,335.5,299.7
928.8,776,18.0,16.9,93,13.11,130,3.0,297.4,335.6,299.7
928.4,780,18.0,16.8,93,13.09,131,3.0,297.4,335.5,299.7
928.0,783,18.0,16.8,93,13.07,133,2.9,297.4,335.4,299.7
927.6,787,17.9,16.7,93,13.00,135,2.8,297.4,335.2,299.7
927.2,790,17.9,16.6,92,12.92,137,2.7,297.4,335.0,299.7
926.9,794,17.9,16.5,92,12.86,138,2.6,297.4,334.8,299.7
926.5,797,17.8,16.5,92,12.88,139,2.6,297.4,334.9,299.7
926.1,801,17.8,16.6,92,12.91,140,2.5,297.4,335.0,299.7
925.8,804,17.8,16.6,93,12.92,141,2.4,297.4,335.0,299.7
925.4,807,17.7,16.5,93,12.90,141,2.3,297.4,335.0,299.7
925.1,811,17.7,16.5,93,12.89,141,2.2,297.4,334.9,299.7
925.0,811,17.7,16.5,93,12.89,140,2.2,297.4,334.9,299.7
924.7,814,17.7,16.5,93,12.89,140,2.2,297.4,334.9,299.7
924.4,817,17.7,16.5,93,12.86,139,2.1,297.4,334.8,299.7
924.0,821,17.6,16.4,93,12.82,137,2.1,297.4,334.7,299.7
923.6,824,17.6,16.4,93,12.79,134,2.0,297.4,334.7,299.7
923.2,828,17.6,16.3,92,12.74,132,2.0,297.4,334.5,299.7
922.8,831,17.6,16.2,92,12.66,129,2.0,297.5,334.3,299.7
922.5,835,17.6,16.2,92,12.64,125,2.0,297.5,334.3,299.7
922.1,838,17.6,16.2,92,12.69,122,2.1,297.5,334.5,299.8
921.7,842,17.5,16.3,92,12.73,119,2.2,297.5,334.6,299.8
921.3,846,17.5,16.3,92,12.72,116,2.2,297.5,334.6,299.8
920.9,849,17.5,16.2,92,12.70,113,2.4,297.5,334.5,299.8
920.5,853,17.4,16.2,92,12.67,111,2.5,297.5,334.5,299.8
920.2,856,17.4,16.1,92,12.63,109,2.6,297.6,334.3,299.8
919.8,860,17.4,16.1,92,12.59,108,2.7,297.6,334.3,299.8
919.4,863,17.4,16.0,92,12.56,106,2.9,297.6,334.2,299.8
919.0,867,17.4,16.0,91,12.50,105,3.0,297.6,334.1,299.9
918.7,870,17.4,15.9,91,12.49,105,3.2,297.7,334.1,299.9
918.3,874,17.4,15.9,91,12.51,104,3.4,297.7,334.2,300.0
917.8,878,17.4,16.0,91,12.52,104,3.5,297.8,334.3,300.0
917.4,882,17.4,15.9,91,12.52,104,3.6,297.8,334.3,300.0
917.0,885,17.4,15.9,91,12.47,104,3.8,297.8,334.1,300.0
916.6,889,17.3,15.7,90,12.36,104,3.9,297.8,333.8,300.0
916.2,893,17.3,15.6,90,12.26,105,4.0,297.8,333.6,300.0
915.8,897,17.3,15.6,90,12.26,105,4.2,297.9,333.7,300.0
915.4,900,17.3,15.7,90,12.35,106,4.3,297.9,333.9,300.1
915.0,904,17.3,15.8,91,12.44,106,4.4,297.9,334.2,300.1
914.6,908,17.2,15.9,92,12.49,107,4.5,297.9,334.3,300.1
914.2,912,17.2,15.9,92,12.50,108,4.5,297.9,334.3,300.1
913.8,916,17.1,15.9,92,12.49,108,4.6,297.9,334.3,300.1
913.4,920,17.1,15.8,92,12.49,109,4.7,297.9,334.3,300.1
913.0,923,17.1,15.9,93,12.51,110,4.7,297.9,334.4,300.1
912.6,927,17.0,15.9,93,12.52,111,4.7,297.9,334.4,300.1
912.2,931,17.0,15.8,93,12.49,112,4.8,297.9,334.3,300.1
911.7,935,17.0,15.6,92,12.32,113,4.8,297.9,333.8,300.1
911.3,939,17.0,15.5,91,12.22,114,4.8,297.9,333.6,300.1
910.9,942,16.9,15.5,91,12.24,115,4.8,297.9,333.6,300.1
910.5,946,16.9,15.5,91,12.24,116,4.8,297.9,333.7,300.1
910.1,950,16.9,15.5,92,12.24,117,4.7,297.9,333.7,300.1
909.7,954,16.8,15.4,92,12.22,118,4.7,297.9,333.6,300.1
909.3,958,16.8,15.4,92,12.20,119,4.6,297.9,333.6,300.1
908.9,961,16.8,15.4,92,12.19,120,4.6,297.9,333.5,300.1
908.5,965,16.7,15.4,92,12.20,122,4.5,297.9,333.6,300.1
908.1,969,16.7,15.4,92,12.21,123,4.4,298.0,333.6,300.1
907.7,973,16.7,15.4,92,12.19,124,4.3,298.0,333.6,300.1
907.2,977,16.7,15.3,92,12.17,125,4.2,298.0,333.5,300.2
906.8,981,16.6,15.3,92,12.17,126,4.0,298.0,333.6,300.2
906.3,986,16.6,15.3,92,12.16,127,3.9,298.0,333.6,300.2
905.9,990,16.6,15.3,92,12.15,129,3.7,298.1,333.6,300.2
905.4,994,16.6,15.3,92,12.15,130,3.6,298.1,333.6,300.2
904.9,999,16.6,15.3,92,12.14,131,3.4,298.1,333.6,300.3
904.4,1004,16.5,15.2,92,12.11,133,3.2,298.1,333.5,300.3
904.0,1008,16.5,15.1,92,12.06,134,3.0,298.1,333.4,300.3
903.5,1013,16.5,15.1,91,12.00,136,2.9,298.2,333.3,300.3
903.0,1018,16.5,14.9,91,11.92,138,2.7,298.2,333.0,300.3
902.5,1022,16.5,14.9,91,11.89,140,2.5,298.2,333.0,300.3
902.0,1027,16.4,14.9,91,11.91,142,2.3,298.3,333.1,300.4
901.5,1031,16.4,14.9,91,11.90,144,2.1,298.3,333.1,300.4
901.0,1036,16.4,14.9,91,11.91,147,2.0,298.3,333.1,300.4
900.6,1040,16.3,14.9,91,11.93,150,1.8,298.3,333.2,300.4
900.1,1045,16.3,15.0,92,11.96,154,1.6,298.3,333.3,300.4
899.7,1049,16.3,15.0,92,11.98,158,1.5,298.3,333.3,300.4
899.2,1053,16.2,15.0,92,11.99,163,1.4,298.3,333.4,300.5
898.7,1058,16.2,15.0,92,11.99,167,1.2,298.3,333.4,300.5
898.3,1062,16.1,14.9,93,11.97,173,1.2,298.3,333.3,300.4
