PRES,HGHT,TEMP,DWPT,RELH,MIXR,DRCT,SPED,THTA,THTE,THTV
1012.8,31,25.5,19.7,70,14.37,80,2.9,297.6,339.4,300.1
1012.1,36,25.3,20.4,74,15.06,82,1.8,297.4,341.2,300.1
1011.4,43,25.1,20.2,74,14.87,82,1.7,297.2,340.5,299.9
1010.7,48,24.9,20.0,74,14.71,82,1.8,297.1,339.8,299.7
1010.2,53,24.7,19.8,74,14.58,82,1.9,297.0,339.3,299.6
1009.3,61,24.6,19.8,74,14.52,82,2.0,297.0,339.1,299.5
1008.6,67,24.3,19.5,74,14.26,82,2.2,296.7,338.1,299.3
1007.9,73,24.0,19.3,75,14.08,82,2.3,296.5,337.3,299.0
1007.3,79,23.9,19.3,75,14.08,82,2.4,296.5,337.3,299.0
1006.6,85,23.9,19.2,75,14.06,83,2.5,296.5,337.2,299.0
1005.9,91,23.8,19.1,75,13.95,83,2.5,296.4,336.8,298.9
1005.2,96,23.8,19.1,75,14.00,83,2.6,296.5,337.1,299.0
1004.6,102,23.8,19.2,75,14.03,84,2.7,296.6,337.3,299.1
1003.9,108,23.7,19.0,75,13.90,84,2.8,296.6,336.9,299.0
1003.3,113,23.6,18.8,74,13.73,85,2.9,296.5,336.3,298.9
1002.7,119,23.5,18.7,74,13.67,86,2.9,296.4,336.0,298.9
1002.1,124,23.4,18.7,75,13.64,86,3.0,296.3,335.8,298.8
1001.5,129,23.3,18.7,75,13.64,87,3.0,296.3,335.8,298.7
1000.9,135,23.2,18.6,75,13.60,88,3.1,296.3,335.6,298.7
1000.3,140,23.1,18.6,75,13.56,89,3.1,296.3,335.5,298.7
1000.0,142,23.1,18.5,75,13.56,89,3.2,296.3,335.5,298.7
999.7,145,23.1,18.5,75,13.55,89,3.2,296.3,335.5,298.7
999.0,150,23.1,18.6,76,13.58,90,3.2,296.3,335.6,298.7
998.4,156,23.0,18.6,76,13.64,91,3.3,296.3,335.8,298.7
997.8,161,22.9,18.7,77,13.70,91,3.3,296.3,335.9,298.7
997.3,166,22.9,18.7,77,13.71,92,3.3,296.3,336.0,298.7
996.7,171,22.8,18.7,77,13.70,92,3.3,296.2,335.9,298.7
996.2,176,22.8,18.6,77,13.68,92,3.4,296.2,335.8,298.7
995.6,180,22.7,18.6,78,13.68,92,3.4,296.2,335.9,298.7
995.1,185,22.7,18.6,78,13.72,92,3.4,296.3,336.0,298.7
994.6,189,22.7,18.7,78,13.73,92,3.4,296.3,336.0,298.7
994.1,194,22.6,18.7,78,13.75,91,3.4,296.3,336.1,298.7
993.5,199,22.6,18.7,79,13.77,91,3.4,296.3,336.1,298.7
993.0,204,22.5,18.7,79,13.76,90,3.4,296.2,336.1,298.7
992.4,209,22.5,18.7,79,13.78,89,3.4,296.3,336.2,298.7
991.8,214,22.4,18.7,80,13.82,88,3.3,296.3,336.3,298.7
991.2,219,22.4,18.8,80,13.89,87,3.3,296.3,336.5,298.7
990.6,224,22.3,18.8,81,13.96,85,3.3,296.3,336.7,298.7
990.0,230,22.2,18.9,81,14.01,83,3.3,296.2,336.8,298.7
989.4,235,22.2,18.9,82,14.05,82,3.3,296.2,336.9,298.7
988.8,240,22.1,18.9,82,14.05,80,3.2,296.2,336.9,298.7
988.2,246,22.1,18.9,83,14.08,78,3.2,296.2,336.9,298.7
987.6,251,22.0,19.0,83,14.14,76,3.2,296.2,337.1,298.7
987.1,256,21.9,19.0,84,14.16,73,3.2,296.2,337.1,298.7
986.5,261,21.9,18.9,83,14.09,71,3.2,296.2,337.0,298.7
986.0,265,21.9,18.8,83,14.00,69,3.2,296.2,336.7,298.7
985.4,270,21.8,18.8,83,14.00,68,3.2,296.2,336.7,298.7
984.9,275,21.8,18.9,83,14.08,66,3.2,296.2,337.0,298.7
984.4,279,21.8,18.9,84,14.13,64,3.2,296.2,337.1,298.7
983.8,284,21.7,18.9,84,14.15,62,3.2,296.2,337.2,298.7
983.3,289,21.7,19.0,85,14.16,61,3.2,296.2,337.2,298.7
982.7,294,21.6,18.9,85,14.16,60,3.2,296.2,337.2,298.7
982.2,299,21.5,18.9,85,14.12,59,3.1,296.2,337.1,298.7
981.7,303,21.5,18.9,85,14.13,58,3.1,296.2,337.1,298.7
981.2,308,21.5,19.0,86,14.21,57,3.1,296.2,337.3,298.7
980.7,312,21.4,19.0,86,14.26,57,3.1,296.2,337.5,298.8
980.2,317,21.4,19.0,86,14.24,57,3.1,296.2,337.4,298.8
979.6,321,21.4,18.9,86,14.15,56,3.1,296.2,337.2,298.8
979.1,326,21.3,18.8,85,14.05,57,3.1,296.3,336.9,298.7
978.6,330,21.3,18.6,85,13.95,57,3.1,296.3,336.7,298.8
978.2,334,21.3,18.6,85,13.90,57,3.1,296.3,336.5,298.8
977.7,339,21.2,18.5,85,13.88,57,3.2,296.3,336.5,298.8
977.3,343,21.2,18.5,84,13.84,58,3.2,296.3,336.4,298.8
976.8,347,21.2,18.6,85,13.92,58,3.2,296.3,336.6,298.8
976.3,351,21.1,18.8,86,14.08,59,3.2,296.3,337.0,298.8
975.9,355,21.0,18.7,87,14.06,60,3.2,296.2,336.9,298.7
975.4,359,21.0,18.4,85,13.81,60,3.3,296.3,336.3,298.7
974.9,363,21.0,18.1,83,13.51,61,3.3,296.3,335.5,298.7
974.5,367,21.1,17.8,81,13.25,61,3.3,296.4,334.8,298.7
974.0,372,21.1,17.6,80,13.09,62,3.4,296.5,334.4,298.8
973.5,376,21.1,17.6,80,13.09,62,3.4,296.5,334.4,298.8
973.0,380,21.0,17.6,81,13.11,63,3.5,296.5,334.5,298.8
972.5,385,21.0,17.6,81,13.09,63,3.5,296.5,334.4,298.8
972.0,389,21.0,17.4,80,12.99,63,3.6,296.5,334.2,298.8
971.5,394,20.9,17.3,79,12.86,63,3.6,296.5,333.8,298.8
971.0,398,20.9,17.3,80,12.86,63,3.7,296.5,333.9,298.8
970.5,403,20.9,17.3,80,12.94,63,3.7,296.5,334.1,298.8
969.9,408,20.8,17.4,81,12.98,63,3.7,296.5,334.2,298.8
969.4,413,20.8,17.2,80,12.80,63,3.7,296.5,333.7,298.8
968.8,418,20.8,16.5,76,12.26,63,3.8,296.6,332.2,298.8
968.2,423,20.9,15.5,71,11.51,63,3.8,296.7,330.2,298.8
967.7,428,20.9,14.9,69,11.10,64,3.8,296.9,329.2,298.8
967.1,433,21.0,14.8,68,11.04,64,3.8,297.0,329.1,298.9
966.5,438,21.0,14.8,68,11.01,64,3.7,297.0,329.2,299.0
966.0,443,21.0,14.7,67,10.95,64,3.7,297.1,329.1,299.1
965.5,448,21.1,14.6,67,10.87,64,3.7,297.2,328.9,299.1
965.0,453,21.1,14.4,66,10.77,64,3.6,297.2,328.7,299.1
964.4,457,21.1,14.3,65,10.71,64,3.6,297.3,328.5,299.2
964.0,461,21.0,14.3,65,10.70,64,3.5,297.3,328.5,299.2
963.5,466,21.0,14.3,66,10.72,65,3.4,297.3,328.6,299.2
963.0,470,21.0,14.4,66,10.76,65,3.3,297.3,328.8,299.3
962.5,475,21.0,14.5,66,10.81,66,3.2,297.3,328.9,299.3
962.0,479,20.9,14.5,67,10.87,66,3.1,297.3,329.1,299.3
961.5,483,20.9,14.6,67,10.92,67,3.0,297.3,329.2,299.3
961.0,488,20.8,14.6,67,10.94,68,2.9,297.4,329.3,299.3
960.5,492,20.8,14.5,67,10.89,69,2.8,297.4,329.2,299.3
960.1,497,20.8,14.4,67,10.78,70,2.7,297.4,328.9,299.3
959.6,501,20.8,14.2,66,10.67,71,2.6,297.4,328.6,299.3
959.1,506,20.7,14.1,66,10.62,72,2.5,297.4,328.5,299.3
958.6,510,20.7,14.1,66,10.60,74,2.4,297.4,328.4,299.3
958.1,515,20.7,14.0,66,10.57,75,2.3,297.4,328.4,299.3
957.6,519,20.6,14.0,66,10.54,77,2.3,297.4,328.3,299.3
957.0,524,20.6,13.9,65,10.47,78,2.2,297.5,328.1,299.3
956.5,528,20.6,13.7,65,10.38,80,2.1,297.5,327.9,299.3
956.1,533,20.6,13.7,65,10.34,82,2.0,297.5,327.7,299.3
955.6,537,20.5,13.7,65,10.34,84,2.0,297.5,327.8,299.4
955.1,542,20.5,13.7,65,10.34,86,1.9,297.5,327.8,299.4
954.6,546,20.5,13.7,65,10.35,88,1.9,297.5,327.8,299.4
954.1,550,20.4,13.7,65,10.38,90,1.9,297.5,327.9,299.4
953.7,555,20.4,13.8,66,10.43,93,1.9,297.5,328.0,299.4
953.2,559,20.3,13.8,66,10.48,94,1.9,297.5,328.2,299.4
952.7,563,20.3,13.9,67,10.52,96,1.9,297.5,328.3,299.4
952.2,568,20.2,13.9,67,10.57,98,1.9,297.5,328.4,299.4
951.7,573,20.2,14.0,68,10.60,99,1.9,297.5,328.5,299.4
951.2,577,20.1,13.9,67,10.57,100,1.9,297.5,328.4,299.4
950.7,582,20.1,13.8,67,10.51,101,2.0,297.5,328.3,299.4
950.2,586,20.1,13.7,67,10.45,102,2.0,297.6,328.1,299.4
949.7,590,20.1,13.7,67,10.40,103,2.0,297.6,328.0,299.4
949.2,595,20.1,13.6,66,10.35,103,2.1,297.6,327.9,299.5
948.7,599,20.1,13.6,66,10.35,104,2.1,297.6,328.0,299.5
948.3,603,20.1,13.7,67,10.42,104,2.2,297.7,328.2,299.5
947.8,607,20.1,13.7,67,10.48,104,2.2,297.7,328.4,299.6
947.4,612,20.0,13.8,67,10.50,104,2.2,297.7,328.5,299.6
946.9,616,20.0,13.8,67,10.50,104,2.3,297.7,328.5,299.6
946.5,620,20.0,13.8,67,10.51,103,2.3,297.8,328.5,299.6
946.0,624,19.9,13.8,68,10.51,103,2.3,297.8,328.5,299.6
945.5,628,19.9,13.8,68,10.51,102,2.3,297.8,328.5,299.6
945.1,633,19.8,13.8,68,10.52,101,2.4,297.8,328.6,299.6
944.6,637,19.8,13.7,68,10.52,100,2.4,297.8,328.6,299.6
944.0,642,19.8,13.7,68,10.52,99,2.4,297.8,328.6,299.6
943.5,647,19.7,13.7,68,10.51,98,2.3,297.8,328.5,299.6
942.9,652,19.7,13.6,68,10.45,97,2.3,297.8,328.4,299.7
942.4,657,19.7,13.5,67,10.35,96,2.3,297.8,328.1,299.7
941.8,663,19.6,13.4,67,10.28,95,2.3,297.8,328.0,299.7
941.2,668,19.6,13.3,67,10.24,94,2.2,297.9,327.9,299.7
940.7,673,19.6,13.3,67,10.22,92,2.2,297.9,327.8,299.7
940.1,678,19.5,13.3,67,10.24,91,2.1,297.9,327.9,299.7
939.6,683,19.5,13.3,68,10.29,89,2.1,297.9,328.0,299.7
939.0,688,19.5,13.5,68,10.39,87,2.0,297.9,328.4,299.8
938.4,694,19.4,13.8,70,10.60,86,1.9,297.9,329.0,299.8
937.8,699,19.3,14.0,71,10.80,84,1.9,297.9,329.5,299.8
937.2,705,19.3,14.2,72,10.89,82,1.8,297.9,329.8,299.9
936.5,711,19.2,14.2,72,10.90,80,1.7,297.9,329.8,299.9
935.9,717,19.2,14.1,72,10.89,79,1.7,297.9,329.8,299.9
935.3,723,19.2,14.1,72,10.86,77,1.6,297.9,329.7,299.9
934.7,728,19.1,14.0,72,10.81,75,1.5,298.0,329.6,299.9
934.1,734,19.1,13.9,72,10.76,74,1.4,298.0,329.5,299.9
933.5,739,19.1,13.8,71,10.66,72,1.3,298.0,329.2,299.9
932.9,744,19.1,13.5,70,10.51,71,1.3,298.1,328.9,300.0
932.3,749,19.1,13.4,70,10.43,70,1.2,298.1,328.7,300.0
931.8,755,19.1,13.4,70,10.43,69,1.1,298.2,328.7,300.0
931.2,760,19.0,13.4,70,10.40,68,1.1,298.2,328.7,300.0
930.6,765,19.0,13.1,69,10.26,67,1.0,298.2,328.3,300.0
930.0,771,19.0,12.8,67,10.05,66,0.9,298.3,327.8,300.1
929.4,776,19.0,12.6,66,9.91,65,0.8,298.3,327.4,300.1
928.8,782,19.0,12.5,66,9.88,65,0.8,298.4,327.4,300.1
928.2,787,19.0,12.5,66,9.89,65,0.7,298.4,327.5,300.2
927.7,793,18.9,12.6,67,9.91,65,0.6,298.4,327.6,300.2
927.1,798,18.9,12.6,67,9.94,65,0.6,298.4,327.6,300.2
926.5,804,18.9,12.6,67,9.96,66,0.5,298.4,327.7,300.2
925.9,809,18.8,12.6,67,9.96,68,0.4,298.5,327.7,300.3
925.4,814,18.8,12.6,67,9.95,70,0.4,298.5,327.7,300.3
925.0,817,18.8,12.6,67,9.93,70,0.4,298.5,327.7,300.3
924.9,819,18.8,12.5,67,9.92,72,0.3,298.5,327.7,300.3
924.4,823,18.7,12.5,67,9.87,76,0.3,298.5,327.5,300.3
923.9,828,18.7,12.4,67,9.81,81,0.2,298.5,327.4,300.3
923.4,833,18.7,12.3,66,9.77,87,0.2,298.5,327.3,300.3
922.9,837,18.7,12.2,66,9.75,95,0.2,298.6,327.3,300.3
922.4,841,18.6,12.3,66,9.76,105,0.1,298.6,327.3,300.3
921.9,846,18.6,12.3,67,9.77,117,0.1,298.6,327.4,300.4
921.5,850,18.6,12.2,67,9.76,130,0.1,298.6,327.4,300.4
921.0,855,18.5,12.2,67,9.75,143,0.1,298.6,327.3,300.4
920.5,859,18.5,12.2,67,9.73,155,0.1,298.6,327.3,300.4
920.1,863,18.5,12.2,67,9.72,164,0.1,298.7,327.3,300.4
919.6,868,18.4,12.2,67,9.73,169,0.1,298.7,327.3,300.4
919.1,872,18.4,12.2,67,9.75,171,0.1,298.7,327.4,300.4
918.6,877,18.4,12.2,67,9.78,168,0.1,298.7,327.5,300.4
918.2,881,18.3,12.2,68,9.78,0,0.0,298.7,327.5,300.4
917.7,886,18.3,12.2,67,9.76,0,0.0,298.7,327.4,300.4
917.1,891,18.3,12.1,67,9.74,0,0.0,298.7,327.4,300.4
916.6,896,18.2,12.1,68,9.74,36,0.1,298.7,327.4,300.4
916.0,901,18.1,12.1,68,9.73,29,0.1,298.7,327.3,300.4
915.4,907,18.1,12.0,68,9.69,26,0.2,298.7,327.2,300.4
914.8,912,18.0,12.0,68,9.68,24,0.2,298.7,327.2,300.4
914.3,918,18.0,12.0,68,9.70,22,0.3,298.7,327.2,300.4
913.7,923,17.9,12.0,68,9.70,21,0.4,298.7,327.2,300.4
913.1,929,17.9,12.0,69,9.70,20,0.5,298.7,327.3,300.4
912.5,934,17.8,12.0,69,9.73,19,0.6,298.7,327.3,300.4
911.9,939,17.8,12.1,70,9.80,18,0.7,298.7,327.6,300.5
911.4,944,17.7,12.2,70,9.85,18,0.8,298.7,327.7,300.5
910.9,949,17.7,12.2,70,9.86,17,0.9,298.7,327.7,300.5
910.4,954,17.6,12.2,70,9.84,17,1.0,298.7,327.7,300.5
909.9,959,17.6,12.2,71,9.85,16,1.1,298.7,327.7,300.5
909.4,963,17.6,12.2,71,9.87,15,1.2,298.7,327.8,300.5
908.9,968,17.5,12.2,71,9.87,15,1.3,298.7,327.8,300.5
908.4,973,17.5,12.2,71,9.87,14,1.4,298.7,327.8,300.5
907.9,977,17.5,12.1,71,9.84,13,1.5,298.7,327.7,300.5
907.4,982,17.4,12.0,71,9.78,12,1.6,298.8,327.6,300.5
906.9,987,17.4,12.0,70,9.73,12,1.7,298.8,327.4,300.5
906.4,992,17.4,11.9,70,9.67,11,1.8,298.8,327.3,300.6
905.8,997,17.4,11.7,69,9.59,11,1.9,298.9,327.1,300.6
905.3,1002,17.4,11.6,69,9.55,10,2.0,298.9,327.1,300.6
904.7,1008,17.3,11.6,69,9.55,10,2.1,298.9,327.1,300.6
904.1,1014,17.3,11.6,69,9.53,9,2.2,298.9,327.0,300.6
903.5,1019,17.2,11.6,69,9.51,9,2.2,298.9,327.0,300.6
902.8,1025,17.2,11.5,69,9.47,9,2.3,298.9,326.9,300.6
902.2,1031,17.1,11.4,69,9.44,9,2.4,298.9,326.8,300.6
901.6,1037,17.1,11.4,69,9.43,9,2.4,298.9,326.8,300.6
901.1,1042,17.0,11.4,69,9.45,9,2.5,299.0,326.8,300.7
900.5,1048,17.0,11.5,70,9.48,9,2.5,299.0,326.9,300.7
900.0,1053,16.9,11.5,70,9.53,9,2.6,299.0,327.1,300.7
899.4,1058,16.9,11.6,71,9.59,9,2.6,299.0,327.2,300.7
898.9,1063,16.8,11.6,71,9.61,9,2.6,299.0,327.3,300.7
898.4,1068,16.8,11.6,71,9.60,9,2.6,299.0,327.3,300.7
897.9,1072,16.8,11.6,71,9.58,9,2.7,299.0,327.2,300.7
897.4,1077,16.7,11.5,71,9.56,9,2.7,299.0,327.2,300.7
896.9,1082,16.7,11.5,72,9.56,9,2.7,299.0,327.2,300.7
896.3,1087,16.6,11.5,72,9.56,10,2.7,299.0,327.2,300.7
895.8,1092,16.6,11.5,72,9.57,10,2.7,299.0,327.2,300.7
895.3,1097,16.5,11.6,72,9.60,10,2.8,299.0,327.3,300.7
894.7,1102,16.5,11.6,73,9.63,10,2.8,299.0,327.4,300.7
894.1,1108,16.4,11.6,73,9.62,10,2.8,299.0,327.4,300.7
893.5,1114,16.4,11.5,73,9.58,10,2.8,299.0,327.3,300.7
892.9,1120,16.3,11.4,73,9.54,10,2.9,299.0,327.1,300.7
892.3,1126,16.3,11.4,73,9.52,10,2.9,299.0,327.1,300.7
891.7,1131,16.2,11.3,73,9.50,10,3.0,299.0,327.0,300.7
891.1,1137,16.2,11.3,73,9.48,10,3.0,299.0,327.0,300.7
890.5,1142,16.1,11.4,73,9.52,10,3.1,299.0,327.1,300.7
890.0,1148,16.1,11.4,74,9.57,10,3.2,299.0,327.2,300.7
889.4,1153,16.0,11.5,74,9.62,9,3.2,299.0,327.4,300.7
888.9,1158,16.0,11.6,75,9.69,9,3.3,299.0,327.6,300.7
888.3,1164,15.9,11.7,76,9.78,9,3.4,299.0,327.8,300.7
887.7,1170,15.8,11.9,77,9.88,8,3.4,299.0,328.1,300.8
887.1,1175,15.8,12.0,78,9.98,8,3.5,299.0,328.4,300.8
886.5,1181,15.7,12.2,79,10.09,7,3.6,299.0,328.7,300.8
885.9,1187,15.6,12.3,81,10.19,7,3.6,299.0,329.0,300.8
885.3,1193,15.6,12.4,82,10.28,6,3.7,298.9,329.2,300.8
884.7,1198,15.5,12.4,82,10.29,5,3.8,298.9,329.2,300.8
884.2,1203,15.5,12.3,82,10.23,5,3.8,298.9,329.0,300.8
883.7,1208,15.4,12.2,81,10.14,4,3.9,298.9,328.8,300.8
883.2,1213,15.4,11.9,80,9.99,3,3.9,299.0,328.4,300.8
882.7,1218,15.4,11.5,78,9.73,2,3.9,299.0,327.7,300.8
882.2,1222,15.4,11.2,76,9.50,1,3.9,299.1,327.2,300.8
881.7,1227,15.5,11.0,75,9.37,360,3.9,299.2,326.8,300.9
881.3,1231,15.5,10.9,74,9.33,359,3.9,299.2,326.8,300.9
880.8,1236,15.4,10.9,74,9.36,358,3.9,299.2,326.9,300.9
880.3,1240,15.4,11.0,75,9.41,356,3.9,299.3,327.1,301.0
879.8,1245,15.4,11.1,76,9.48,355,3.8,299.3,327.3,301.0
879.3,1250,15.3,11.2,76,9.54,353,3.8,299.3,327.4,301.0
878.8,1255,15.3,11.2,77,9.56,351,3.7,299.3,327.5,301.0
878.3,1260,15.2,11.2,77,9.58,349,3.6,299.3,327.5,301.0
877.8,1265,15.2,11.3,77,9.60,347,3.6,299.3,327.6,301.0
877.3,1270,15.1,11.3,78,9.62,344,3.5,299.3,327.7,301.0
876.8,1275,15.1,11.3,78,9.63,342,3.4,299.3,327.7,301.0
876.3,1280,15.1,11.2,78,9.61,339,3.4,299.3,327.7,301.0
875.7,1285,15.1,11.1,77,9.51,336,3.3,299.3,327.4,301.1
875.2,1290,15.0,10.8,76,9.31,332,3.2,299.4,326.9,301.1
874.6,1295,15.0,10.5,74,9.14,329,3.2,299.4,326.5,301.1
874.1,1301,15.0,10.4,74,9.09,326,3.2,299.4,326.3,301.1
873.6,1306,15.0,10.4,74,9.10,322,3.1,299.5,326.4,301.1
873.1,1311,14.9,10.5,75,9.14,319,3.1,299.5,326.5,301.1
872.6,1315,14.9,10.7,76,9.28,316,3.1,299.5,326.9,301.1
872.1,1320,14.9,11.0,78,9.49,313,3.1,299.5,327.5,301.2
871.6,1325,14.8,11.2,79,9.63,310,3.2,299.5,327.9,301.2
871.1,1330,14.8,11.5,81,9.85,308,3.2,299.5,328.6,301.3
870.6,1335,14.7,11.8,83,10.03,306,3.2,299.5,329.1,301.3
870.1,1340,14.7,12.0,84,10.20,304,3.2,299.5,329.6,301.3
869.5,1345,14.6,12.2,85,10.31,302,3.2,299.5,329.9,301.3
869.0,1350,14.6,12.2,86,10.33,301,3.3,299.5,330.0,301.4
868.5,1355,14.5,12.2,86,10.36,300,3.3,299.5,330.1,301.4
867.9,1361,14.5,12.3,87,10.44,300,3.3,299.5,330.3,301.4
867.4,1366,14.4,12.5,88,10.55,299,3.3,299.5,330.6,301.4
866.9,1371,14.4,12.6,89,10.66,299,3.3,299.5,330.9,301.4
866.3,1376,14.3,12.8,90,10.75,300,3.3,299.5,331.2,301.4
865.8,1382,14.3,12.7,91,10.75,300,3.3,299.5,331.2,301.4
865.3,1387,14.2,12.6,90,10.67,301,3.3,299.5,331.0,301.4
864.8,1391,14.2,12.5,89,10.58,302,3.3,299.5,330.7,301.4
864.3,1396,14.2,12.4,89,10.52,303,3.3,299.6,330.6,301.5
863.8,1401,14.2,12.3,89,10.49,305,3.3,299.6,330.6,301.5
863.4,1405,14.2,12.4,89,10.51,306,3.3,299.6,330.6,301.5
862.9,1410,14.1,12.4,89,10.53,308,3.3,299.6,330.7,301.5
862.4,1415,14.1,12.4,89,10.55,310,3.3,299.6,330.8,301.6
861.9,1419,14.0,12.5,90,10.60,312,3.3,299.6,330.9,301.6
861.4,1424,14.0,12.6,91,10.69,314,3.3,299.6,331.1,301.6
860.9,1429,13.9,12.6,92,10.74,316,3.3,299.6,331.3,301.6
860.4,1434,13.9,12.7,92,10.76,318,3.4,299.6,331.4,301.6
859.9,1439,13.8,12.7,93,10.77,320,3.4,299.6,331.4,301.6
859.4,1444,13.8,12.7,93,10.82,322,3.4,299.6,331.5,301.6
858.9,1449,13.7,12.8,94,10.91,323,3.4,299.6,331.8,301.6
858.4,1454,13.7,12.9,95,10.99,325,3.5,299.6,332.0,301.6
857.9,1459,13.6,13.0,96,11.04,327,3.5,299.6,332.1,301.6
857.5,1464,13.6,13.0,96,11.03,328,3.5,299.6,332.1,301.6
857.0,1468,13.5,12.9,96,10.99,330,3.5,299.6,332.0,301.6
856.5,1473,13.5,12.9,96,10.96,331,3.6,299.6,331.9,301.6
856.1,1477,13.5,12.9,96,10.97,332,3.6,299.6,331.9,301.6
855.6,1482,13.4,12.9,97,11.01,333,3.6,299.6,332.0,301.6
855.2,1486,13.4,13.0,97,11.06,335,3.6,299.6,332.2,301.6
854.7,1491,13.3,13.0,98,11.09,336,3.7,299.6,332.3,301.6
854.2,1495,13.3,13.0,98,11.08,337,3.7,299.6,332.3,301.6
853.8,1500,13.3,13.0,98,11.06,338,3.7,299.6,332.2,301.6
853.3,1505,13.2,13.0,98,11.07,339,3.7,299.6,332.3,301.6
852.7,1510,13.2,13.0,99,11.12,340,3.7,299.7,332.4,301.7
852.2,1515,13.2,13.1,100,11.18,340,3.7,299.7,332.6,301.7
851.7,1520,13.1,13.1,100,11.21,341,3.6,299.7,332.8,301.7
851.2,1526,13.1,13.1,100,11.18,342,3.6,299.8,332.7,301.8
850.6,1531,13.1,13.0,99,11.10,343,3.6,299.8,332.5,301.8
850.1,1536,13.1,12.9,98,11.04,344,3.6,299.8,332.4,301.8
850.0,1537,13.1,12.8,98,11.03,345,3.6,299.9,332.4,301.8
849.7,1540,13.1,12.8,98,11.02,345,3.6,299.9,332.4,301.9
849.2,1545,13.1,12.8,98,11.04,346,3.5,299.9,332.5,301.9
848.7,1550,13.1,12.9,99,11.07,347,3.5,299.9,332.6,301.9
848.3,1554,13.0,12.9,99,11.07,348,3.5,300.0,332.6,301.9
847.8,1559,13.0,12.8,99,11.02,349,3.5,300.0,332.5,302.0
847.4,1563,13.0,12.7,98,10.95,350,3.5,300.0,332.3,302.0
846.9,1568,13.0,12.6,98,10.90,351,3.4,300.0,332.2,302.0
846.4,1573,12.9,12.6,98,10.89,352,3.4,300.1,332.2,302.0
846.0,1577,12.9,12.6,98,10.91,353,3.4,300.1,332.3,302.0
845.5,1582,12.9,12.6,98,10.93,354,3.4,300.1,332.4,302.1
845.1,1586,12.9,12.6,98,10.93,355,3.4,300.1,332.4,302.1
844.6,1591,12.9,12.6,98,10.90,356,3.4,300.2,332.4,302.1
844.2,1595,12.9,12.5,98,10.86,356,3.4,300.2,332.3,302.1
843.7,1600,12.8,12.5,97,10.83,357,3.4,300.2,332.2,302.2
843.3,1604,12.8,12.4,97,10.80,358,3.4,300.3,332.2,302.2
842.8,1609,12.8,12.4,97,10.77,358,3.5,300.3,332.1,302.3
842.3,1614,12.8,12.3,97,10.75,358,3.5,300.4,332.2,302.3
841.7,1620,12.8,12.3,97,10.77,359,3.5,300.4,332.2,302.3
841.1,1626,12.8,12.3,97,10.78,359,3.5,300.4,332.3,302.4
840.5,1632,12.7,12.3,97,10.76,359,3.6,300.4,332.2,302.4
839.9,1638,12.7,12.2,97,10.70,359,3.6,300.4,332.1,302.4
839.2,1645,12.6,12.1,97,10.63,359,3.6,300.4,331.9,302.4
838.6,1651,12.6,12.0,96,10.55,359,3.7,300.5,331.7,302.4
838.1,1656,12.6,11.9,96,10.49,359,3.7,300.5,331.5,302.4
837.6,1661,12.6,11.8,95,10.46,358,3.8,300.5,331.5,302.4
837.1,1666,12.5,11.8,95,10.44,358,3.8,300.6,331.5,302.5
836.6,1671,12.5,11.8,95,10.46,358,3.9,300.6,331.6,302.5
836.2,1675,12.5,11.8,96,10.47,357,3.9,300.6,331.6,302.5
835.7,1680,12.5,11.9,96,10.52,357,4.0,300.6,331.8,302.6
835.3,1684,12.4,11.9,97,10.56,356,4.0,300.6,331.9,302.6
834.9,1688,12.4,11.9,97,10.56,356,4.1,300.6,331.9,302.6
834.4,1693,12.4,11.8,96,10.49,356,4.1,300.7,331.7,302.6
834.0,1697,12.4,11.5,95,10.31,355,4.2,300.7,331.3,302.6
833.5,1702,12.4,11.1,92,9.99,355,4.2,300.8,330.4,302.6
833.0,1707,12.4,10.3,87,9.50,355,4.3,300.9,329.1,302.6
832.6,1712,12.5,9.5,82,8.99,354,4.3,301.0,327.8,302.7
832.1,1717,12.6,9.0,79,8.68,354,4.3,301.1,327.0,302.7
831.6,1722,12.6,8.8,77,8.56,354,4.4,301.2,326.8,302.8
831.0,1727,12.6,8.7,77,8.51,354,4.4,301.2,326.7,302.8
830.5,1732,12.6,8.4,76,8.37,354,4.4,301.3,326.3,302.8
830.0,1737,12.5,8.2,75,8.26,354,4.4,301.3,326.0,302.8
829.5,1742,12.5,8.0,74,8.15,354,4.5,301.3,325.7,302.8
829.0,1748,12.5,7.6,72,7.91,355,4.5,301.3,325.0,302.8
828.5,1753,12.5,6.6,68,7.42,355,4.5,301.4,323.7,302.7
828.0,1758,12.5,5.8,64,7.00,355,4.5,301.5,322.5,302.7
827.5,1763,12.5,5.4,62,6.82,356,4.5,301.5,322.1,302.8
827.0,1768,12.5,5.1,61,6.68,356,4.5,301.6,321.8,302.8
826.5,1773,12.5,4.8,59,6.52,357,4.5,301.7,321.4,302.8
826.0,1779,12.6,3.9,56,6.14,358,4.5,301.7,320.3,302.9
825.5,1784,12.6,2.8,51,5.69,358,4.4,301.9,319.2,302.9
825.0,1789,12.6,2.5,50,5.55,359,4.4,301.9,318.8,302.9
824.5,1794,12.6,2.7,51,5.66,360,4.4,302.0,319.2,303.0
824.0,1798,12.6,3.0,52,5.75,1,4.4,302.0,319.5,303.0
823.6,1803,12.5,3.1,53,5.83,2,4.3,302.0,319.7,303.0
823.1,1807,12.5,3.3,53,5.90,3,4.3,302.0,319.9,303.1
822.7,1812,12.4,3.4,54,5.95,3,4.3,302.0,320.1,303.1
822.3,1816,12.4,3.6,55,6.02,4,4.2,302.0,320.2,303.1
821.8,1821,12.3,3.9,56,6.17,5,4.2,301.9,320.7,303.1
821.4,1825,12.3,4.6,60,6.50,6,4.1,301.9,321.6,303.1
