PRES,HGHT,TEMP,DWPT,RELH,MIXR,DRCT,SPED,THTA,THTE,THTV
1016.2,31,27.7,22.0,71,16.60,80,4.7,299.5,348.2,302.4
1015.8,34,27.6,21.8,71,16.44,74,2.7,299.4,347.6,302.3
1015.2,39,27.4,21.8,72,16.43,70,2.2,299.2,347.4,302.2
1014.4,46,27.2,21.8,72,16.39,69,2.2,299.1,347.1,302.0
1013.6,53,26.9,21.7,73,16.33,70,2.4,298.9,346.7,301.8
1013.1,58,26.7,21.6,73,16.23,71,2.6,298.7,346.2,301.6
1012.2,66,26.5,21.4,74,16.06,71,2.8,298.6,345.5,301.5
1011.5,71,26.2,21.2,74,15.84,72,3.0,298.4,344.7,301.2
1010.9,77,26.0,21.0,74,15.67,72,3.2,298.3,344.0,301.1
1010.2,83,25.9,20.9,74,15.60,73,3.4,298.1,343.6,300.9
1009.5,89,25.7,20.9,75,15.55,73,3.6,298.0,343.4,300.8
1008.9,94,25.6,20.8,75,15.51,74,3.8,298.0,343.2,300.7
1008.3,100,25.4,20.8,75,15.47,74,4.0,297.9,342.9,300.6
1007.7,105,25.2,20.6,76,15.37,75,4.1,297.7,342.5,300.5
1007.1,110,25.1,20.5,75,15.22,75,4.3,297.7,342.0,300.4
1006.6,115,25.0,20.3,75,15.10,76,4.4,297.6,341.6,300.3
1006.0,120,25.0,20.3,75,15.04,77,4.6,297.6,341.4,300.3
1005.4,125,24.9,20.2,75,15.00,77,4.7,297.6,341.2,300.3
1004.9,129,24.9,20.2,75,14.99,78,4.9,297.6,341.2,300.3
1004.3,134,24.8,20.2,76,14.98,78,5.0,297.6,341.2,300.2
1003.8,139,24.8,20.1,75,14.91,78,5.1,297.6,341.0,300.2
1003.3,144,24.7,19.9,75,14.76,79,5.2,297.6,340.5,300.2
1002.7,148,24.7,19.7,74,14.60,79,5.3,297.6,340.1,300.2
1002.2,153,24.7,19.7,74,14.57,80,5.4,297.6,340.1,300.2
1001.7,158,24.6,19.8,74,14.62,80,5.5,297.6,340.2,300.3
1001.1,162,24.6,19.9,75,14.73,80,5.5,297.6,340.5,300.3
1000.6,167,24.5,20.0,76,14.89,80,5.6,297.6,341.0,300.3
1000.1,172,24.5,20.2,77,15.02,80,5.7,297.6,341.3,300.3
1000.0,172,24.5,20.2,77,15.02,81,5.7,297.6,341.3,300.3
999.5,177,24.4,20.2,77,15.04,81,5.7,297.6,341.4,300.3
999.0,181,24.4,20.1,77,14.99,81,5.7,297.6,341.2,300.3
998.4,186,24.3,20.1,77,15.00,80,5.8,297.6,341.3,300.3
997.9,191,24.3,20.1,78,15.03,80,5.8,297.6,341.3,300.3
997.3,196,24.2,20.1,78,15.00,80,5.8,297.6,341.3,300.3
996.8,201,24.2,20.0,78,14.95,80,5.8,297.6,341.1,300.3
996.2,205,24.2,20.1,78,15.01,80,5.8,297.6,341.3,300.3
995.7,210,24.1,20.2,79,15.13,80,5.8,297.6,341.6,300.3
995.2,215,24.0,20.2,79,15.15,79,5.8,297.6,341.7,300.3
994.6,220,24.0,20.1,79,15.08,79,5.8,297.6,341.5,300.3
994.1,224,23.9,20.0,79,15.01,79,5.8,297.6,341.3,300.3
993.6,229,23.9,20.0,79,14.97,78,5.7,297.6,341.2,300.3
993.1,233,23.9,20.0,79,14.97,78,5.7,297.6,341.2,300.3
992.7,237,23.8,20.0,79,14.99,78,5.7,297.6,341.2,300.3
992.2,241,23.8,20.0,79,14.98,78,5.7,297.6,341.2,300.3
991.7,246,23.7,20.0,79,14.96,77,5.6,297.6,341.1,300.3
991.2,250,23.7,19.9,79,14.91,77,5.6,297.6,341.0,300.3
990.6,255,23.7,19.8,79,14.85,77,5.6,297.6,340.8,300.3
990.1,260,23.6,19.7,79,14.76,77,5.6,297.6,340.6,300.3
989.6,265,23.6,19.6,78,14.70,76,5.5,297.6,340.4,300.3
989.0,269,23.6,19.6,79,14.71,76,5.5,297.6,340.5,300.3
988.4,275,23.5,19.7,79,14.81,76,5.5,297.6,340.7,300.3
987.8,280,23.4,19.9,80,14.93,76,5.5,297.6,341.1,300.3
987.3,285,23.4,19.9,81,14.97,76,5.5,297.6,341.2,300.3
986.7,290,23.3,19.8,81,14.94,76,5.5,297.6,341.1,300.3
986.1,295,23.3,19.8,81,14.91,76,5.5,297.6,341.0,300.3
985.5,301,23.2,19.8,81,14.94,76,5.5,297.6,341.1,300.3
984.9,306,23.2,19.9,82,15.00,76,5.5,297.6,341.2,300.3
984.3,311,23.1,19.9,82,14.98,76,5.5,297.6,341.2,300.3
983.7,317,23.0,19.8,82,14.96,76,5.5,297.6,341.1,300.3
983.1,322,23.0,19.8,82,14.99,76,5.5,297.6,341.2,300.3
982.5,328,22.9,19.9,83,15.02,76,5.5,297.6,341.3,300.3
981.8,333,22.9,19.8,83,15.01,76,5.6,297.6,341.3,300.3
981.2,339,22.8,19.9,83,15.03,76,5.6,297.6,341.3,300.3
980.6,344,22.8,19.9,84,15.11,76,5.6,297.6,341.5,300.3
980.0,350,22.7,19.9,84,15.14,76,5.6,297.6,341.6,300.3
979.4,355,22.7,19.9,84,15.10,76,5.7,297.6,341.5,300.3
978.8,360,22.6,19.8,84,15.05,76,5.7,297.6,341.4,300.3
978.2,366,22.6,19.8,84,15.02,76,5.7,297.6,341.3,300.3
977.6,371,22.5,19.8,85,15.03,76,5.8,297.6,341.3,300.3
977.0,376,22.5,19.8,85,15.05,76,5.8,297.6,341.4,300.3
976.4,382,22.4,19.8,85,15.08,76,5.8,297.6,341.4,300.3
975.8,387,22.4,19.8,86,15.09,76,5.8,297.6,341.5,300.3
975.2,392,22.3,19.8,86,15.09,76,5.9,297.6,341.5,300.3
974.7,397,22.2,19.8,86,15.08,75,5.9,297.6,341.4,300.2
974.1,402,22.2,19.8,86,15.07,75,5.9,297.6,341.4,300.3
973.6,407,22.2,19.8,86,15.08,75,5.9,297.6,341.4,300.3
973.0,412,22.1,19.8,87,15.12,75,5.9,297.6,341.6,300.3
972.5,417,22.1,19.8,87,15.12,75,5.9,297.6,341.5,300.3
971.9,422,22.0,19.8,87,15.11,75,5.9,297.6,341.5,300.3
971.4,426,22.0,19.8,87,15.09,75,5.9,297.6,341.5,300.3
970.9,431,21.9,19.8,88,15.10,75,5.9,297.6,341.5,300.3
970.3,436,21.9,19.8,88,15.13,75,5.9,297.6,341.6,300.3
969.8,441,21.8,19.7,88,15.11,75,5.9,297.6,341.5,300.2
969.2,446,21.8,19.7,88,15.04,75,5.9,297.6,341.3,300.2
968.7,451,21.7,19.5,87,14.89,75,5.8,297.6,340.9,300.2
968.2,455,21.7,19.3,86,14.73,75,5.8,297.6,340.5,300.2
967.7,460,21.7,19.2,85,14.60,75,5.8,297.6,340.1,300.2
967.2,465,21.7,19.0,85,14.49,76,5.8,297.7,339.8,300.3
966.6,469,21.7,19.0,85,14.44,76,5.8,297.7,339.8,300.3
966.1,474,21.6,19.0,85,14.46,76,5.8,297.7,339.8,300.3
965.6,478,21.6,19.0,85,14.49,76,5.8,297.7,339.9,300.3
965.1,483,21.5,19.1,86,14.56,77,5.8,297.7,340.1,300.3
964.6,487,21.5,19.1,86,14.60,77,5.8,297.7,340.2,300.3
964.1,492,21.4,19.1,87,14.60,78,5.8,297.7,340.2,300.3
963.6,496,21.4,19.1,87,14.61,78,5.8,297.7,340.2,300.3
963.1,501,21.4,19.1,87,14.63,78,5.8,297.7,340.3,300.3
962.6,506,21.3,19.1,87,14.65,79,5.8,297.7,340.4,300.3
962.1,510,21.3,19.1,88,14.65,79,5.9,297.7,340.3,300.3
961.5,515,21.2,19.1,88,14.65,80,5.9,297.7,340.3,300.3
961.0,520,21.2,19.1,88,14.63,80,5.9,297.7,340.3,300.3
960.5,524,21.1,19.0,88,14.59,81,6.0,297.7,340.1,300.3
960.0,529,21.1,19.0,88,14.55,81,6.0,297.7,340.0,300.3
959.5,533,21.0,19.0,88,14.55,82,6.1,297.7,340.0,300.3
959.0,538,21.0,19.0,88,14.59,82,6.2,297.7,340.1,300.3
958.6,542,21.0,19.0,89,14.61,83,6.2,297.7,340.2,300.3
958.1,546,20.9,19.0,89,14.59,83,6.3,297.7,340.2,300.3
957.6,550,20.9,18.9,89,14.53,84,6.4,297.7,340.0,300.3
957.2,555,20.9,18.8,88,14.45,84,6.4,297.7,339.8,300.3
956.7,559,20.9,18.8,88,14.42,84,6.5,297.7,339.7,300.3
956.3,563,20.8,18.8,88,14.46,85,6.5,297.7,339.8,300.3
955.8,567,20.8,18.9,89,14.50,85,6.6,297.7,340.0,300.3
955.3,572,20.7,18.8,89,14.48,86,6.7,297.7,339.9,300.3
954.8,576,20.7,18.7,89,14.39,86,6.7,297.7,339.6,300.3
954.3,580,20.6,18.6,88,14.25,86,6.8,297.7,339.2,300.3
953.8,585,20.6,18.3,86,14.00,87,6.8,297.8,338.5,300.3
953.3,590,20.6,18.0,85,13.71,87,6.9,297.8,337.8,300.2
952.8,594,20.6,17.8,84,13.58,87,6.9,297.8,337.4,300.3
952.3,599,20.6,17.8,84,13.61,87,6.9,297.9,337.5,300.3
951.7,604,20.5,18.0,85,13.75,88,7.0,297.9,337.9,300.3
951.2,609,20.5,18.1,87,13.91,88,7.0,297.8,338.4,300.3
950.6,615,20.4,18.3,88,14.02,88,7.0,297.8,338.7,300.3
950.0,620,20.3,18.3,88,14.07,89,7.0,297.8,338.8,300.3
949.4,625,20.3,18.3,88,14.05,89,7.1,297.8,338.7,300.3
948.8,631,20.2,18.2,88,13.99,89,7.1,297.8,338.5,300.3
948.2,636,20.1,18.1,88,13.95,89,7.1,297.8,338.4,300.3
947.6,642,20.1,18.0,88,13.87,90,7.1,297.8,338.2,300.3
947.0,647,20.1,18.0,88,13.81,90,7.1,297.8,338.1,300.3
946.4,652,20.1,18.1,88,13.90,90,7.1,297.9,338.4,300.3
945.8,658,20.0,18.3,90,14.15,90,7.1,297.8,339.1,300.4
945.2,664,19.9,18.6,92,14.42,90,7.1,297.8,339.8,300.4
944.6,670,19.8,18.7,94,14.55,91,7.1,297.8,340.1,300.4
943.9,676,19.7,18.7,94,14.53,91,7.1,297.7,340.1,300.3
943.3,682,19.7,18.6,94,14.45,91,7.1,297.7,339.8,300.3
942.6,688,19.6,18.5,93,14.34,91,7.1,297.7,339.5,300.3
942.0,693,19.5,18.4,93,14.25,91,7.1,297.7,339.2,300.3
941.4,699,19.5,18.2,92,14.11,92,7.1,297.7,338.8,300.3
940.8,704,19.5,18.0,91,13.91,92,7.1,297.8,338.3,300.3
940.3,709,19.5,17.6,89,13.62,92,7.1,297.8,337.5,300.2
939.8,714,19.5,17.3,87,13.32,92,7.1,297.8,336.7,300.2
939.2,719,19.5,17.2,87,13.25,93,7.1,297.9,336.5,300.3
938.7,724,19.4,17.3,88,13.38,93,7.1,297.9,336.9,300.3
938.1,729,19.4,17.5,89,13.57,93,7.1,297.9,337.5,300.3
937.6,734,19.3,17.5,89,13.57,94,7.0,297.9,337.5,300.3
937.0,739,19.3,17.0,87,13.13,94,7.0,297.9,336.2,300.3
936.5,744,19.4,16.2,82,12.44,94,7.0,298.0,334.4,300.3
935.9,749,19.4,15.5,78,11.92,95,6.9,298.2,333.0,300.3
935.4,754,19.5,15.2,76,11.67,95,6.9,298.3,332.5,300.4
934.8,759,19.5,15.0,75,11.56,96,6.9,298.4,332.3,300.5
934.3,764,19.5,15.0,75,11.53,96,6.8,298.4,332.2,300.5
933.7,769,19.5,15.0,75,11.52,96,6.8,298.5,332.2,300.5
933.2,774,19.5,14.9,75,11.52,97,6.7,298.5,332.2,300.5
932.6,780,19.5,14.9,75,11.52,97,6.7,298.5,332.2,300.6
932.0,785,19.4,14.9,75,11.54,98,6.6,298.5,332.3,300.6
931.4,791,19.4,15.0,76,11.58,98,6.6,298.5,332.5,300.6
930.8,797,19.3,15.0,76,11.63,98,6.6,298.5,332.6,300.6
930.1,802,19.2,15.1,77,11.65,99,6.5,298.5,332.6,300.6
929.5,808,19.2,15.0,77,11.62,99,6.5,298.5,332.6,300.6
928.9,814,19.2,14.9,76,11.57,99,6.5,298.6,332.5,300.6
928.3,819,19.2,14.9,76,11.52,100,6.5,298.6,332.4,300.7
927.7,825,19.1,14.8,76,11.52,100,6.5,298.6,332.4,300.7
927.2,830,19.1,14.9,76,11.55,100,6.5,298.6,332.5,300.7
926.6,835,19.1,14.9,77,11.60,100,6.5,298.7,332.7,300.7
926.0,841,19.0,15.0,77,11.65,100,6.5,298.7,332.9,300.8
925.4,846,19.0,15.0,78,11.66,100,6.5,298.7,332.9,300.8
925.0,850,19.0,14.9,77,11.62,100,6.5,298.7,332.8,300.8
924.8,852,19.0,14.9,77,11.61,100,6.6,298.7,332.7,300.8
924.2,858,18.9,14.8,77,11.51,99,6.6,298.7,332.5,300.8
923.5,864,18.9,14.6,76,11.41,99,6.6,298.7,332.2,300.8
922.9,870,18.9,14.6,76,11.36,99,6.7,298.8,332.1,300.8
922.2,876,18.8,14.6,76,11.38,99,6.7,298.8,332.2,300.8
921.6,882,18.8,14.6,77,11.43,98,6.8,298.8,332.4,300.9
920.9,889,18.7,14.7,77,11.46,98,6.8,298.8,332.4,300.9
920.2,895,18.7,14.6,77,11.44,98,6.9,298.8,332.4,300.9
919.6,901,18.6,14.5,77,11.36,97,6.9,298.8,332.2,300.9
919.0,906,18.6,14.4,77,11.28,97,7.0,298.8,332.0,300.9
918.4,912,18.5,14.3,76,11.24,97,7.0,298.9,331.9,300.9
917.9,917,18.5,14.4,77,11.27,97,7.0,298.9,332.0,300.9
917.4,921,18.5,14.4,77,11.32,96,7.1,298.9,332.1,300.9
916.9,926,18.4,14.4,77,11.34,96,7.1,298.9,332.2,300.9
916.4,930,18.4,14.4,78,11.35,96,7.1,298.9,332.3,301.0
916.0,934,18.4,14.4,78,11.32,95,7.1,298.9,332.2,301.0
915.5,939,18.4,14.3,77,11.29,95,7.2,298.9,332.1,301.0
915.1,943,18.3,14.3,78,11.29,95,7.2,299.0,332.1,301.0
914.6,947,18.3,14.4,78,11.33,94,7.2,299.0,332.2,301.0
914.1,952,18.2,14.4,78,11.36,94,7.2,299.0,332.3,301.0
913.6,956,18.2,14.4,79,11.38,94,7.1,299.0,332.4,301.0
913.1,961,18.2,14.4,79,11.38,94,7.1,299.0,332.4,301.0
912.6,966,18.1,14.4,79,11.36,94,7.1,299.0,332.3,301.0
912.1,971,18.1,14.3,79,11.34,93,7.1,299.0,332.3,301.0
911.6,976,18.0,14.3,79,11.33,93,7.0,299.0,332.3,301.0
911.1,981,18.0,14.3,79,11.34,93,7.0,299.0,332.3,301.0
910.5,986,18.0,14.3,79,11.36,93,7.0,299.0,332.4,301.0
910.0,991,17.9,14.3,80,11.36,93,6.9,299.0,332.4,301.0
909.4,996,17.9,14.3,80,11.37,93,6.9,299.0,332.4,301.0
908.8,1002,17.8,14.4,80,11.39,93,6.9,299.0,332.5,301.0
908.3,1007,17.7,14.3,80,11.39,93,6.8,299.0,332.4,301.0
907.7,1012,17.7,14.3,80,11.36,93,6.8,299.0,332.4,301.1
907.2,1017,17.7,14.2,80,11.33,93,6.8,299.0,332.3,301.1
906.7,1022,17.6,14.2,80,11.31,93,6.7,299.0,332.3,301.1
906.3,1026,17.6,14.2,80,11.30,94,6.7,299.0,332.2,301.1
905.8,1030,17.6,14.2,80,11.28,94,6.7,299.0,332.2,301.1
905.4,1034,17.5,14.1,80,11.25,94,6.7,299.1,332.1,301.1
904.9,1038,17.5,14.1,80,11.23,94,6.6,299.1,332.1,301.1
904.5,1042,17.5,14.1,80,11.22,95,6.6,299.1,332.1,301.1
904.1,1046,17.5,14.1,80,11.23,95,6.6,299.1,332.1,301.1
903.7,1051,17.5,14.1,81,11.27,95,6.6,299.1,332.3,301.2
903.2,1055,17.4,14.2,81,11.32,95,6.6,299.1,332.4,301.2
902.8,1059,17.4,14.2,81,11.34,95,6.6,299.1,332.5,301.2
902.3,1064,17.3,14.2,82,11.34,96,6.6,299.1,332.5,301.2
901.8,1068,17.3,14.2,82,11.34,96,6.6,299.1,332.5,301.2
901.3,1073,17.2,14.2,82,11.34,96,6.6,299.1,332.5,301.2
900.8,1078,17.2,14.1,82,11.33,95,6.6,299.1,332.5,301.2
900.3,1082,17.2,14.1,82,11.34,95,6.6,299.2,332.5,301.2
899.8,1087,17.2,14.1,82,11.35,95,6.6,299.2,332.5,301.2
899.4,1091,17.1,14.1,83,11.35,95,6.6,299.2,332.6,301.2
898.9,1096,17.1,14.1,83,11.36,94,6.6,299.2,332.6,301.3
898.5,1100,17.1,14.2,83,11.37,94,6.6,299.3,332.7,301.3
898.0,1104,17.1,14.1,83,11.37,93,6.6,299.3,332.7,301.3
897.6,1108,17.1,14.1,83,11.34,92,6.6,299.3,332.7,301.3
897.1,1113,17.0,14.0,83,11.31,92,6.6,299.3,332.6,301.4
896.6,1117,17.0,14.0,83,11.29,91,6.6,299.3,332.5,301.4
896.2,1122,17.0,14.0,83,11.29,90,6.6,299.3,332.6,301.4
895.7,1126,16.9,14.0,83,11.32,90,6.6,299.3,332.6,301.4
895.2,1131,16.9,14.1,84,11.35,89,6.6,299.3,332.7,301.4
894.8,1135,16.8,14.1,84,11.37,88,6.6,299.3,332.8,301.4
894.3,1140,16.8,14.1,84,11.39,88,6.6,299.4,332.9,301.4
893.8,1144,16.8,14.1,84,11.39,87,6.6,299.4,332.9,301.4
893.4,1149,16.7,14.1,84,11.38,87,6.6,299.4,332.8,301.4
892.9,1153,16.7,14.0,84,11.36,86,6.6,299.4,332.8,301.4
892.4,1158,16.7,14.0,84,11.35,86,6.6,299.4,332.8,301.4
892.0,1162,16.6,14.0,85,11.36,86,6.6,299.4,332.8,301.4
891.5,1167,16.6,14.0,85,11.37,86,6.5,299.4,332.9,301.5
891.0,1171,16.5,14.0,85,11.38,87,6.5,299.4,332.9,301.5
890.5,1176,16.5,14.0,85,11.38,87,6.5,299.4,332.9,301.4
890.0,1180,16.5,14.0,85,11.37,87,6.4,299.4,332.9,301.5
889.6,1185,16.4,14.0,85,11.35,88,6.4,299.4,332.8,301.5
889.2,1189,16.4,14.0,86,11.36,89,6.3,299.4,332.9,301.5
888.7,1193,16.4,14.0,86,11.39,90,6.2,299.5,333.0,301.5
888.3,1197,16.4,14.0,86,11.42,91,6.2,299.5,333.1,301.5
887.8,1202,16.3,14.1,87,11.45,92,6.1,299.5,333.2,301.5
887.4,1206,16.3,14.1,87,11.48,93,6.0,299.5,333.3,301.5
886.9,1210,16.3,14.1,87,11.49,95,5.9,299.5,333.3,301.6
886.5,1215,16.2,14.1,87,11.50,96,5.9,299.5,333.3,301.6
886.0,1219,16.2,14.2,88,11.53,98,5.8,299.5,333.5,301.6
885.6,1223,16.2,14.2,88,11.58,100,5.7,299.5,333.6,301.6
885.2,1227,16.1,14.2,89,11.60,101,5.7,299.5,333.7,301.6
884.7,1231,16.1,14.2,89,11.60,103,5.6,299.6,333.7,301.6
884.3,1235,16.1,14.2,89,11.61,104,5.5,299.6,333.7,301.7
884.0,1239,16.0,14.2,89,11.62,106,5.4,299.6,333.8,301.7
883.6,1243,16.0,14.3,89,11.64,107,5.4,299.6,333.8,301.7
883.2,1247,16.0,14.3,90,11.65,109,5.3,299.6,333.9,301.7
882.7,1251,15.9,14.3,90,11.67,110,5.2,299.6,333.9,301.7
882.3,1255,15.9,14.3,90,11.71,111,5.2,299.6,334.1,301.7
881.9,1259,15.9,14.4,91,11.76,112,5.1,299.6,334.2,301.7
881.5,1263,15.9,14.5,91,11.83,113,5.0,299.6,334.4,301.8
881.0,1267,15.9,14.6,92,11.92,114,5.0,299.7,334.7,301.8
880.6,1271,15.8,14.7,93,12.01,114,4.9,299.7,335.0,301.8
880.2,1276,15.8,14.8,93,12.08,115,4.8,299.7,335.2,301.9
879.7,1280,15.8,14.8,94,12.13,115,4.7,299.7,335.4,301.9
879.3,1284,15.8,14.8,94,12.16,115,4.6,299.7,335.5,301.9
878.8,1289,15.7,14.9,95,12.18,114,4.5,299.7,335.6,301.9
878.3,1294,15.7,14.9,95,12.20,114,4.4,299.7,335.6,301.9
877.8,1299,15.6,14.9,95,12.25,113,4.3,299.7,335.8,302.0
877.2,1304,15.6,15.0,96,12.33,112,4.2,299.8,336.0,302.0
876.7,1309,15.5,15.1,97,12.37,111,4.1,299.8,336.1,302.0
876.1,1315,15.5,15.0,97,12.36,109,4.0,299.7,336.1,302.0
875.6,1320,15.4,15.0,97,12.33,108,3.9,299.7,336.0,302.0
875.1,1325,15.4,15.0,97,12.32,106,3.8,299.8,336.0,302.0
874.5,1330,15.4,15.0,97,12.34,104,3.7,299.8,336.1,302.0
874.0,1335,15.4,15.0,98,12.37,101,3.6,299.8,336.2,302.1
873.5,1340,15.3,15.1,98,12.42,99,3.6,299.9,336.4,302.1
873.0,1345,15.3,15.1,99,12.46,97,3.5,299.9,336.5,302.1
872.6,1350,15.3,15.1,99,12.46,94,3.4,299.9,336.5,302.1
872.1,1354,15.3,15.0,98,12.40,91,3.3,299.9,336.4,302.1
871.6,1359,15.2,14.9,98,12.31,89,3.3,299.9,336.2,302.1
871.1,1363,15.2,14.8,97,12.24,86,3.2,300.0,336.0,302.2
870.7,1368,15.2,14.8,98,12.26,83,3.2,300.0,336.1,302.2
870.2,1373,15.2,14.9,98,12.37,81,3.2,300.0,336.4,302.2
869.7,1377,15.2,15.1,99,12.47,78,3.1,300.1,336.8,302.3
869.2,1382,15.2,15.1,99,12.49,76,3.1,300.1,336.9,302.3
868.7,1387,15.1,15.0,99,12.45,74,3.1,300.1,336.8,302.3
868.2,1392,15.1,14.9,99,12.38,72,3.0,300.1,336.6,302.3
867.6,1398,15.0,14.8,99,12.33,71,3.0,300.1,336.4,302.3
867.1,1403,15.0,14.8,99,12.32,69,3.0,300.1,336.4,302.3
866.6,1408,15.0,14.8,99,12.31,68,3.0,300.1,336.4,302.3
866.1,1413,15.0,14.8,99,12.28,67,2.9,300.2,336.4,302.4
865.6,1418,14.9,14.7,98,12.22,67,2.9,300.2,336.2,302.4
865.1,1423,14.9,14.6,98,12.16,66,2.9,300.2,336.1,302.4
864.6,1427,14.8,14.5,98,12.11,66,2.8,300.2,335.9,302.4
864.1,1432,14.8,14.5,98,12.09,66,2.8,300.2,335.8,302.4
863.6,1437,14.7,14.5,99,12.15,67,2.8,300.2,336.0,302.4
863.2,1441,14.7,14.6,99,12.23,67,2.7,300.2,336.3,302.5
862.7,1446,14.8,14.7,100,12.27,68,2.7,300.3,336.5,302.5
862.2,1451,14.7,14.7,100,12.26,68,2.6,300.3,336.5,302.5
861.8,1455,14.7,14.6,100,12.25,69,2.6,300.4,336.5,302.6
861.3,1460,14.7,14.6,100,12.25,70,2.5,300.4,336.5,302.6
860.8,1465,14.7,14.6,100,12.26,71,2.5,300.4,336.6,302.7
860.4,1469,14.7,14.6,99,12.20,72,2.4,300.4,336.4,302.6
859.9,1474,14.5,14.4,99,12.08,73,2.4,300.4,336.0,302.5
859.5,1478,14.5,14.3,99,12.01,73,2.3,300.3,335.8,302.5
859.0,1482,14.4,14.3,99,12.00,74,2.2,300.3,335.7,302.5
858.6,1486,14.4,14.3,99,11.99,75,2.1,300.3,335.7,302.5
858.2,1490,14.4,14.2,99,11.98,75,2.1,300.4,335.7,302.5
857.8,1494,14.4,14.2,99,11.98,75,2.0,300.4,335.8,302.6
857.4,1499,14.3,14.2,99,11.99,75,1.9,300.4,335.8,302.6
857.0,1503,14.3,14.2,99,11.99,74,1.8,300.4,335.8,302.6
856.5,1507,14.3,14.2,100,12.00,74,1.7,300.5,335.9,302.6
856.1,1511,14.3,14.2,99,11.98,72,1.6,300.5,335.9,302.6
855.7,1515,14.3,14.2,100,11.99,71,1.5,300.5,335.9,302.7
855.3,1520,14.3,14.3,100,12.04,68,1.4,300.6,336.1,302.7
854.8,1524,14.3,14.3,100,12.09,65,1.3,300.6,336.3,302.8
854.3,1529,14.3,14.3,100,12.10,61,1.2,300.7,336.5,302.9
853.9,1533,14.4,14.3,99,12.08,56,1.1,300.8,336.5,303.0
853.4,1538,14.4,14.3,99,12.08,51,1.0,300.9,336.6,303.1
852.9,1543,14.5,14.3,98,12.07,45,1.0,301.0,336.7,303.2
852.3,1548,14.6,14.1,97,11.99,38,1.0,301.1,336.6,303.3
851.8,1554,14.6,13.9,96,11.82,32,1.0,301.2,336.3,303.4
851.2,1560,14.6,13.7,94,11.62,26,1.0,301.3,335.8,303.4
850.7,1565,14.6,13.5,93,11.53,21,1.0,301.4,335.6,303.5
850.1,1570,14.7,13.6,93,11.58,16,1.0,301.5,335.9,303.6
850.0,1572,14.7,13.6,93,11.61,13,1.1,301.5,336.0,303.6
849.6,1576,14.8,13.7,94,11.70,13,1.1,301.6,336.4,303.7
849.1,1581,14.8,13.9,94,11.81,11,1.1,301.7,336.8,303.9
848.7,1585,14.9,13.9,94,11.84,9,1.2,301.8,337.0,304.0
848.2,1590,14.9,13.9,94,11.82,9,1.2,301.9,337.0,304.0
847.8,1594,14.9,13.8,93,11.79,9,1.3,301.9,337.0,304.1
847.3,1598,14.9,13.8,94,11.82,9,1.3,302.0,337.1,304.1
846.9,1603,14.9,13.9,94,11.86,10,1.4,302.0,337.3,304.2
846.5,1607,14.9,13.9,94,11.91,12,1.4,302.1,337.5,304.2
846.0,1611,14.9,14.0,95,11.97,14,1.4,302.1,337.7,304.3
845.6,1616,14.8,14.0,95,11.98,16,1.5,302.1,337.8,304.3
845.1,1621,14.8,14.0,95,11.98,18,1.5,302.2,337.8,304.3
844.6,1625,14.8,14.0,95,11.97,21,1.5,302.2,337.8,304.4
844.2,1630,14.8,13.9,94,11.93,24,1.5,302.2,337.7,304.4
843.7,1635,14.8,13.9,94,11.92,27,1.5,302.3,337.7,304.4
843.2,1640,14.8,13.9,94,11.93,31,1.5,302.3,337.8,304.5
842.8,1644,14.8,13.9,94,11.94,35,1.5,302.4,337.9,304.5
842.3,1649,14.8,13.9,94,11.93,39,1.5,302.4,338.0,304.6
841.8,1654,14.9,13.8,94,11.89,43,1.5,302.5,337.9,304.7
841.3,1659,14.9,13.7,93,11.82,47,1.5,302.6,337.9,304.8
840.8,1664,15.0,13.6,91,11.72,52,1.4,302.8,337.7,304.9
840.3,1669,15.1,13.5,90,11.63,57,1.4,302.9,337.6,305.0
839.8,1674,15.1,13.3,89,11.51,62,1.4,303.0,337.4,305.1
839.4,1679,15.2,13.1,87,11.39,68,1.4,303.1,337.2,305.2
838.9,1684,15.3,13.0,86,11.31,73,1.4,303.3,337.1,305.4
838.4,1688,15.4,12.9,85,11.21,79,1.4,303.5,337.0,305.5
838.0,1693,15.6,12.6,82,10.98,85,1.4,303.7,336.6,305.7
837.5,1697,15.7,12.2,79,10.71,91,1.4,303.9,336.1,305.9
837.1,1702,15.9,11.9,77,10.48,96,1.4,304.1,335.6,306.0
836.7,1706,16.0,11.6,75,10.32,102,1.4,304.3,335.3,306.1
836.3,1710,16.1,11.3,73,10.10,107,1.5,304.4,334.9,306.3
835.9,1714,16.3,10.9,71,9.87,112,1.5,304.6,334.4,306.4
835.4,1719,16.3,10.7,69,9.72,117,1.5,304.8,334.1,306.5
835.0,1723,16.4,10.5,68,9.59,121,1.6,304.9,333.9,306.7
834.6,1727,16.5,10.3,67,9.45,125,1.6,305.0,333.6,306.7
834.2,1731,16.5,10.1,66,9.34,128,1.7,305.1,333.3,306.8
833.8,1736,16.5,10.0,65,9.30,131,1.7,305.1,333.3,306.8
833.3,1740,16.5,10.0,65,9.29,134,1.8,305.1,333.3,306.8
832.9,1744,16.5,9.8,65,9.16,136,1.8,305.1,332.9,306.8
832.5,1749,16.5,9.4,63,8.94,138,1.9,305.2,332.3,306.8
832.1,1753,16.5,9.1,62,8.76,140,1.9,305.2,331.8,306.8
831.7,1757,16.5,8.9,61,8.62,141,2.0,305.3,331.5,306.9
831.3,1761,16.5,8.5,59,8.42,143,2.0,305.4,331.0,306.9
830.9,1765,16.6,8.1,57,8.18,144,2.0,305.5,330.4,307.0
830.5,1769,16.6,7.8,56,8.00,144,2.1,305.6,330.0,307.0
