PRES,HGHT,TEMP,DWPT,RELH,MIXR,DRCT,SPED,THTA,THTE,THTV
1012.9,31,23.9,20.3,80,14.92,352,3.5,296.0,339.1,298.6
1012.1,38,24.3,20.4,79,15.06,13,2.1,296.4,340.0,299.1
1011.7,41,24.4,20.4,79,15.12,20,2.1,296.5,340.3,299.2
1010.9,48,24.4,20.4,78,15.11,22,2.2,296.6,340.4,299.3
1010.1,55,24.4,20.3,78,14.98,21,2.4,296.6,340.0,299.3
1009.7,58,24.3,20.2,78,14.88,20,2.6,296.6,339.8,299.3
1008.9,65,24.3,20.1,77,14.85,19,2.8,296.7,339.8,299.4
1008.3,71,24.4,20.1,77,14.83,19,3.0,296.8,339.9,299.5
1007.7,76,24.4,20.0,77,14.78,19,3.2,296.9,339.8,299.5
1007.0,81,24.4,20.0,77,14.77,19,3.3,296.9,339.8,299.6
1006.4,87,24.4,20.0,77,14.78,19,3.5,297.0,339.9,299.6
1005.9,92,24.3,20.0,77,14.77,18,3.7,297.0,339.9,299.6
1005.3,97,24.3,20.0,77,14.77,18,3.9,297.0,339.9,299.7
1004.8,101,24.3,20.0,77,14.80,18,4.0,297.1,340.0,299.7
1004.2,106,24.3,20.0,77,14.78,18,4.2,297.1,340.0,299.7
1003.7,111,24.3,19.9,77,14.77,19,4.3,297.1,340.0,299.7
1003.1,116,24.3,20.0,77,14.83,19,4.5,297.2,340.2,299.8
1002.5,121,24.3,20.0,77,14.84,19,4.6,297.3,340.4,299.9
1002.0,126,24.4,20.0,76,14.81,19,4.7,297.3,340.4,300.0
1001.4,131,24.4,19.9,76,14.80,19,4.8,297.4,340.4,300.0
1000.7,137,24.4,19.9,76,14.81,20,4.9,297.5,340.5,300.1
1000.1,142,24.4,20.0,77,14.85,20,5.0,297.5,340.7,300.1
1000.0,143,24.3,20.0,77,14.85,21,5.1,297.5,340.7,300.1
999.5,148,24.3,20.0,77,14.85,21,5.1,297.5,340.7,300.1
998.8,153,24.2,19.9,77,14.81,21,5.2,297.5,340.6,300.1
998.2,159,24.2,19.9,77,14.77,22,5.3,297.5,340.5,300.2
997.6,164,24.2,19.8,77,14.75,22,5.4,297.6,340.5,300.2
997.0,170,24.2,19.8,77,14.78,23,5.4,297.6,340.6,300.2
996.4,175,24.1,19.9,77,14.81,23,5.5,297.6,340.7,300.2
995.7,181,24.1,19.9,77,14.83,24,5.6,297.6,340.8,300.3
995.1,186,24.1,19.9,78,14.84,25,5.6,297.6,340.8,300.3
994.5,192,24.0,19.9,78,14.85,25,5.7,297.6,340.8,300.2
993.8,198,23.9,19.9,78,14.85,26,5.8,297.6,340.8,300.2
993.1,204,23.9,19.9,78,14.86,27,5.8,297.6,340.8,300.3
992.4,210,23.8,19.8,79,14.85,27,5.9,297.6,340.8,300.2
991.7,216,23.7,19.8,79,14.84,28,5.9,297.6,340.7,300.2
991.0,222,23.6,19.8,79,14.85,29,6.0,297.5,340.8,300.2
990.3,228,23.6,19.9,80,14.90,29,6.1,297.6,340.9,300.2
989.6,234,23.5,19.9,80,14.91,30,6.1,297.5,340.9,300.2
989.0,240,23.4,19.8,80,14.90,31,6.2,297.5,340.9,300.2
988.3,246,23.4,19.8,80,14.86,31,6.2,297.5,340.8,300.2
987.7,252,23.4,19.7,80,14.81,32,6.3,297.6,340.6,300.2
987.1,257,23.3,19.7,80,14.76,33,6.3,297.6,340.5,300.2
986.4,263,23.3,19.6,80,14.71,33,6.3,297.6,340.4,300.2
985.8,268,23.2,19.6,80,14.70,34,6.4,297.6,340.4,300.2
985.2,274,23.2,19.6,80,14.74,34,6.4,297.6,340.5,300.2
984.6,279,23.2,19.6,81,14.78,35,6.4,297.6,340.6,300.3
984.0,285,23.1,19.7,81,14.81,36,6.5,297.6,340.7,300.2
983.4,290,23.0,19.7,81,14.83,36,6.5,297.6,340.7,300.2
982.7,296,23.0,19.7,82,14.86,37,6.5,297.6,340.8,300.3
982.1,301,22.9,19.7,82,14.86,37,6.5,297.6,340.8,300.2
981.5,306,22.9,19.6,82,14.81,38,6.5,297.6,340.7,300.2
981.0,312,22.8,19.6,82,14.78,39,6.5,297.6,340.6,300.2
980.4,317,22.8,19.6,82,14.81,39,6.5,297.6,340.7,300.2
979.8,322,22.7,19.6,83,14.82,40,6.5,297.6,340.7,300.2
979.2,327,22.7,19.6,83,14.79,40,6.5,297.6,340.6,300.2
978.7,332,22.6,19.5,82,14.75,41,6.5,297.6,340.5,300.2
978.1,337,22.6,19.5,83,14.72,41,6.5,297.6,340.5,300.2
977.5,343,22.6,19.4,82,14.68,42,6.5,297.6,340.4,300.2
976.9,348,22.5,19.4,82,14.63,42,6.5,297.6,340.2,300.2
976.3,353,22.5,19.3,82,14.60,43,6.5,297.7,340.2,300.3
975.7,358,22.5,19.3,82,14.62,43,6.5,297.7,340.3,300.3
975.1,364,22.4,19.3,83,14.64,43,6.5,297.7,340.4,300.3
974.6,369,22.4,19.4,83,14.68,44,6.5,297.7,340.4,300.3
974.0,374,22.3,19.4,84,14.74,44,6.5,297.7,340.6,300.3
973.4,379,22.3,19.5,84,14.81,44,6.5,297.7,340.8,300.3
972.9,384,22.2,19.5,85,14.83,45,6.5,297.7,340.9,300.3
972.4,389,22.2,19.5,85,14.81,45,6.5,297.7,340.8,300.3
971.8,393,22.2,19.5,85,14.87,45,6.5,297.7,341.0,300.4
971.3,398,22.1,19.6,86,14.99,45,6.5,297.7,341.4,300.4
970.8,403,22.1,19.6,86,14.98,45,6.5,297.7,341.4,300.4
970.3,407,22.1,19.5,85,14.85,45,6.6,297.8,341.0,300.4
969.8,412,22.0,19.3,84,14.64,45,6.6,297.8,340.4,300.4
969.3,416,22.0,19.2,84,14.57,46,6.6,297.8,340.2,300.4
968.8,421,21.9,19.3,85,14.67,46,6.7,297.8,340.5,300.4
968.3,425,21.9,19.4,86,14.83,46,6.7,297.8,341.0,300.4
967.7,430,21.8,19.6,87,14.98,46,6.7,297.8,341.4,300.4
967.2,435,21.8,19.6,88,15.02,46,6.8,297.7,341.5,300.4
966.7,439,21.7,19.6,87,14.97,46,6.8,297.7,341.3,300.4
966.2,444,21.7,19.5,87,14.89,46,6.8,297.8,341.1,300.4
965.7,449,21.6,19.4,87,14.85,46,6.9,297.7,341.0,300.4
965.2,453,21.6,19.5,88,14.90,46,6.9,297.7,341.1,300.4
964.7,458,21.5,19.5,88,15.00,46,6.9,297.7,341.4,300.4
964.2,462,21.5,19.6,89,15.04,47,6.9,297.7,341.5,300.4
963.7,466,21.5,19.6,89,15.04,47,6.9,297.7,341.5,300.4
963.3,470,21.4,19.6,89,15.04,47,7.0,297.7,341.5,300.4
962.8,474,21.4,19.6,89,15.04,47,7.0,297.7,341.5,300.4
962.4,479,21.4,19.6,90,15.06,47,7.0,297.7,341.6,300.4
961.9,483,21.3,19.6,90,15.08,47,7.0,297.7,341.6,300.4
961.4,487,21.3,19.6,90,15.08,47,6.9,297.8,341.6,300.4
960.9,492,21.2,19.5,90,15.06,47,6.9,297.8,341.6,300.4
960.3,497,21.2,19.5,90,15.05,47,6.9,297.8,341.6,300.4
959.7,502,21.2,19.5,90,15.04,47,6.9,297.8,341.6,300.5
959.1,508,21.1,19.5,90,15.03,47,6.9,297.8,341.5,300.5
958.5,513,21.0,19.5,91,15.03,47,6.8,297.8,341.5,300.5
957.9,519,21.0,19.5,91,15.03,47,6.8,297.8,341.5,300.4
957.2,525,20.9,19.5,91,15.03,47,6.8,297.8,341.5,300.4
956.6,531,20.9,19.4,92,15.03,47,6.7,297.8,341.5,300.4
956.0,536,20.8,19.5,92,15.07,47,6.7,297.7,341.6,300.4
955.3,542,20.7,19.5,93,15.09,47,6.7,297.7,341.7,300.4
954.7,548,20.6,19.5,93,15.07,47,6.7,297.7,341.6,300.4
954.1,553,20.6,19.4,93,15.03,47,6.6,297.7,341.4,300.4
953.5,559,20.5,19.3,93,14.98,47,6.6,297.7,341.3,300.4
952.9,564,20.5,19.3,93,14.96,47,6.6,297.7,341.3,300.4
952.3,570,20.5,19.3,93,14.99,47,6.6,297.7,341.4,300.4
951.7,575,20.4,19.4,94,15.05,47,6.6,297.8,341.6,300.4
951.1,581,20.4,19.4,94,15.10,47,6.6,297.8,341.7,300.4
950.5,586,20.3,19.4,95,15.10,47,6.6,297.7,341.7,300.4
949.9,592,20.3,19.4,95,15.05,47,6.6,297.8,341.6,300.4
949.3,597,20.2,19.3,94,15.00,47,6.6,297.8,341.4,300.4
948.7,603,20.2,19.3,95,14.98,47,6.6,297.8,341.4,300.4
948.1,608,20.1,19.3,95,14.99,47,6.6,297.8,341.4,300.4
947.5,613,20.1,19.3,95,14.99,47,6.7,297.8,341.4,300.4
947.0,619,20.0,19.2,95,14.98,47,6.7,297.7,341.4,300.4
946.4,624,20.0,19.2,95,14.96,47,6.7,297.8,341.3,300.4
945.8,629,19.9,19.2,96,14.96,47,6.8,297.8,341.3,300.4
945.2,635,19.9,19.2,96,14.99,47,6.8,297.8,341.4,300.4
944.6,640,19.8,19.3,97,15.04,48,6.9,297.8,341.5,300.4
944.1,645,19.7,19.3,97,15.06,48,6.9,297.7,341.6,300.4
943.5,650,19.7,19.3,97,15.06,48,7.0,297.7,341.6,300.4
942.9,656,19.7,19.2,97,15.06,48,7.0,297.8,341.6,300.4
942.3,661,19.6,19.2,98,15.06,48,7.1,297.8,341.6,300.4
941.8,666,19.5,19.2,98,15.05,48,7.1,297.7,341.5,300.4
941.2,671,19.5,19.2,98,15.03,48,7.2,297.8,341.5,300.4
940.6,676,19.5,19.2,98,15.04,49,7.2,297.8,341.6,300.5
940.1,682,19.4,19.2,99,15.06,49,7.3,297.8,341.6,300.5
939.5,687,19.4,19.2,99,15.07,49,7.3,297.8,341.7,300.5
939.0,692,19.3,19.2,99,15.07,49,7.3,297.8,341.7,300.5
938.4,697,19.3,19.2,99,15.05,49,7.4,297.8,341.6,300.5
937.9,702,19.3,19.1,99,15.02,49,7.4,297.8,341.5,300.5
937.3,707,19.2,19.1,99,14.99,49,7.5,297.8,341.4,300.5
936.8,712,19.2,19.0,99,14.94,49,7.5,297.8,341.3,300.5
936.2,717,19.1,18.9,99,14.87,50,7.5,297.8,341.1,300.5
935.7,722,19.1,18.8,99,14.79,50,7.6,297.8,340.9,300.5
935.1,727,19.0,18.7,98,14.63,50,7.6,297.8,340.4,300.4
934.6,732,19.0,18.4,96,14.42,50,7.6,297.8,339.8,300.4
934.0,737,19.0,18.3,96,14.34,50,7.6,297.9,339.6,300.4
933.5,742,18.9,18.4,97,14.41,50,7.6,297.9,339.8,300.4
933.0,747,18.9,18.5,98,14.50,50,7.6,297.9,340.1,300.4
932.4,752,18.8,18.5,98,14.54,50,7.7,297.9,340.2,300.5
931.9,757,18.8,18.4,98,14.48,50,7.7,297.9,340.1,300.5
931.4,762,18.8,18.2,97,14.30,50,7.7,297.9,339.6,300.5
930.8,767,18.7,18.3,97,14.32,51,7.7,297.9,339.6,300.5
930.3,772,18.7,18.4,98,14.44,51,7.7,297.9,340.0,300.5
929.8,776,18.6,18.4,99,14.48,51,7.7,297.9,340.1,300.5
929.3,781,18.6,18.3,99,14.42,51,7.6,297.9,339.9,300.5
928.7,786,18.5,18.2,98,14.31,51,7.6,297.9,339.6,300.5
928.2,791,18.5,17.9,96,14.06,51,7.6,297.9,338.9,300.4
927.6,796,18.5,17.6,95,13.82,51,7.6,298.0,338.3,300.5
927.1,802,18.5,17.5,94,13.69,51,7.5,298.0,337.9,300.5
926.6,807,18.5,17.4,94,13.66,51,7.5,298.0,337.9,300.5
926.0,812,18.4,17.4,94,13.63,51,7.5,298.1,337.8,300.5
925.5,817,18.4,17.3,93,13.56,51,7.4,298.1,337.6,300.5
925.0,821,18.4,17.2,93,13.49,51,7.4,298.1,337.5,300.5
924.4,826,18.4,17.1,93,13.43,51,7.4,298.1,337.3,300.5
923.9,831,18.3,17.1,92,13.37,51,7.3,298.1,337.2,300.5
923.4,836,18.3,17.0,92,13.34,51,7.3,298.2,337.1,300.5
922.9,841,18.3,17.0,92,13.31,51,7.2,298.2,337.0,300.5
922.4,846,18.2,17.0,92,13.29,51,7.2,298.2,337.0,300.5
921.9,850,18.2,16.9,93,13.29,51,7.1,298.2,337.0,300.5
921.3,855,18.1,17.0,93,13.32,51,7.1,298.2,337.1,300.6
920.8,860,18.1,17.0,93,13.36,51,7.1,298.2,337.2,300.6
920.3,865,18.1,17.0,93,13.35,51,7.0,298.2,337.2,300.6
919.8,870,18.0,16.9,93,13.28,51,7.0,298.2,337.0,300.6
919.3,874,18.0,16.8,93,13.17,51,7.0,298.2,336.7,300.6
918.8,879,18.0,16.6,92,13.06,51,6.9,298.2,336.4,300.6
918.2,884,18.0,16.5,91,12.99,51,6.9,298.3,336.2,300.6
917.7,889,17.9,16.5,91,12.96,51,6.9,298.3,336.2,300.6
917.3,893,17.9,16.5,92,12.97,51,6.9,298.3,336.2,300.6
916.8,898,17.8,16.5,92,12.97,51,6.9,298.3,336.2,300.6
916.3,902,17.8,16.5,92,12.98,51,6.9,298.3,336.3,300.7
915.8,907,17.8,16.5,92,13.00,51,6.9,298.4,336.3,300.7
915.4,911,17.8,16.5,92,12.99,51,6.9,298.4,336.4,300.7
914.9,916,17.8,16.4,92,12.93,52,6.9,298.4,336.2,300.7
914.4,920,17.8,16.3,91,12.82,52,6.9,298.5,335.9,300.7
913.8,925,17.8,16.1,90,12.72,52,7.0,298.5,335.7,300.8
913.3,930,17.8,16.1,90,12.67,52,7.0,298.5,335.6,300.8
912.8,935,17.7,16.0,90,12.63,52,7.0,298.5,335.5,300.8
912.2,940,17.7,15.9,89,12.57,52,7.1,298.5,335.3,300.8
911.7,945,17.6,15.8,89,12.50,52,7.1,298.6,335.2,300.8
911.2,950,17.6,15.8,89,12.47,52,7.2,298.6,335.1,300.8
910.7,955,17.6,15.8,89,12.49,52,7.2,298.6,335.2,300.9
910.2,959,17.6,15.8,90,12.54,52,7.3,298.6,335.3,300.9
909.8,964,17.5,15.9,90,12.57,51,7.3,298.6,335.4,300.9
909.3,968,17.5,15.8,90,12.54,51,7.4,298.6,335.3,300.9
908.9,972,17.4,15.8,90,12.48,51,7.5,298.6,335.1,300.8
908.5,976,17.4,15.7,90,12.43,51,7.5,298.6,335.0,300.8
908.0,980,17.4,15.7,90,12.42,51,7.6,298.6,335.0,300.9
907.6,984,17.3,15.7,90,12.43,51,7.6,298.6,335.1,300.9
907.1,989,17.3,15.7,90,12.44,51,7.7,298.7,335.1,300.9
906.6,993,17.3,15.7,90,12.43,50,7.8,298.7,335.1,301.0
906.1,998,17.3,15.6,90,12.41,50,7.8,298.8,335.1,301.0
905.5,1004,17.3,15.6,90,12.37,50,7.9,298.8,335.0,301.0
905.0,1009,17.2,15.5,90,12.34,50,8.0,298.8,334.9,301.0
904.4,1015,17.2,15.4,90,12.29,50,8.0,298.8,334.8,301.0
903.8,1020,17.2,15.3,89,12.21,49,8.1,298.8,334.6,301.0
903.2,1026,17.2,15.2,88,12.13,49,8.2,298.9,334.4,301.0
902.6,1031,17.1,15.1,88,12.05,49,8.2,298.9,334.3,301.1
902.1,1036,17.1,15.0,87,11.97,49,8.3,298.9,334.1,301.1
901.5,1042,17.1,14.9,87,11.92,49,8.4,299.0,333.9,301.1
901.0,1047,17.1,14.9,87,11.90,49,8.4,299.0,333.9,301.1
900.5,1051,17.0,14.9,87,11.89,48,8.5,299.0,333.9,301.1
900.0,1056,17.0,14.9,87,11.92,48,8.5,299.0,334.0,301.2
899.5,1061,17.0,15.0,88,12.00,48,8.6,299.1,334.3,301.2
899.0,1065,17.0,15.1,88,12.07,48,8.6,299.1,334.6,301.3
898.6,1070,17.0,15.1,89,12.09,48,8.7,299.2,334.7,301.3
898.1,1074,17.0,15.1,89,12.08,49,8.7,299.2,334.6,301.3
897.6,1079,16.9,15.1,89,12.08,49,8.8,299.2,334.7,301.3
897.2,1083,16.9,15.0,89,12.07,49,8.8,299.2,334.6,301.3
896.7,1087,16.9,15.0,89,12.04,49,8.8,299.2,334.6,301.4
896.2,1092,16.9,14.9,89,12.01,49,8.8,299.2,334.5,301.4
895.8,1096,16.8,14.9,88,11.97,49,8.9,299.3,334.4,301.4
895.3,1101,16.8,14.8,88,11.93,50,8.9,299.3,334.4,301.4
894.9,1105,16.9,14.8,88,11.91,50,8.9,299.3,334.3,301.5
894.4,1109,16.9,14.8,87,11.91,50,8.9,299.4,334.4,301.6
893.9,1114,16.9,14.8,87,11.90,50,8.8,299.5,334.5,301.6
893.4,1119,16.9,14.7,87,11.86,50,8.8,299.5,334.4,301.7
892.9,1124,16.9,14.6,87,11.81,51,8.8,299.5,334.3,301.7
892.4,1129,16.8,14.6,87,11.79,51,8.8,299.6,334.3,301.7
891.9,1134,16.8,14.6,87,11.79,51,8.7,299.6,334.3,301.7
891.3,1139,16.7,14.6,87,11.80,52,8.7,299.6,334.3,301.7
890.8,1144,16.7,14.6,87,11.81,52,8.6,299.6,334.4,301.7
890.2,1150,16.7,14.6,88,11.82,52,8.6,299.6,334.4,301.7
889.7,1155,16.6,14.6,88,11.80,52,8.5,299.6,334.3,301.7
889.1,1160,16.6,14.6,88,11.81,53,8.5,299.7,334.4,301.8
888.6,1165,16.6,14.6,88,11.84,53,8.4,299.7,334.6,301.8
888.1,1170,16.6,14.6,88,11.86,53,8.4,299.7,334.6,301.8
887.5,1175,16.5,14.6,89,11.88,53,8.3,299.7,334.6,301.8
887.0,1180,16.5,14.6,89,11.87,54,8.3,299.7,334.6,301.8
886.6,1185,16.4,14.6,89,11.85,54,8.2,299.7,334.6,301.8
886.1,1189,16.4,14.6,89,11.85,54,8.2,299.7,334.6,301.9
885.6,1193,16.4,14.6,89,11.85,55,8.1,299.8,334.6,301.9
885.2,1198,16.4,14.6,89,11.86,55,8.1,299.8,334.7,301.9
884.8,1202,16.3,14.6,90,11.89,55,8.1,299.8,334.8,301.9
884.4,1206,16.3,14.6,90,11.93,56,8.0,299.7,334.9,301.9
884.0,1210,16.2,14.7,91,11.95,56,8.0,299.7,334.9,301.9
883.6,1214,16.2,14.7,91,11.97,57,8.0,299.7,335.0,301.9
883.1,1218,16.2,14.7,91,11.96,57,8.0,299.8,335.0,301.9
882.7,1222,16.1,14.6,91,11.96,58,8.0,299.8,335.0,301.9
882.3,1226,16.1,14.6,91,11.96,59,7.9,299.7,335.0,301.9
881.8,1230,16.0,14.6,91,11.95,59,7.9,299.8,334.9,301.9
881.4,1235,16.0,14.6,91,11.93,60,7.9,299.7,334.9,301.9
880.9,1239,16.0,14.6,91,11.91,61,7.9,299.8,334.8,301.9
880.4,1244,15.9,14.5,91,11.89,61,7.9,299.8,334.8,301.9
879.9,1249,15.9,14.5,91,11.86,62,7.9,299.8,334.7,301.9
879.4,1254,15.8,14.4,91,11.85,63,7.9,299.8,334.7,301.9
878.9,1259,15.8,14.4,92,11.85,64,7.9,299.8,334.7,301.9
878.4,1263,15.7,14.5,92,11.88,64,7.9,299.8,334.8,301.9
878.0,1268,15.7,14.5,92,11.89,65,7.9,299.8,334.8,301.9
877.5,1272,15.7,14.4,92,11.86,66,7.9,299.8,334.7,302.0
877.1,1276,15.7,14.3,92,11.80,66,7.9,299.9,334.6,302.0
876.6,1281,15.7,14.3,91,11.74,67,7.9,299.9,334.5,302.1
876.2,1285,15.7,14.2,91,11.69,68,7.9,300.0,334.4,302.1
875.7,1290,15.7,14.1,91,11.65,68,7.9,300.0,334.3,302.1
875.2,1294,15.7,14.1,90,11.65,69,7.9,300.0,334.4,302.1
874.7,1299,15.7,14.1,91,11.68,69,7.9,300.1,334.5,302.2
874.2,1304,15.6,14.1,91,11.68,70,7.9,300.1,334.5,302.2
873.7,1309,15.6,14.1,91,11.67,70,7.9,300.1,334.5,302.2
873.2,1314,15.6,14.1,91,11.65,71,7.8,300.1,334.5,302.2
872.6,1320,15.6,14.0,90,11.60,71,7.8,300.2,334.4,302.3
872.1,1325,15.5,13.9,90,11.51,72,7.8,300.2,334.2,302.3
871.6,1330,15.5,13.8,89,11.44,72,7.8,300.2,334.0,302.3
871.0,1335,15.6,13.7,89,11.40,73,7.8,300.3,334.0,302.4
870.5,1341,15.6,13.7,88,11.37,73,7.8,300.4,334.0,302.5
869.9,1346,15.6,13.6,88,11.36,73,7.8,300.4,334.0,302.5
869.3,1352,15.5,13.7,89,11.40,74,7.8,300.5,334.1,302.5
868.7,1358,15.4,13.7,89,11.42,74,7.8,300.4,334.2,302.5
868.1,1364,15.3,13.7,90,11.39,74,7.8,300.4,334.0,302.4
867.5,1370,15.3,13.6,90,11.35,75,7.8,300.4,333.9,302.4
867.0,1375,15.3,13.6,90,11.33,75,7.8,300.4,333.9,302.4
866.4,1380,15.2,13.6,90,11.35,75,7.9,300.4,334.0,302.5
865.9,1386,15.2,13.6,91,11.39,76,7.9,300.4,334.1,302.5
865.3,1391,15.1,13.6,91,11.39,76,7.9,300.4,334.1,302.5
864.8,1396,15.1,13.6,91,11.37,77,8.0,300.4,334.0,302.5
864.3,1401,15.1,13.5,91,11.34,77,8.0,300.5,334.0,302.5
863.8,1406,15.0,13.5,91,11.32,77,8.0,300.5,333.9,302.5
863.3,1411,15.0,13.4,91,11.30,77,8.1,300.5,333.9,302.5
862.8,1416,14.9,13.4,91,11.29,78,8.1,300.5,333.8,302.5
862.3,1421,14.9,13.4,91,11.27,78,8.2,300.5,333.8,302.5
861.8,1425,14.9,13.3,91,11.24,78,8.2,300.5,333.8,302.5
861.4,1430,14.8,13.3,91,11.21,78,8.2,300.5,333.6,302.5
860.9,1435,14.8,13.2,90,11.15,79,8.3,300.5,333.5,302.5
860.4,1439,14.8,13.2,90,11.13,79,8.3,300.5,333.5,302.6
860.0,1444,14.7,13.2,91,11.17,79,8.3,300.6,333.6,302.6
859.5,1448,14.7,13.3,92,11.27,79,8.3,300.6,333.9,302.6
859.0,1453,14.6,13.5,93,11.37,79,8.4,300.5,334.1,302.6
858.6,1458,14.5,13.5,94,11.40,79,8.4,300.5,334.2,302.5
858.1,1462,14.5,13.4,94,11.37,79,8.4,300.5,334.0,302.5
857.6,1467,14.4,13.4,93,11.31,79,8.4,300.5,333.9,302.5
857.2,1472,14.4,13.3,93,11.30,79,8.4,300.5,333.9,302.5
856.7,1476,14.3,13.3,94,11.29,79,8.4,300.5,333.8,302.5
856.3,1481,14.3,13.3,94,11.29,79,8.4,300.5,333.8,302.5
855.8,1485,14.2,13.4,94,11.33,79,8.4,300.5,333.9,302.5
855.4,1489,14.2,13.4,95,11.35,79,8.4,300.4,334.0,302.5
854.9,1493,14.1,13.4,95,11.35,79,8.4,300.4,334.0,302.5
854.5,1498,14.1,13.3,95,11.34,79,8.4,300.4,333.9,302.5
854.1,1502,14.1,13.3,95,11.30,79,8.4,300.4,333.8,302.5
853.7,1506,14.1,13.2,95,11.27,78,8.4,300.5,333.8,302.5
853.2,1510,14.1,13.2,95,11.26,78,8.4,300.5,333.8,302.6
852.8,1515,14.0,13.2,95,11.25,78,8.4,300.5,333.8,302.5
852.4,1519,14.0,13.2,95,11.23,78,8.4,300.5,333.7,302.5
852.0,1523,13.9,13.1,95,11.20,77,8.4,300.5,333.6,302.5
851.5,1527,13.9,13.0,94,11.15,77,8.4,300.5,333.5,302.6
851.1,1532,13.9,13.0,94,11.10,77,8.4,300.6,333.4,302.6
850.7,1536,13.9,12.9,94,11.08,77,8.4,300.7,333.4,302.7
850.2,1540,13.9,13.0,94,11.12,77,8.4,300.7,333.6,302.7
850.0,1543,13.9,13.0,94,11.15,76,8.4,300.7,333.6,302.7
849.8,1545,13.8,13.0,95,11.18,76,8.4,300.6,333.7,302.6
849.3,1549,13.7,13.1,96,11.21,76,8.5,300.6,333.7,302.6
848.8,1554,13.7,13.0,95,11.15,76,8.5,300.6,333.6,302.6
848.4,1559,13.7,12.9,95,11.07,76,8.5,300.6,333.4,302.6
847.9,1563,13.7,12.8,94,11.01,76,8.5,300.6,333.2,302.6
847.5,1568,13.6,12.8,95,11.01,76,8.5,300.7,333.2,302.6
847.0,1572,13.5,12.7,95,10.98,76,8.5,300.6,333.1,302.6
846.5,1577,13.6,12.6,94,10.91,75,8.5,300.7,333.0,302.7
846.1,1582,13.6,12.5,93,10.85,75,8.6,300.8,332.9,302.7
845.6,1586,13.6,12.5,94,10.87,75,8.6,300.8,333.0,302.7
845.2,1591,13.5,12.6,94,10.88,75,8.6,300.8,333.0,302.8
844.7,1595,13.5,12.5,94,10.86,75,8.6,300.8,333.0,302.8
844.2,1600,13.5,12.4,93,10.80,75,8.6,300.9,332.9,302.8
843.8,1605,13.5,12.4,93,10.76,75,8.6,300.9,332.8,302.8
843.3,1609,13.4,12.3,93,10.73,75,8.6,300.9,332.7,302.8
842.8,1614,13.4,12.3,93,10.71,75,8.6,300.9,332.6,302.8
842.3,1619,13.4,12.2,93,10.69,75,8.6,300.9,332.6,302.9
841.8,1624,13.3,12.2,93,10.69,75,8.6,300.9,332.6,302.9
841.3,1629,13.3,12.2,93,10.67,75,8.6,300.9,332.6,302.8
840.9,1634,13.2,12.1,93,10.63,75,8.6,300.9,332.4,302.8
840.4,1638,13.2,12.0,93,10.56,75,8.6,300.9,332.3,302.8
839.9,1643,13.2,11.8,91,10.44,74,8.6,301.0,332.0,302.9
839.5,1648,13.3,11.5,89,10.24,74,8.6,301.1,331.5,303.0
839.0,1652,13.5,11.3,87,10.08,74,8.6,301.3,331.3,303.2
838.6,1657,13.5,11.2,86,10.02,74,8.6,301.4,331.3,303.3
838.1,1661,13.5,11.3,87,10.08,74,8.6,301.4,331.4,303.3
837.6,1666,13.4,11.4,88,10.16,73,8.6,301.4,331.6,303.2
837.1,1671,13.3,11.4,88,10.20,73,8.6,301.4,331.7,303.2
836.6,1676,13.2,11.3,88,10.11,72,8.7,301.4,331.4,303.2
836.1,1681,13.3,11.1,86,9.95,72,8.7,301.5,331.1,303.3
835.6,1687,13.4,10.7,84,9.75,72,8.7,301.6,330.7,303.4
835.1,1692,13.4,10.5,82,9.59,71,8.8,301.7,330.3,303.5
834.6,1697,13.4,10.3,81,9.47,71,8.8,301.8,330.1,303.5
834.1,1702,13.5,10.2,81,9.40,70,8.9,301.9,329.9,303.6
833.6,1707,13.5,10.3,81,9.46,69,8.9,301.9,330.2,303.6
833.1,1712,13.3,10.5,83,9.61,69,9.0,301.8,330.5,303.5
832.6,1717,13.2,10.6,84,9.68,68,9.1,301.7,330.6,303.5
832.1,1722,13.2,10.5,83,9.60,68,9.1,301.8,330.4,303.5
831.6,1727,13.2,10.3,82,9.50,67,9.2,301.9,330.2,303.6
831.1,1732,13.2,10.2,82,9.46,67,9.3,301.9,330.2,303.6
830.7,1737,13.2,10.1,82,9.41,66,9.4,301.9,330.0,303.6
830.2,1742,13.1,10.0,81,9.35,65,9.5,301.9,329.9,303.6
829.7,1746,13.1,9.8,80,9.19,65,9.5,301.9,329.4,303.6
829.2,1751,13.2,9.4,77,8.94,64,9.6,302.1,328.9,303.8
828.8,1756,13.4,9.0,74,8.71,64,9.7,302.4,328.5,304.0
828.3,1761,13.5,8.6,72,8.52,63,9.8,302.5,328.1,304.0
827.8,1766,13.6,8.3,70,8.33,62,9.9,302.7,327.7,304.2
827.3,1771,13.7,8.0,68,8.14,62,10.0,302.8,327.3,304.3
826.9,1775,13.8,7.6,67,7.97,61,10.1,302.9,327.0,304.4
826.4,1780,13.8,7.1,64,7.67,61,10.1,303.0,326.2,304.4
825.9,1785,14.0,6.0,59,7.11,60,10.2,303.2,324.8,304.5
825.4,1790,14.2,4.2,51,6.25,60,10.3,303.5,322.6,304.7
824.9,1795,14.6,2.1,43,5.42,59,10.4,304.1,320.7,305.1
824.4,1800,14.9,1.1,39,5.04,59,10.4,304.4,320.0,305.3
823.9,1805,14.9,1.2,39,5.06,59,10.5,304.5,320.1,305.4
823.5,1810,14.9,1.2,39,5.06,58,10.5,304.5,320.1,305.4
823.0,1815,14.9,0.9,39,4.96,58,10.6,304.5,319.9,305.4
822.5,1820,14.9,0.7,38,4.90,57,10.6,304.5,319.7,305.4
822.1,1824,14.8,0.8,38,4.92,57,10.7,304.6,319.8,305.5
