PRES,HGHT,TEMP,DWPT,RELH,MIXR,DRCT,SPED,THTA,THTE,THTV
1014.9,31,23.0,18.1,74,13.02,50,4.1,294.9,332.4,297.2
1014.1,38,23.3,18.1,73,12.98,45,3.7,295.2,332.7,297.5
1013.5,42,23.3,18.0,72,12.93,44,3.8,295.3,332.7,297.6
1012.9,48,23.4,17.9,72,12.88,43,3.9,295.4,332.6,297.7
1012.1,55,23.4,17.9,71,12.86,44,4.2,295.5,332.6,297.8
1011.4,61,23.3,17.9,72,12.86,44,4.4,295.5,332.6,297.7
1010.8,66,23.2,17.8,72,12.77,45,4.6,295.4,332.3,297.7
1010.0,73,23.2,17.6,71,12.62,45,4.8,295.5,332.0,297.7
1009.3,79,23.2,17.3,70,12.40,46,5.0,295.5,331.3,297.7
1008.6,85,23.1,17.1,69,12.28,46,5.2,295.5,331.0,297.7
1007.9,91,23.0,17.1,69,12.25,46,5.4,295.5,330.9,297.7
1007.2,97,23.0,17.1,69,12.24,47,5.5,295.5,330.9,297.7
1006.5,103,22.9,17.1,70,12.24,47,5.7,295.5,330.9,297.7
1005.8,109,22.9,17.0,70,12.24,47,5.8,295.5,330.9,297.7
1005.2,115,22.8,17.0,70,12.25,47,5.9,295.5,330.9,297.7
1004.5,121,22.7,17.0,70,12.26,48,6.0,295.5,330.9,297.7
1003.8,126,22.7,17.1,71,12.30,48,6.1,295.5,331.1,297.7
1003.2,132,22.7,17.2,71,12.41,48,6.1,295.5,331.4,297.7
1002.5,138,22.6,17.3,72,12.47,48,6.2,295.5,331.6,297.7
1001.9,143,22.5,17.2,72,12.43,48,6.2,295.5,331.4,297.7
1001.2,149,22.5,17.1,72,12.35,48,6.3,295.5,331.2,297.7
1000.6,155,22.4,17.1,72,12.31,48,6.3,295.5,331.1,297.7
1000.0,160,22.4,17.1,72,12.32,48,6.3,295.5,331.1,297.7
999.9,161,22.4,17.1,72,12.32,48,6.3,295.5,331.1,297.7
999.2,166,22.3,17.1,72,12.33,48,6.3,295.5,331.2,297.7
998.6,172,22.3,17.0,72,12.33,48,6.4,295.5,331.2,297.7
997.9,178,22.2,17.0,73,12.33,48,6.4,295.5,331.2,297.7
997.3,183,22.1,17.0,73,12.32,47,6.4,295.5,331.1,297.7
996.7,189,22.1,17.0,73,12.33,47,6.4,295.5,331.1,297.7
996.0,194,22.0,17.0,73,12.35,47,6.4,295.5,331.2,297.7
995.4,199,22.0,17.0,73,12.35,47,6.4,295.5,331.2,297.7
994.9,205,21.9,17.0,73,12.34,46,6.4,295.5,331.2,297.7
994.3,210,21.9,17.0,74,12.34,46,6.4,295.5,331.2,297.7
993.7,215,21.8,17.0,74,12.34,46,6.4,295.5,331.2,297.7
993.1,220,21.8,17.0,74,12.34,46,6.5,295.5,331.2,297.7
992.5,225,21.7,17.0,74,12.36,45,6.5,295.5,331.2,297.7
991.9,230,21.7,17.0,75,12.37,45,6.5,295.5,331.3,297.7
991.3,235,21.6,17.0,75,12.36,45,6.5,295.5,331.2,297.7
990.8,240,21.6,17.0,75,12.37,45,6.5,295.5,331.3,297.7
990.2,245,21.5,17.0,75,12.39,44,6.6,295.5,331.3,297.7
989.6,250,21.5,17.0,75,12.38,44,6.6,295.5,331.3,297.7
989.1,255,21.5,16.9,75,12.36,44,6.6,295.5,331.3,297.7
988.5,260,21.4,16.9,75,12.34,44,6.6,295.5,331.2,297.7
988.0,265,21.4,16.9,76,12.33,43,6.7,295.5,331.2,297.7
987.5,269,21.3,16.9,76,12.34,43,6.7,295.5,331.2,297.7
986.9,274,21.3,16.9,76,12.34,43,6.7,295.5,331.2,297.7
986.4,279,21.2,16.9,76,12.37,43,6.8,295.5,331.3,297.7
985.8,284,21.2,16.9,77,12.37,42,6.8,295.5,331.3,297.7
985.3,289,21.1,16.9,77,12.38,42,6.8,295.5,331.3,297.7
984.7,294,21.1,16.9,77,12.38,42,6.9,295.5,331.3,297.7
984.1,299,21.0,16.9,77,12.38,42,6.9,295.5,331.3,297.7
983.5,305,21.0,16.8,77,12.35,42,6.9,295.5,331.2,297.7
982.9,310,20.9,16.8,77,12.33,41,7.0,295.5,331.1,297.7
982.3,315,20.9,16.8,77,12.32,41,7.0,295.5,331.1,297.7
981.7,320,20.8,16.8,78,12.34,41,7.0,295.5,331.2,297.7
981.1,325,20.8,16.8,78,12.34,41,7.1,295.5,331.2,297.7
980.6,330,20.7,16.7,78,12.32,41,7.1,295.5,331.1,297.7
980.0,335,20.7,16.8,78,12.34,40,7.1,295.5,331.2,297.7
979.5,340,20.6,16.8,79,12.39,40,7.1,295.5,331.3,297.7
978.9,345,20.6,16.8,79,12.41,40,7.2,295.5,331.4,297.7
978.4,350,20.5,16.8,79,12.40,40,7.2,295.5,331.3,297.7
977.8,354,20.5,16.8,79,12.38,40,7.2,295.5,331.3,297.7
977.3,359,20.4,16.7,79,12.35,40,7.3,295.5,331.2,297.7
976.8,363,20.4,16.7,79,12.34,39,7.3,295.5,331.2,297.7
976.4,367,20.3,16.7,80,12.33,39,7.3,295.5,331.1,297.7
975.9,372,20.3,16.7,80,12.33,39,7.3,295.5,331.2,297.7
975.4,376,20.3,16.7,80,12.35,39,7.3,295.5,331.2,297.7
975.0,380,20.2,16.7,80,12.36,39,7.3,295.5,331.2,297.7
974.5,384,20.2,16.7,80,12.36,39,7.4,295.5,331.2,297.7
974.0,388,20.2,16.7,81,12.37,39,7.4,295.5,331.3,297.7
973.5,393,20.1,16.7,81,12.40,38,7.4,295.5,331.3,297.7
973.0,397,20.1,16.7,81,12.42,38,7.4,295.5,331.4,297.7
972.5,401,20.0,16.7,81,12.42,38,7.4,295.5,331.4,297.7
972.0,406,20.0,16.7,81,12.41,38,7.4,295.5,331.4,297.7
971.5,411,19.9,16.7,81,12.39,38,7.4,295.5,331.3,297.7
971.0,415,19.9,16.7,82,12.38,38,7.4,295.5,331.3,297.7
970.5,420,19.9,16.6,82,12.37,38,7.4,295.5,331.3,297.7
970.0,424,19.8,16.6,82,12.36,38,7.4,295.5,331.2,297.7
969.4,429,19.8,16.6,82,12.35,38,7.5,295.5,331.2,297.7
968.9,434,19.7,16.6,82,12.33,38,7.5,295.5,331.2,297.7
968.4,438,19.7,16.6,82,12.34,38,7.5,295.5,331.2,297.7
967.9,443,19.6,16.6,83,12.36,38,7.5,295.5,331.2,297.7
967.4,448,19.6,16.6,83,12.38,39,7.5,295.5,331.3,297.7
966.8,452,19.5,16.6,83,12.37,39,7.5,295.5,331.3,297.7
966.3,457,19.5,16.6,83,12.35,39,7.5,295.5,331.2,297.7
965.7,462,19.5,16.5,83,12.34,39,7.5,295.5,331.2,297.7
965.2,467,19.4,16.5,83,12.35,39,7.5,295.5,331.2,297.7
964.7,472,19.4,16.5,84,12.37,40,7.5,295.5,331.2,297.7
964.1,476,19.3,16.5,84,12.37,40,7.5,295.5,331.3,297.7
963.6,481,19.3,16.5,84,12.37,40,7.5,295.5,331.3,297.7
963.0,486,19.2,16.6,85,12.40,40,7.5,295.5,331.3,297.7
962.4,491,19.2,16.6,85,12.41,41,7.5,295.5,331.4,297.7
961.9,496,19.1,16.5,85,12.40,41,7.5,295.5,331.4,297.7
961.3,502,19.1,16.5,85,12.38,41,7.5,295.5,331.3,297.7
960.8,507,19.0,16.4,85,12.34,42,7.5,295.5,331.2,297.7
960.2,512,19.0,16.4,85,12.30,42,7.5,295.5,331.1,297.7
959.6,517,18.9,16.4,85,12.29,42,7.5,295.5,331.0,297.7
959.1,522,18.9,16.4,85,12.31,43,7.5,295.5,331.1,297.7
958.5,527,18.8,16.4,86,12.37,43,7.5,295.5,331.3,297.7
958.0,532,18.8,16.5,87,12.41,43,7.5,295.5,331.4,297.7
957.3,537,18.7,16.5,87,12.43,44,7.5,295.6,331.5,297.8
956.7,543,18.7,16.5,87,12.44,44,7.5,295.6,331.5,297.8
956.1,549,18.6,16.5,87,12.43,44,7.5,295.6,331.5,297.8
955.4,555,18.6,16.4,87,12.39,44,7.5,295.5,331.4,297.7
954.7,561,18.5,16.3,87,12.33,44,7.5,295.5,331.2,297.7
954.0,567,18.4,16.3,87,12.27,44,7.4,295.5,331.0,297.7
953.4,573,18.4,16.2,87,12.23,45,7.4,295.5,330.9,297.7
952.7,579,18.3,16.2,87,12.23,45,7.4,295.5,330.9,297.7
952.2,584,18.3,16.2,88,12.23,45,7.4,295.5,330.9,297.7
951.6,589,18.2,16.2,88,12.24,45,7.4,295.5,330.9,297.7
951.1,594,18.2,16.2,88,12.25,45,7.4,295.5,330.9,297.7
950.6,598,18.1,16.2,88,12.24,45,7.4,295.5,330.9,297.7
950.1,603,18.1,16.1,88,12.23,45,7.4,295.5,330.9,297.7
949.6,607,18.1,16.2,89,12.25,44,7.4,295.5,330.9,297.7
949.1,611,18.0,16.2,89,12.31,44,7.4,295.5,331.1,297.7
948.6,616,18.0,16.3,90,12.34,44,7.3,295.5,331.2,297.7
948.1,620,17.9,16.3,90,12.36,44,7.3,295.5,331.3,297.7
947.6,625,17.9,16.2,90,12.33,44,7.3,295.6,331.2,297.7
947.1,629,17.9,16.2,90,12.28,44,7.3,295.6,331.1,297.7
946.6,634,17.8,16.1,89,12.23,44,7.3,295.6,330.9,297.7
946.1,638,17.8,16.0,89,12.19,44,7.2,295.6,330.8,297.7
945.6,643,17.8,16.0,89,12.17,43,7.2,295.6,330.8,297.7
945.1,648,17.7,16.0,90,12.18,43,7.2,295.6,330.8,297.7
944.5,653,17.6,16.0,90,12.19,43,7.2,295.6,330.8,297.7
944.0,658,17.6,16.0,90,12.17,43,7.1,295.6,330.8,297.7
943.4,663,17.6,15.9,90,12.15,43,7.1,295.6,330.7,297.7
942.8,669,17.5,15.9,90,12.13,43,7.1,295.6,330.7,297.7
942.2,674,17.5,15.9,91,12.14,43,7.1,295.6,330.7,297.7
941.7,679,17.4,15.9,91,12.18,43,7.0,295.6,330.8,297.7
941.1,684,17.3,15.9,91,12.20,43,7.0,295.6,330.8,297.7
940.6,689,17.3,15.9,91,12.14,43,7.0,295.6,330.7,297.7
940.0,694,17.3,15.7,91,12.04,43,7.0,295.6,330.4,297.7
939.5,698,17.2,15.7,91,12.00,43,7.0,295.6,330.3,297.7
939.0,703,17.2,15.6,90,11.96,43,7.0,295.6,330.2,297.7
938.5,708,17.2,15.5,90,11.87,44,7.0,295.6,330.0,297.7
938.0,712,17.2,15.3,89,11.74,44,7.0,295.7,329.6,297.8
937.5,717,17.1,15.2,88,11.67,44,7.0,295.7,329.5,297.8
937.0,722,17.1,15.2,89,11.66,44,7.0,295.7,329.5,297.8
936.4,727,17.1,15.2,89,11.65,45,7.0,295.7,329.4,297.8
935.9,732,17.0,15.1,89,11.63,45,7.0,295.7,329.4,297.8
935.4,736,17.0,15.1,88,11.59,45,7.0,295.7,329.3,297.8
934.8,741,16.9,15.0,89,11.58,45,7.0,295.7,329.3,297.8
934.3,746,16.9,15.0,88,11.55,46,7.1,295.7,329.2,297.8
933.8,751,16.9,15.0,88,11.52,46,7.1,295.8,329.1,297.8
933.2,756,16.8,14.9,89,11.51,46,7.1,295.8,329.1,297.8
932.7,761,16.8,14.9,88,11.48,46,7.1,295.8,329.0,297.8
932.1,766,16.7,14.8,88,11.43,46,7.2,295.8,328.9,297.8
931.6,771,16.7,14.7,88,11.38,47,7.2,295.8,328.8,297.8
931.0,777,16.7,14.7,88,11.34,47,7.2,295.8,328.7,297.8
930.4,782,16.7,14.6,88,11.30,47,7.2,295.9,328.6,297.9
929.8,787,16.6,14.5,87,11.26,47,7.3,295.9,328.5,297.9
929.3,793,16.6,14.4,87,11.20,47,7.3,295.9,328.3,297.9
928.7,798,16.5,14.3,87,11.13,47,7.3,295.9,328.2,297.9
928.1,803,16.5,14.3,87,11.07,47,7.3,295.9,328.0,297.9
927.6,808,16.5,14.2,86,11.04,47,7.4,295.9,327.9,297.9
927.1,812,16.4,14.2,87,11.05,47,7.4,295.9,328.0,297.9
926.6,817,16.4,14.2,87,11.08,47,7.4,295.9,328.1,297.9
926.1,821,16.4,14.3,88,11.14,47,7.4,295.9,328.2,297.9
925.6,826,16.3,14.4,88,11.21,47,7.4,295.9,328.4,297.9
925.1,830,16.3,14.5,89,11.26,48,7.4,295.9,328.5,297.9
925.0,832,16.2,14.5,89,11.27,48,7.4,295.9,328.6,297.9
924.6,835,16.2,14.5,90,11.29,48,7.4,295.9,328.6,297.9
924.1,840,16.2,14.5,90,11.28,48,7.4,295.9,328.6,297.9
923.6,844,16.1,14.4,90,11.25,48,7.4,295.9,328.5,297.9
923.1,849,16.1,14.3,89,11.19,48,7.4,295.9,328.3,297.9
922.7,853,16.0,14.2,89,11.13,48,7.4,295.9,328.2,297.9
922.2,858,16.0,14.1,89,11.06,48,7.4,295.9,328.0,297.9
921.7,862,16.0,14.0,88,10.98,48,7.4,295.9,327.8,297.9
921.2,867,16.0,14.0,88,10.94,48,7.4,296.0,327.7,297.9
920.7,871,15.9,13.9,88,10.94,48,7.4,296.0,327.7,297.9
920.2,876,15.9,13.9,88,10.94,48,7.4,296.0,327.7,297.9
919.7,881,15.9,13.9,88,10.91,49,7.4,296.0,327.7,297.9
919.2,886,15.8,13.8,88,10.83,49,7.4,296.0,327.5,297.9
918.6,890,15.8,13.6,87,10.72,49,7.4,296.1,327.2,298.0
918.1,895,15.8,13.5,86,10.63,49,7.3,296.1,327.0,298.0
917.6,900,15.8,13.3,85,10.53,49,7.3,296.1,326.7,298.0
917.0,905,15.8,13.2,85,10.44,50,7.3,296.2,326.5,298.0
916.5,910,15.8,13.1,84,10.36,50,7.3,296.2,326.3,298.0
916.0,915,15.8,12.9,83,10.28,50,7.3,296.2,326.2,298.1
915.5,920,15.7,12.8,83,10.21,50,7.2,296.2,325.9,298.0
915.0,925,15.7,12.8,83,10.17,50,7.2,296.2,325.8,298.0
914.4,929,15.6,12.7,83,10.14,50,7.2,296.2,325.8,298.1
913.9,934,15.6,12.7,83,10.14,50,7.2,296.3,325.8,298.1
913.4,939,15.6,12.7,83,10.16,51,7.2,296.3,325.8,298.1
912.9,944,15.5,12.8,84,10.20,51,7.1,296.3,326.0,298.1
912.4,948,15.5,12.8,84,10.22,51,7.1,296.3,326.0,298.1
911.9,953,15.4,12.8,84,10.21,51,7.1,296.3,326.0,298.1
911.4,958,15.4,12.7,84,10.17,51,7.1,296.3,325.9,298.1
910.9,963,15.3,12.6,84,10.10,51,7.0,296.3,325.7,298.1
910.3,968,15.3,12.4,83,10.02,51,7.0,296.3,325.5,298.1
909.8,972,15.3,12.4,83,9.99,51,7.0,296.3,325.4,298.1
909.3,977,15.2,12.4,83,10.01,51,7.0,296.3,325.5,298.1
908.9,982,15.2,12.4,83,10.00,51,7.0,296.3,325.5,298.1
908.4,986,15.2,12.4,83,10.00,51,6.9,296.3,325.5,298.1
907.9,990,15.1,12.4,84,9.98,51,6.9,296.3,325.4,298.1
907.4,995,15.1,12.3,84,9.96,51,6.9,296.3,325.4,298.1
906.9,999,15.0,12.3,84,9.95,51,6.9,296.3,325.3,298.1
906.5,1004,15.0,12.3,84,9.97,51,6.9,296.4,325.4,298.1
906.0,1008,15.0,12.3,84,9.99,50,6.9,296.4,325.5,298.1
905.5,1013,14.9,12.3,84,9.99,50,6.9,296.4,325.5,298.1
904.9,1018,14.9,12.3,84,9.97,50,6.9,296.4,325.4,298.2
904.4,1023,14.8,12.3,85,9.97,50,6.9,296.4,325.4,298.2
903.9,1028,14.8,12.3,85,9.97,50,7.0,296.4,325.4,298.2
903.3,1033,14.7,12.3,85,9.98,49,7.0,296.4,325.5,298.2
902.8,1038,14.7,12.3,86,10.01,49,7.0,296.4,325.6,298.2
902.3,1043,14.6,12.4,86,10.05,49,7.0,296.4,325.6,298.2
901.8,1048,14.6,12.4,86,10.06,48,7.1,296.4,325.7,298.2
901.3,1053,14.6,12.4,87,10.06,48,7.1,296.4,325.7,298.2
900.7,1058,14.5,12.3,87,10.06,47,7.2,296.4,325.7,298.2
900.2,1062,14.5,12.3,87,10.04,47,7.2,296.4,325.6,298.2
899.7,1067,14.5,12.3,86,10.01,47,7.3,296.4,325.6,298.2
899.2,1072,14.5,12.2,86,9.99,46,7.4,296.5,325.6,298.3
898.7,1077,14.4,12.2,86,9.99,46,7.4,296.5,325.6,298.3
898.2,1082,14.4,12.2,87,10.01,45,7.5,296.5,325.7,298.3
897.7,1086,14.4,12.3,87,10.06,45,7.5,296.6,325.9,298.3
897.2,1091,14.4,12.4,88,10.12,44,7.6,296.6,326.1,298.4
896.7,1096,14.3,12.5,89,10.24,44,7.7,296.6,326.4,298.4
896.2,1101,14.3,12.7,91,10.38,43,7.7,296.6,326.8,298.4
895.7,1105,14.2,12.8,91,10.42,43,7.8,296.6,326.9,298.4
895.1,1110,14.2,12.7,91,10.35,42,7.9,296.6,326.7,298.4
894.6,1116,14.1,12.5,90,10.24,42,7.9,296.6,326.4,298.4
894.1,1121,14.1,12.3,89,10.13,41,8.0,296.6,326.1,298.4
893.5,1126,14.1,12.2,89,10.07,41,8.0,296.6,326.0,298.4
893.0,1131,14.1,12.1,88,9.98,41,8.0,296.7,325.8,298.4
892.5,1136,14.1,11.9,87,9.86,41,8.1,296.7,325.5,298.5
892.0,1140,14.1,11.7,86,9.73,40,8.1,296.7,325.2,298.5
891.5,1145,14.1,11.5,85,9.63,40,8.1,296.8,324.9,298.5
891.0,1150,14.1,11.4,84,9.54,40,8.1,296.8,324.7,298.5
890.5,1155,14.1,11.3,83,9.48,40,8.1,296.9,324.6,298.6
890.0,1159,14.1,11.3,83,9.47,40,8.1,296.9,324.6,298.6
889.5,1164,14.0,11.4,84,9.55,40,8.0,296.9,324.9,298.6
889.0,1168,14.0,11.6,85,9.67,40,8.0,296.9,325.2,298.7
888.5,1173,13.9,11.7,86,9.74,40,8.0,296.9,325.4,298.7
888.0,1178,13.9,11.6,86,9.72,40,7.9,296.9,325.3,298.7
887.5,1182,13.9,11.4,85,9.60,40,7.9,297.0,325.1,298.7
887.0,1187,13.9,11.3,84,9.52,40,7.8,297.0,324.9,298.7
886.5,1192,13.9,11.3,85,9.55,40,7.7,297.1,325.0,298.8
885.9,1198,13.8,11.4,85,9.62,40,7.7,297.1,325.2,298.8
885.4,1203,13.8,11.5,86,9.66,41,7.6,297.1,325.3,298.8
884.9,1208,13.8,11.5,86,9.65,41,7.6,297.1,325.3,298.8
884.3,1213,13.8,11.3,85,9.58,41,7.5,297.2,325.2,298.9
883.8,1218,13.8,11.3,85,9.54,41,7.4,297.2,325.2,299.0
883.3,1223,13.8,11.3,85,9.54,42,7.4,297.3,325.2,299.0
882.7,1228,13.8,11.3,85,9.57,42,7.3,297.3,325.4,299.1
882.2,1233,13.8,11.3,85,9.58,42,7.3,297.4,325.4,299.1
881.7,1238,13.7,11.3,85,9.56,42,7.2,297.4,325.4,299.1
881.2,1243,13.7,11.2,85,9.52,43,7.2,297.4,325.3,299.1
880.7,1247,13.7,11.1,85,9.48,43,7.2,297.4,325.2,299.1
880.3,1252,13.6,11.1,84,9.44,43,7.1,297.4,325.1,299.1
879.8,1257,13.6,11.0,84,9.40,43,7.1,297.5,325.0,299.1
879.3,1261,13.6,10.9,84,9.35,43,7.1,297.5,324.9,299.1
878.9,1265,13.6,10.8,83,9.30,43,7.0,297.5,324.8,299.2
878.4,1270,13.6,10.8,83,9.28,43,7.0,297.5,324.8,299.2
877.9,1274,13.6,10.8,83,9.31,43,7.0,297.6,324.9,299.2
877.4,1279,13.5,10.8,84,9.33,43,7.0,297.6,324.9,299.2
876.9,1284,13.5,10.8,84,9.33,43,7.0,297.6,325.0,299.3
876.4,1289,13.4,10.8,84,9.33,43,7.0,297.6,324.9,299.3
875.9,1294,13.4,10.8,84,9.32,43,7.0,297.6,324.9,299.3
875.4,1299,13.3,10.7,84,9.30,43,7.0,297.6,324.9,299.2
874.9,1304,13.3,10.7,84,9.28,43,7.0,297.6,324.8,299.3
874.3,1309,13.3,10.7,85,9.28,43,7.0,297.6,324.8,299.3
873.8,1314,13.2,10.7,85,9.29,42,7.0,297.6,324.9,299.3
873.3,1319,13.2,10.7,85,9.28,42,7.0,297.6,324.8,299.3
872.8,1323,13.1,10.6,85,9.24,42,7.0,297.6,324.7,299.3
872.4,1328,13.1,10.5,85,9.20,42,7.0,297.6,324.6,299.3
872.0,1332,13.1,10.5,84,9.18,42,7.0,297.6,324.6,299.3
871.6,1336,13.0,10.5,85,9.19,42,7.0,297.7,324.6,299.3
871.2,1339,13.0,10.5,85,9.21,42,7.0,297.7,324.7,299.3
870.8,1343,13.0,10.5,85,9.22,42,7.0,297.7,324.7,299.3
870.4,1347,13.0,10.5,85,9.23,42,7.0,297.7,324.8,299.3
870.0,1351,12.9,10.5,85,9.22,42,7.0,297.7,324.8,299.3
869.6,1355,12.9,10.6,86,9.24,43,7.0,297.7,324.8,299.4
869.1,1360,12.9,10.6,86,9.27,43,7.0,297.7,324.9,299.4
868.6,1365,12.8,10.6,86,9.30,43,7.0,297.7,325.0,299.4
868.0,1370,12.8,10.6,87,9.30,43,7.0,297.8,325.0,299.4
867.5,1375,12.7,10.5,86,9.24,44,7.0,297.7,324.9,299.4
866.9,1381,12.7,10.4,86,9.19,44,7.0,297.7,324.7,299.4
866.4,1386,12.6,10.3,86,9.13,45,7.0,297.7,324.6,299.4
865.8,1391,12.6,10.3,86,9.10,45,7.0,297.8,324.5,299.4
865.3,1396,12.6,10.2,85,9.06,45,7.0,297.8,324.4,299.4
864.9,1401,12.6,10.1,85,9.02,46,7.0,297.8,324.3,299.4
864.4,1406,12.6,10.0,84,8.95,46,7.0,297.9,324.2,299.5
863.9,1410,12.6,9.9,83,8.88,47,7.0,297.9,324.1,299.5
863.4,1415,12.6,9.7,83,8.81,47,7.0,298.0,323.9,299.5
862.9,1420,12.6,9.7,83,8.78,47,7.0,298.0,323.8,299.6
862.4,1425,12.5,9.7,83,8.80,48,7.0,298.0,323.9,299.6
861.9,1430,12.5,9.8,83,8.84,48,7.1,298.0,324.1,299.6
861.4,1435,12.5,9.7,83,8.82,48,7.1,298.1,324.0,299.6
860.9,1439,12.4,9.6,83,8.76,48,7.1,298.1,323.9,299.6
860.4,1444,12.4,9.6,83,8.74,48,7.1,298.1,323.8,299.7
859.9,1449,12.4,9.6,83,8.77,49,7.2,298.1,324.0,299.7
859.5,1453,12.4,9.7,84,8.81,49,7.2,298.2,324.1,299.7
859.0,1458,12.4,9.7,84,8.84,49,7.2,298.2,324.2,299.8
858.6,1462,12.3,9.7,84,8.85,49,7.3,298.2,324.2,299.8
858.1,1466,12.3,9.7,85,8.87,49,7.3,298.2,324.3,299.8
857.7,1471,12.2,9.7,85,8.87,49,7.3,298.2,324.3,299.8
857.3,1475,12.2,9.7,85,8.87,49,7.4,298.2,324.3,299.8
856.8,1479,12.2,9.7,85,8.88,49,7.4,298.2,324.3,299.8
856.4,1484,12.1,9.7,85,8.87,49,7.4,298.2,324.3,299.8
855.9,1488,12.1,9.7,85,8.85,49,7.5,298.2,324.3,299.8
855.5,1492,12.1,9.6,85,8.83,49,7.5,298.3,324.3,299.8
855.1,1496,12.1,9.6,85,8.79,49,7.6,298.3,324.2,299.8
854.6,1501,12.1,9.5,84,8.75,49,7.6,298.3,324.1,299.9
854.2,1505,12.0,9.4,84,8.72,49,7.7,298.3,324.0,299.9
853.8,1509,12.0,9.4,84,8.71,49,7.7,298.3,324.0,299.9
853.3,1514,12.0,9.4,84,8.73,49,7.8,298.3,324.1,299.9
852.8,1519,11.9,9.5,85,8.76,50,7.9,298.4,324.2,299.9
852.3,1523,11.9,9.5,85,8.79,50,7.9,298.4,324.3,300.0
851.9,1528,11.9,9.5,86,8.80,50,8.0,298.4,324.3,299.9
851.4,1533,11.8,9.5,86,8.80,50,8.0,298.4,324.3,300.0
850.9,1537,11.8,9.5,86,8.80,50,8.1,298.4,324.3,300.0
850.4,1542,11.7,9.5,86,8.80,51,8.1,298.4,324.3,300.0
850.0,1546,11.7,9.5,86,8.78,51,8.1,298.4,324.3,300.0
849.5,1551,11.7,9.5,86,8.78,51,8.2,298.4,324.3,300.0
849.1,1555,11.6,9.5,87,8.81,51,8.3,298.4,324.4,300.0
848.6,1560,11.6,9.6,87,8.85,51,8.3,298.4,324.5,300.0
848.1,1565,11.5,9.6,88,8.87,51,8.4,298.4,324.5,300.0
847.6,1570,11.5,9.6,88,8.89,51,8.4,298.4,324.6,300.0
847.1,1575,11.5,9.6,88,8.90,51,8.5,298.4,324.6,300.0
846.6,1580,11.4,9.6,89,8.89,51,8.5,298.4,324.6,300.0
846.1,1585,11.3,9.5,89,8.87,51,8.5,298.4,324.5,300.0
845.5,1590,11.3,9.5,89,8.85,50,8.6,298.4,324.5,300.0
845.0,1595,11.3,9.5,89,8.85,50,8.6,298.4,324.5,300.0
844.5,1600,11.2,9.5,89,8.85,50,8.6,298.4,324.5,300.0
844.0,1605,11.2,9.5,89,8.86,49,8.6,298.5,324.6,300.1
843.6,1610,11.2,9.5,89,8.86,49,8.6,298.5,324.6,300.0
843.1,1615,11.1,9.4,89,8.84,48,8.6,298.5,324.5,300.1
842.6,1619,11.1,9.4,90,8.84,48,8.6,298.5,324.5,300.1
842.2,1624,11.0,9.4,90,8.83,48,8.6,298.5,324.5,300.1
841.8,1628,11.0,9.4,90,8.84,47,8.7,298.5,324.6,300.1
841.3,1632,11.0,9.4,90,8.86,47,8.7,298.5,324.7,300.1
840.8,1637,11.0,9.4,90,8.86,46,8.7,298.6,324.7,300.2
840.4,1641,10.9,9.4,90,8.82,46,8.7,298.6,324.6,300.1
839.9,1646,10.9,9.3,90,8.77,45,8.7,298.6,324.5,300.2
839.4,1651,10.9,9.2,89,8.74,45,8.7,298.6,324.4,300.2
839.0,1656,10.8,9.2,89,8.72,45,8.7,298.6,324.3,300.2
838.5,1660,10.8,9.1,89,8.70,44,8.7,298.6,324.3,300.2
838.0,1665,10.8,9.1,89,8.68,44,8.7,298.6,324.2,300.2
837.6,1670,10.7,9.0,89,8.66,44,8.7,298.6,324.2,300.2
837.1,1674,10.7,9.0,90,8.66,44,8.7,298.6,324.2,300.2
836.7,1679,10.6,9.0,90,8.67,44,8.7,298.6,324.2,300.2
836.2,1683,10.6,9.1,90,8.70,44,8.7,298.6,324.3,300.2
835.8,1688,10.6,9.1,91,8.72,44,8.7,298.6,324.4,300.2
835.3,1692,10.5,9.1,91,8.72,45,8.7,298.6,324.4,300.2
834.9,1697,10.5,9.1,91,8.70,45,8.7,298.6,324.3,300.2
834.4,1701,10.5,9.0,91,8.67,45,8.7,298.7,324.3,300.2
834.0,1706,10.4,8.9,90,8.64,45,8.7,298.7,324.2,300.2
833.5,1710,10.4,8.9,90,8.62,46,8.7,298.7,324.1,300.2
833.0,1715,10.4,8.8,90,8.59,46,8.7,298.7,324.1,300.3
832.5,1720,10.3,8.8,90,8.56,46,8.6,298.7,324.0,300.3
832.0,1725,10.3,8.7,90,8.53,47,8.6,298.8,324.0,300.3
831.5,1730,10.3,8.6,89,8.49,47,8.6,298.8,323.9,300.3
831.0,1735,10.3,8.6,89,8.45,47,8.5,298.8,323.9,300.4
830.5,1740,10.3,8.5,89,8.44,48,8.5,298.9,323.8,300.4
830.0,1745,10.2,8.5,89,8.43,48,8.5,298.9,323.8,300.4
829.5,1750,10.2,8.5,89,8.42,48,8.4,298.9,323.8,300.4
829.0,1755,10.2,8.5,89,8.43,48,8.4,298.9,323.9,300.4
828.5,1760,10.1,8.5,90,8.44,49,8.3,298.9,323.9,300.5
828.0,1765,10.1,8.5,90,8.44,49,8.3,298.9,323.9,300.5
827.5,1770,10.1,8.5,90,8.44,49,8.2,299.0,323.9,300.5
827.0,1775,10.0,8.4,90,8.42,49,8.2,299.0,323.9,300.5
826.5,1780,10.0,8.4,90,8.40,49,8.2,299.0,323.8,300.5
826.0,1785,10.0,8.3,89,8.34,49,8.1,299.0,323.7,300.5
825.5,1790,10.0,8.2,89,8.28,49,8.1,299.1,323.6,300.6
825.0,1795,10.0,8.0,87,8.20,49,8.1,299.1,323.5,300.6
824.6,1800,10.0,7.8,86,8.09,50,8.1,299.2,323.2,300.7
824.1,1805,10.1,7.5,84,7.93,50,8.1,299.3,322.9,300.8
823.6,1810,10.2,7.1,81,7.69,50,8.1,299.5,322.4,300.9
823.1,1815,10.3,6.6,78,7.45,50,8.1,299.7,321.9,301.0
822.7,1819,10.5,6.3,75,7.27,50,8.2,299.9,321.6,301.2
