PRES,HGHT,TEMP,DWPT,RELH,MIXR,DRCT,SPED,THTA,THTE,THTV
1013.6,31,25.8,21.7,78,16.33,100,4.5,297.8,345.4,300.7
1013.2,34,25.6,21.6,78,16.19,99,2.7,297.7,344.8,300.6
1012.7,39,25.4,21.5,79,16.19,98,2.3,297.5,344.6,300.4
1012.0,44,25.2,21.5,80,16.14,97,2.4,297.3,344.2,300.2
1011.3,51,24.9,21.2,80,15.89,97,2.6,297.1,343.2,299.9
1010.5,57,24.6,20.8,80,15.53,97,2.8,296.8,341.9,299.6
1009.9,63,24.3,20.4,79,15.15,97,3.0,296.6,340.5,299.3
1009.3,68,24.0,20.1,79,14.86,96,3.2,296.4,339.4,299.0
1008.6,74,23.9,20.0,79,14.76,96,3.4,296.3,339.0,298.9
1008.0,80,23.8,20.0,80,14.80,96,3.5,296.2,339.0,298.9
1007.3,85,23.7,20.1,80,14.83,96,3.6,296.2,339.1,298.9
1006.7,90,23.6,20.0,80,14.81,96,3.8,296.2,339.1,298.8
1006.1,96,23.6,20.0,80,14.78,96,3.9,296.2,339.0,298.8
1005.5,101,23.5,20.0,80,14.77,96,4.0,296.2,338.9,298.8
1005.0,106,23.5,19.9,81,14.75,95,4.1,296.2,338.9,298.8
1004.4,110,23.4,19.9,81,14.73,95,4.2,296.2,338.8,298.8
1003.9,115,23.4,19.9,81,14.74,95,4.2,296.2,338.8,298.8
1003.4,120,23.3,19.9,81,14.74,95,4.3,296.2,338.8,298.8
1002.9,124,23.3,19.9,81,14.70,95,4.3,296.2,338.7,298.8
1002.3,129,23.3,19.8,81,14.66,95,4.3,296.2,338.6,298.8
1001.8,133,23.2,19.8,81,14.68,94,4.3,296.2,338.7,298.8
1001.3,138,23.2,19.9,82,14.73,94,4.3,296.2,338.8,298.8
1000.7,143,23.1,19.9,82,14.82,94,4.3,296.2,339.1,298.9
1000.1,148,23.1,20.0,83,14.90,94,4.3,296.2,339.3,298.9
1000.0,149,23.1,20.0,83,14.91,94,4.3,296.2,339.3,298.9
999.6,153,23.0,20.1,83,14.95,94,4.3,296.2,339.5,298.9
999.0,158,23.0,20.1,84,14.95,93,4.3,296.2,339.5,298.9
998.5,163,22.9,20.0,84,14.90,93,4.3,296.2,339.3,298.8
997.9,168,22.9,19.9,83,14.81,93,4.3,296.2,339.0,298.8
997.3,173,22.8,19.8,83,14.74,93,4.3,296.2,338.8,298.8
996.7,178,22.8,19.7,83,14.69,93,4.3,296.2,338.7,298.8
996.1,183,22.8,19.7,83,14.67,92,4.3,296.2,338.7,298.8
995.6,188,22.7,19.7,83,14.68,92,4.3,296.2,338.7,298.8
995.0,193,22.7,19.7,83,14.67,92,4.3,296.2,338.7,298.8
994.5,197,22.6,19.6,83,14.59,92,4.3,296.3,338.5,298.8
994.0,202,22.6,19.5,82,14.48,92,4.3,296.3,338.2,298.8
993.5,206,22.6,19.4,82,14.45,92,4.3,296.3,338.1,298.8
993.0,211,22.5,19.5,83,14.52,91,4.3,296.3,338.3,298.9
992.5,215,22.5,19.6,84,14.58,91,4.3,296.3,338.5,298.9
992.0,220,22.4,19.5,84,14.55,91,4.3,296.3,338.4,298.8
991.4,224,22.4,19.4,83,14.46,91,4.4,296.3,338.1,298.8
990.9,229,22.4,19.3,83,14.35,91,4.4,296.3,337.8,298.8
990.4,233,22.3,19.2,82,14.27,91,4.4,296.3,337.6,298.8
989.9,238,22.3,19.2,82,14.25,91,4.5,296.3,337.6,298.8
989.3,243,22.3,19.2,83,14.26,91,4.5,296.3,337.6,298.9
988.8,248,22.2,19.1,83,14.25,91,4.5,296.3,337.6,298.9
988.2,253,22.2,19.1,83,14.24,91,4.5,296.3,337.5,298.9
987.6,258,22.1,19.1,83,14.20,91,4.6,296.3,337.4,298.9
987.1,263,22.1,19.0,83,14.16,91,4.6,296.3,337.3,298.9
986.5,268,22.1,19.0,83,14.14,91,4.6,296.3,337.3,298.9
985.9,273,22.0,19.0,83,14.15,91,4.6,296.3,337.3,298.9
985.4,278,22.0,19.0,83,14.18,91,4.7,296.3,337.4,298.9
984.8,283,21.9,19.0,83,14.18,91,4.7,296.4,337.4,298.9
984.2,288,21.9,19.0,84,14.17,92,4.7,296.4,337.4,298.9
983.6,293,21.8,18.9,84,14.14,92,4.7,296.4,337.3,298.9
983.0,299,21.8,18.9,84,14.09,92,4.7,296.4,337.2,298.9
982.4,304,21.7,18.8,84,14.08,92,4.7,296.4,337.1,298.9
981.8,310,21.7,18.9,84,14.11,92,4.7,296.4,337.2,298.9
981.1,315,21.6,18.9,85,14.15,92,4.7,296.4,337.3,298.9
980.5,321,21.6,18.9,85,14.15,92,4.7,296.4,337.3,298.9
979.8,327,21.5,18.9,85,14.16,92,4.7,296.4,337.4,298.9
979.2,333,21.4,18.9,86,14.20,92,4.7,296.4,337.5,298.9
978.5,338,21.4,18.9,86,14.20,91,4.7,296.4,337.5,298.9
977.9,344,21.3,18.8,86,14.14,91,4.7,296.4,337.3,298.9
977.3,349,21.3,18.8,86,14.08,91,4.7,296.4,337.1,298.9
976.8,354,21.2,18.7,85,14.02,91,4.6,296.4,337.0,298.9
976.2,359,21.2,18.7,85,14.00,91,4.6,296.4,336.9,298.9
975.7,364,21.2,18.7,86,14.00,91,4.6,296.4,336.9,298.9
975.2,368,21.1,18.7,86,14.04,90,4.6,296.4,337.1,298.9
974.6,373,21.1,18.7,86,14.06,90,4.5,296.4,337.1,298.9
974.1,378,21.1,18.7,86,14.05,90,4.5,296.4,337.1,298.9
973.5,383,21.0,18.6,86,14.03,90,4.5,296.4,337.0,298.9
973.0,388,21.0,18.6,86,13.96,89,4.5,296.4,336.9,298.9
972.4,393,20.9,18.5,86,13.87,89,4.4,296.4,336.6,298.9
971.8,398,20.9,18.4,85,13.81,89,4.4,296.5,336.5,298.9
971.2,403,20.9,18.3,85,13.78,88,4.3,296.5,336.4,298.9
970.7,409,20.8,18.3,85,13.76,88,4.3,296.5,336.3,298.9
970.1,414,20.8,18.2,85,13.71,87,4.3,296.5,336.2,298.9
969.5,419,20.8,18.1,85,13.63,87,4.2,296.5,336.0,298.9
969.0,423,20.7,18.0,84,13.52,86,4.2,296.5,335.7,299.0
968.5,428,20.7,17.8,83,13.37,86,4.1,296.6,335.3,298.9
967.9,433,20.7,17.6,82,13.22,86,4.1,296.6,335.0,299.0
967.5,437,20.7,17.5,82,13.14,85,4.0,296.7,334.8,299.0
967.0,442,20.7,17.5,82,13.11,85,4.0,296.7,334.7,299.0
966.5,446,20.7,17.5,82,13.12,84,3.9,296.7,334.7,299.0
966.0,450,20.6,17.5,82,13.11,83,3.9,296.7,334.7,299.0
965.5,455,20.6,17.4,82,13.09,83,3.8,296.7,334.7,299.0
965.0,459,20.6,17.4,82,13.08,82,3.8,296.7,334.7,299.0
964.5,463,20.5,17.5,83,13.13,81,3.7,296.7,334.8,299.1
964.0,468,20.5,17.5,83,13.18,80,3.7,296.8,335.0,299.1
963.5,473,20.5,17.5,83,13.17,79,3.7,296.8,335.0,299.1
963.0,477,20.5,17.4,82,13.11,79,3.6,296.8,334.9,299.2
962.4,482,20.5,17.3,82,13.04,78,3.6,296.9,334.7,299.2
961.9,487,20.5,17.3,82,13.02,77,3.6,296.9,334.7,299.2
961.4,492,20.4,17.3,82,13.03,75,3.5,296.9,334.7,299.2
960.8,497,20.4,17.3,82,13.03,74,3.5,296.9,334.8,299.2
960.3,501,20.4,17.3,82,13.03,73,3.5,296.9,334.8,299.2
959.7,506,20.3,17.3,83,13.02,72,3.5,296.9,334.8,299.3
959.2,512,20.3,17.2,83,13.01,71,3.5,296.9,334.7,299.3
958.6,517,20.2,17.2,83,13.02,70,3.5,297.0,334.8,299.3
958.0,523,20.2,17.3,83,13.06,69,3.5,297.0,334.9,299.3
957.3,528,20.1,17.3,84,13.07,68,3.5,297.0,334.9,299.3
956.7,534,20.1,17.2,84,13.02,66,3.5,297.0,334.8,299.3
956.0,540,20.0,17.1,83,12.93,65,3.6,297.0,334.6,299.3
955.4,546,20.0,16.9,82,12.80,65,3.6,297.0,334.2,299.3
954.8,551,20.0,16.8,82,12.67,64,3.6,297.0,333.9,299.3
954.2,557,19.9,16.6,81,12.57,63,3.7,297.0,333.6,299.3
953.6,562,19.9,16.5,81,12.50,62,3.7,297.1,333.4,299.3
953.1,567,19.9,16.5,81,12.45,62,3.8,297.1,333.3,299.3
952.6,571,19.9,16.4,81,12.44,61,3.9,297.1,333.3,299.4
952.1,576,19.9,16.5,81,12.47,61,3.9,297.2,333.4,299.4
951.6,580,19.8,16.5,81,12.48,61,4.0,297.2,333.5,299.4
951.2,584,19.8,16.5,81,12.48,60,4.0,297.2,333.5,299.4
950.8,588,19.8,16.4,81,12.44,60,4.1,297.2,333.4,299.4
950.3,592,19.8,16.4,81,12.41,60,4.1,297.2,333.4,299.5
949.9,596,19.8,16.3,80,12.38,60,4.2,297.3,333.3,299.5
949.5,600,19.8,16.3,80,12.37,60,4.2,297.3,333.3,299.5
949.0,603,19.8,16.3,80,12.37,60,4.3,297.3,333.4,299.5
948.6,607,19.7,16.3,80,12.36,60,4.3,297.3,333.3,299.5
948.2,611,19.7,16.3,80,12.35,60,4.4,297.4,333.3,299.6
947.8,615,19.7,16.2,80,12.35,60,4.4,297.4,333.3,299.6
947.4,619,19.7,16.2,81,12.35,60,4.4,297.4,333.4,299.6
947.0,622,19.7,16.3,81,12.37,60,4.4,297.4,333.4,299.6
946.5,626,19.6,16.3,81,12.40,60,4.4,297.4,333.6,299.6
946.1,631,19.6,16.3,81,12.40,60,4.4,297.4,333.5,299.6
945.6,635,19.6,16.3,81,12.39,59,4.4,297.4,333.5,299.6
945.1,639,19.5,16.2,81,12.35,59,4.3,297.4,333.4,299.6
944.6,644,19.5,16.1,80,12.25,59,4.3,297.5,333.2,299.7
944.2,648,19.5,15.8,79,12.05,59,4.3,297.5,332.7,299.7
943.7,652,19.6,15.6,78,11.87,59,4.2,297.6,332.2,299.7
943.2,656,19.6,15.4,77,11.75,59,4.2,297.7,332.0,299.8
942.8,660,19.6,15.4,77,11.73,58,4.1,297.7,332.0,299.8
942.4,664,19.6,15.4,77,11.77,58,4.0,297.8,332.1,299.9
941.9,668,19.6,15.4,77,11.78,58,4.0,297.8,332.2,299.9
941.5,672,19.6,15.4,77,11.77,57,3.9,297.8,332.2,299.9
941.1,676,19.5,15.4,77,11.76,57,3.8,297.8,332.2,299.9
940.6,680,19.5,15.4,77,11.76,57,3.7,297.8,332.2,299.9
940.2,684,19.5,15.4,77,11.79,56,3.7,297.8,332.3,299.9
939.7,689,19.4,15.4,78,11.80,56,3.6,297.8,332.3,299.9
939.2,693,19.4,15.4,78,11.80,55,3.5,297.8,332.3,300.0
938.7,698,19.4,15.4,78,11.80,55,3.4,297.9,332.3,300.0
938.2,702,19.3,15.4,78,11.79,55,3.4,297.9,332.3,300.0
937.7,707,19.3,15.4,78,11.79,54,3.3,297.9,332.3,300.0
937.2,712,19.3,15.3,78,11.78,54,3.2,297.9,332.3,300.0
936.7,717,19.2,15.3,78,11.75,54,3.2,297.9,332.2,300.0
936.2,721,19.2,15.2,78,11.70,53,3.1,297.9,332.1,300.0
935.6,726,19.2,15.1,77,11.64,53,3.1,297.9,332.0,300.0
935.1,731,19.2,15.0,77,11.57,53,3.0,298.0,331.8,300.1
934.6,736,19.2,15.0,76,11.51,52,3.0,298.0,331.7,300.1
934.0,741,19.2,14.9,76,11.45,52,2.9,298.1,331.6,300.1
933.5,746,19.2,14.8,76,11.38,52,2.9,298.1,331.4,300.2
933.0,750,19.1,14.7,76,11.35,51,2.9,298.1,331.4,300.2
932.6,755,19.1,14.7,76,11.35,51,2.9,298.1,331.4,300.2
932.1,759,19.1,14.7,76,11.33,51,2.9,298.2,331.3,300.2
931.6,763,19.1,14.6,75,11.28,51,2.9,298.2,331.2,300.2
931.2,768,19.1,14.6,75,11.27,51,2.9,298.2,331.2,300.2
930.7,772,19.0,14.6,75,11.30,51,2.9,298.2,331.3,300.3
930.2,776,19.0,14.6,76,11.32,50,2.9,298.3,331.4,300.3
929.7,781,19.0,14.6,76,11.32,50,2.9,298.3,331.4,300.3
929.2,786,18.9,14.6,76,11.32,50,3.0,298.3,331.4,300.3
928.7,790,18.9,14.6,76,11.32,50,3.0,298.3,331.4,300.3
928.2,795,18.8,14.6,76,11.33,50,3.0,298.3,331.5,300.3
927.7,799,18.8,14.6,77,11.35,49,3.1,298.3,331.5,300.3
927.2,804,18.8,14.6,77,11.34,49,3.1,298.3,331.5,300.3
926.7,809,18.7,14.5,76,11.24,49,3.2,298.3,331.2,300.3
926.2,813,18.7,14.3,75,11.10,49,3.2,298.3,330.8,300.3
925.8,818,18.7,14.1,74,10.96,48,3.3,298.4,330.5,300.3
925.3,822,18.7,14.0,74,10.89,48,3.3,298.4,330.3,300.4
925.0,825,18.7,14.0,74,10.89,48,3.3,298.4,330.4,300.4
924.8,826,18.7,13.9,74,10.89,48,3.4,298.4,330.4,300.4
924.3,831,18.7,14.0,74,10.91,47,3.4,298.4,330.4,300.4
923.9,835,18.6,14.0,74,10.94,47,3.4,298.4,330.5,300.4
923.4,840,18.6,14.0,75,10.98,46,3.5,298.4,330.6,300.4
922.9,844,18.5,14.1,75,11.01,46,3.5,298.5,330.7,300.4
922.4,849,18.5,14.1,76,11.04,46,3.6,298.5,330.8,300.4
921.9,854,18.5,14.2,76,11.08,45,3.6,298.5,331.0,300.5
921.4,858,18.4,14.2,76,11.14,45,3.6,298.5,331.2,300.5
920.8,863,18.4,14.3,77,11.23,44,3.6,298.5,331.5,300.5
920.3,868,18.4,14.5,78,11.32,44,3.6,298.5,331.7,300.6
919.7,874,18.4,14.5,78,11.38,43,3.6,298.6,331.9,300.6
919.2,879,18.3,14.6,79,11.45,43,3.6,298.5,332.1,300.6
918.6,884,18.2,14.6,80,11.47,42,3.6,298.5,332.1,300.6
918.1,889,18.2,14.6,80,11.45,42,3.6,298.5,332.1,300.6
917.5,894,18.2,14.6,80,11.43,41,3.6,298.6,332.1,300.6
917.0,899,18.1,14.6,80,11.45,41,3.6,298.6,332.1,300.6
916.6,903,18.1,14.6,80,11.50,40,3.6,298.6,332.3,300.6
916.1,908,18.1,14.7,81,11.55,39,3.5,298.6,332.4,300.7
915.6,912,18.0,14.7,81,11.59,39,3.5,298.6,332.6,300.7
915.2,916,18.0,14.7,81,11.59,38,3.5,298.6,332.6,300.7
914.7,921,18.0,14.7,81,11.59,38,3.4,298.6,332.6,300.7
914.2,925,17.9,14.7,81,11.58,37,3.4,298.6,332.6,300.7
913.8,930,17.9,14.7,81,11.56,36,3.4,298.6,332.5,300.7
913.3,934,17.9,14.6,81,11.49,35,3.3,298.6,332.3,300.7
912.8,939,17.8,14.5,81,11.42,35,3.3,298.7,332.2,300.7
912.3,944,17.8,14.4,81,11.40,34,3.3,298.7,332.2,300.7
911.8,948,17.8,14.4,81,11.41,33,3.2,298.7,332.2,300.8
911.2,953,17.8,14.4,81,11.42,32,3.2,298.7,332.2,300.8
910.7,958,17.7,14.4,81,11.41,31,3.2,298.7,332.2,300.8
910.2,963,17.7,14.4,81,11.41,30,3.2,298.8,332.2,300.8
909.7,968,17.7,14.4,81,11.40,29,3.2,298.8,332.2,300.8
909.2,973,17.6,14.4,81,11.41,28,3.2,298.8,332.3,300.9
908.7,978,17.6,14.4,81,11.41,27,3.2,298.8,332.3,300.9
908.1,983,17.6,14.4,81,11.40,26,3.2,298.9,332.3,300.9
907.6,988,17.6,14.3,81,11.38,26,3.2,298.9,332.3,300.9
907.0,993,17.6,14.3,81,11.36,25,3.2,298.9,332.3,301.0
906.5,998,17.5,14.2,81,11.33,24,3.2,299.0,332.2,301.0
905.9,1004,17.5,14.2,81,11.30,23,3.2,299.0,332.2,301.0
905.3,1010,17.4,14.2,81,11.30,23,3.2,299.0,332.1,301.0
904.7,1015,17.4,14.1,81,11.28,22,3.2,299.0,332.1,301.0
904.0,1021,17.3,14.1,81,11.25,21,3.2,299.0,332.0,301.0
903.4,1027,17.3,14.1,81,11.24,21,3.3,299.0,332.0,301.0
902.8,1033,17.2,14.1,82,11.26,21,3.3,299.0,332.1,301.0
902.1,1039,17.2,14.1,82,11.31,20,3.3,299.0,332.2,301.0
901.5,1046,17.1,14.1,83,11.32,20,3.3,299.0,332.3,301.0
900.8,1052,17.1,14.1,83,11.29,20,3.3,299.0,332.2,301.0
900.1,1058,17.0,14.0,82,11.22,20,3.3,299.0,332.0,301.0
899.5,1065,17.0,13.9,82,11.16,20,3.3,299.0,331.8,301.0
898.8,1071,16.9,13.8,82,11.13,20,3.3,299.0,331.7,301.0
898.1,1077,16.8,13.8,82,11.14,20,3.3,299.0,331.8,301.0
897.5,1084,16.8,13.8,83,11.14,20,3.3,299.0,331.8,301.0
896.8,1090,16.7,13.8,83,11.15,21,3.3,299.0,331.8,301.0
896.2,1096,16.7,13.8,83,11.16,21,3.3,299.0,331.8,301.0
895.6,1102,16.6,13.8,84,11.17,21,3.3,299.0,331.8,301.0
894.9,1108,16.5,13.8,84,11.16,21,3.2,299.0,331.8,301.0
894.4,1113,16.5,13.7,84,11.11,22,3.2,299.0,331.7,301.0
893.8,1118,16.4,13.6,84,11.05,22,3.2,299.0,331.5,301.0
893.3,1123,16.4,13.5,83,10.98,22,3.2,299.0,331.3,301.0
892.8,1128,16.4,13.5,83,10.95,23,3.1,299.1,331.3,301.0
892.3,1133,16.4,13.5,83,10.95,23,3.1,299.1,331.3,301.1
891.9,1137,16.3,13.5,83,10.97,23,3.1,299.1,331.4,301.1
891.4,1141,16.3,13.5,84,10.99,23,3.1,299.1,331.4,301.1
891.0,1146,16.3,13.4,83,10.94,23,3.0,299.1,331.3,301.1
890.5,1150,16.2,13.3,83,10.85,23,3.0,299.1,331.1,301.1
890.0,1155,16.2,13.2,82,10.75,23,3.0,299.2,330.8,301.1
889.6,1159,16.2,13.0,81,10.66,23,3.0,299.2,330.6,301.1
889.1,1164,16.2,12.9,81,10.56,22,3.0,299.3,330.4,301.2
888.6,1168,16.2,12.7,80,10.46,22,2.9,299.3,330.1,301.2
888.1,1173,16.2,12.7,80,10.42,22,2.9,299.3,330.0,301.2
887.6,1178,16.1,12.7,80,10.45,21,2.9,299.3,330.1,301.2
887.1,1183,16.1,12.7,80,10.47,20,2.9,299.3,330.2,301.2
886.6,1188,16.1,12.6,80,10.38,20,2.9,299.3,329.9,301.2
886.1,1193,16.0,12.3,79,10.23,19,3.0,299.4,329.5,301.2
885.6,1198,16.0,12.2,78,10.12,18,3.0,299.4,329.3,301.2
885.1,1202,16.0,12.2,78,10.11,18,3.0,299.4,329.3,301.3
884.6,1207,16.0,12.2,78,10.13,17,3.0,299.5,329.4,301.3
884.1,1212,16.0,12.2,78,10.17,16,3.1,299.5,329.5,301.3
883.6,1216,16.0,12.2,79,10.18,16,3.1,299.5,329.6,301.3
883.1,1221,15.9,12.2,78,10.14,15,3.2,299.5,329.5,301.4
882.7,1226,15.9,12.1,78,10.11,14,3.2,299.5,329.4,301.4
882.2,1230,15.9,12.1,78,10.11,14,3.2,299.5,329.4,301.4
881.7,1235,15.8,12.1,79,10.12,13,3.3,299.6,329.4,301.4
881.2,1240,15.8,12.2,79,10.15,13,3.3,299.6,329.5,301.4
880.6,1245,15.7,12.2,79,10.19,12,3.4,299.6,329.6,301.4
880.1,1250,15.7,12.2,80,10.21,12,3.4,299.6,329.7,301.4
879.6,1255,15.7,12.3,80,10.27,11,3.5,299.6,329.9,301.4
879.0,1261,15.6,12.4,81,10.35,11,3.5,299.6,330.1,301.5
878.5,1266,15.6,12.5,82,10.42,11,3.6,299.6,330.3,301.5
878.0,1271,15.5,12.5,82,10.44,11,3.6,299.6,330.4,301.5
877.5,1275,15.5,12.5,83,10.43,10,3.6,299.6,330.4,301.5
877.0,1280,15.4,12.5,83,10.42,10,3.7,299.6,330.3,301.5
876.6,1285,15.4,12.5,83,10.43,10,3.7,299.6,330.4,301.5
876.1,1289,15.3,12.5,83,10.46,10,3.7,299.6,330.5,301.5
875.6,1294,15.3,12.6,84,10.50,10,3.7,299.6,330.6,301.5
875.2,1298,15.3,12.6,84,10.55,10,3.7,299.6,330.7,301.5
874.7,1303,15.2,12.7,85,10.60,9,3.8,299.6,330.9,301.5
874.2,1307,15.2,12.7,85,10.60,9,3.8,299.6,330.9,301.5
873.7,1312,15.1,12.6,85,10.58,9,3.8,299.6,330.8,301.5
873.3,1316,15.1,12.6,85,10.56,10,3.8,299.6,330.8,301.5
872.8,1321,15.1,12.6,85,10.56,10,3.8,299.7,330.8,301.6
872.3,1326,15.0,12.6,85,10.57,10,3.8,299.7,330.9,301.6
871.8,1330,15.0,12.6,86,10.58,10,3.8,299.7,330.9,301.6
871.4,1335,15.0,12.6,86,10.58,10,3.8,299.7,330.9,301.6
870.9,1340,14.9,12.6,86,10.58,11,3.8,299.7,330.9,301.6
870.4,1345,14.9,12.6,86,10.60,11,3.8,299.7,330.9,301.6
869.9,1349,14.8,12.6,87,10.62,12,3.8,299.7,331.0,301.6
869.4,1355,14.8,12.6,87,10.63,13,3.8,299.7,331.0,301.6
868.8,1360,14.7,12.6,87,10.64,13,3.9,299.7,331.1,301.6
868.3,1365,14.7,12.6,87,10.63,14,3.9,299.7,331.1,301.6
867.8,1370,14.7,12.6,87,10.59,15,3.9,299.7,331.0,301.6
867.2,1376,14.6,12.5,87,10.56,16,3.9,299.7,330.9,301.6
866.7,1381,14.6,12.5,87,10.54,17,4.0,299.7,330.8,301.6
866.1,1386,14.5,12.4,87,10.51,18,4.0,299.8,330.8,301.6
865.6,1391,14.5,12.4,87,10.48,19,4.0,299.8,330.7,301.7
865.1,1397,14.5,12.3,87,10.46,20,4.1,299.8,330.7,301.7
864.5,1402,14.5,12.3,87,10.48,21,4.1,299.9,330.8,301.8
864.0,1407,14.5,12.4,87,10.50,22,4.1,299.9,330.9,301.8
863.5,1411,14.5,12.3,87,10.50,23,4.2,299.9,331.0,301.8
863.1,1416,14.4,12.3,87,10.49,23,4.2,299.9,330.9,301.8
862.6,1421,14.4,12.3,87,10.49,24,4.3,299.9,330.9,301.8
862.2,1425,14.4,12.3,88,10.49,25,4.3,299.9,330.9,301.8
861.8,1429,14.3,12.3,88,10.50,25,4.3,299.9,331.0,301.8
861.3,1433,14.3,12.3,88,10.50,26,4.4,300.0,331.0,301.9
860.9,1437,14.3,12.3,88,10.49,26,4.4,300.0,331.0,301.9
860.5,1442,14.2,12.3,88,10.48,27,4.4,300.0,330.9,301.9
860.0,1446,14.2,12.2,88,10.47,27,4.4,300.0,330.9,301.9
859.6,1451,14.2,12.2,88,10.48,27,4.4,300.0,330.9,301.9
859.1,1455,14.1,12.2,89,10.47,27,4.5,300.0,330.9,301.9
858.6,1460,14.1,12.2,89,10.45,27,4.5,300.0,330.9,301.9
858.1,1465,14.0,12.1,88,10.41,27,4.5,300.0,330.8,301.9
857.5,1471,14.0,12.0,88,10.36,26,4.5,300.1,330.7,301.9
857.0,1476,14.0,12.0,87,10.31,26,4.5,300.1,330.6,302.0
856.4,1481,14.0,11.9,87,10.26,25,4.5,300.2,330.5,302.0
855.9,1487,14.0,11.8,87,10.23,25,4.5,300.2,330.5,302.1
855.3,1492,14.0,11.8,87,10.22,24,4.5,300.3,330.5,302.1
854.8,1498,14.0,11.8,87,10.23,23,4.6,300.3,330.6,302.2
854.2,1503,14.0,11.8,87,10.24,23,4.6,300.4,330.7,302.2
853.7,1509,14.0,11.8,87,10.24,22,4.6,300.4,330.7,302.2
853.1,1514,14.0,11.8,87,10.24,21,4.6,300.5,330.8,302.3
852.6,1520,14.0,11.8,86,10.24,20,4.6,300.5,330.9,302.4
852.0,1525,14.0,11.8,86,10.23,19,4.7,300.6,330.9,302.4
851.5,1530,14.0,11.7,86,10.21,19,4.7,300.6,330.9,302.5
850.9,1536,13.9,11.7,86,10.17,18,4.7,300.6,330.8,302.5
850.4,1541,13.9,11.6,86,10.16,17,4.8,300.7,330.8,302.5
850.0,1545,13.9,11.6,86,10.17,17,4.8,300.7,330.8,302.5
849.9,1546,13.9,11.6,86,10.17,16,4.8,300.7,330.8,302.5
849.4,1552,13.8,11.7,87,10.19,16,4.9,300.7,330.9,302.5
848.8,1557,13.8,11.6,87,10.18,15,4.9,300.7,330.9,302.5
848.3,1562,13.8,11.5,86,10.10,15,5.0,300.7,330.7,302.5
847.8,1567,13.7,11.3,85,9.95,15,5.0,300.7,330.3,302.5
847.2,1573,13.8,11.1,84,9.85,14,5.1,300.8,330.1,302.6
846.7,1578,13.7,11.1,84,9.85,14,5.1,300.9,330.1,302.6
846.1,1584,13.7,11.1,84,9.85,14,5.1,300.9,330.2,302.7
845.6,1590,13.7,11.0,84,9.77,14,5.2,300.9,329.9,302.7
844.9,1596,13.7,10.7,82,9.62,14,5.2,301.0,329.6,302.7
844.3,1602,13.7,10.4,81,9.43,14,5.2,301.1,329.1,302.8
843.7,1608,13.7,10.1,79,9.26,14,5.3,301.1,328.7,302.8
843.0,1615,13.7,9.8,77,9.05,14,5.3,301.2,328.2,302.9
842.4,1621,13.8,9.5,75,8.86,14,5.3,301.3,327.7,302.9
841.8,1627,13.8,9.2,74,8.71,14,5.3,301.4,327.4,303.0
841.1,1634,13.8,9.1,73,8.64,14,5.3,301.5,327.3,303.1
840.5,1640,13.8,9.1,73,8.66,14,5.3,301.5,327.4,303.1
839.9,1647,13.7,9.2,74,8.73,14,5.4,301.5,327.6,303.1
839.2,1653,13.7,9.2,75,8.75,15,5.4,301.5,327.7,303.1
838.6,1660,13.6,9.1,74,8.70,15,5.4,301.5,327.5,303.1
837.9,1666,13.6,9.0,74,8.61,15,5.4,301.6,327.3,303.1
837.2,1673,13.5,8.8,73,8.54,15,5.4,301.6,327.1,303.1
836.5,1680,13.4,8.7,73,8.50,15,5.4,301.6,327.0,303.1
835.9,1687,13.4,8.7,73,8.45,15,5.4,301.6,326.9,303.1
835.2,1693,13.3,8.6,73,8.42,16,5.4,301.6,326.8,303.1
834.6,1699,13.3,8.6,73,8.41,16,5.4,301.6,326.8,303.2
834.0,1706,13.2,8.6,73,8.41,16,5.5,301.6,326.8,303.2
833.4,1712,13.2,8.5,73,8.40,16,5.5,301.6,326.8,303.2
832.8,1718,13.1,8.4,73,8.34,16,5.5,301.7,326.6,303.2
832.2,1724,13.1,8.2,72,8.23,17,5.5,301.7,326.4,303.2
831.6,1730,13.1,8.0,71,8.15,17,5.6,301.7,326.2,303.2
831.0,1736,13.1,8.0,71,8.14,17,5.6,301.8,326.2,303.3
830.5,1741,13.0,8.1,72,8.17,17,5.6,301.8,326.3,303.3
829.9,1747,13.0,8.1,72,8.18,17,5.6,301.8,326.3,303.3
829.4,1752,13.0,8.1,72,8.19,17,5.7,301.8,326.4,303.3
828.9,1758,12.9,8.1,72,8.20,17,5.7,301.8,326.4,303.3
828.3,1763,12.9,8.1,73,8.24,17,5.7,301.9,326.6,303.4
827.8,1768,12.8,8.2,74,8.30,17,5.8,301.9,326.7,303.4
827.3,1774,12.8,8.4,74,8.37,18,5.8,301.9,326.9,303.4
826.8,1779,12.7,8.4,75,8.39,18,5.9,301.8,327.0,303.4
826.2,1784,12.7,8.3,75,8.37,18,5.9,301.8,326.9,303.4
825.7,1790,12.6,8.3,75,8.33,18,5.9,301.9,326.8,303.4
825.2,1795,12.6,8.2,75,8.31,18,6.0,301.9,326.8,303.4
824.7,1800,12.5,8.2,75,8.30,18,6.0,301.9,326.7,303.4
824.1,1806,12.5,8.2,75,8.28,18,6.1,301.9,326.7,303.4
823.6,1811,12.5,8.0,74,8.19,18,6.1,301.9,326.5,303.4
823.1,1816,12.5,7.6,72,7.99,18,6.1,302.0,326.0,303.5
822.6,1822,12.6,7.2,70,7.79,17,6.2,302.1,325.5,303.5
822.0,1827,12.6,7.1,69,7.70,17,6.2,302.2,325.4,303.6
821.5,1833,12.6,7.0,69,7.68,17,6.2,302.3,325.4,303.7
820.9,1839,12.6,7.0,69,7.67,17,6.3,302.3,325.4,303.7
820.4,1844,12.5,6.9,69,7.65,17,6.3,302.3,325.3,303.7
819.8,1850,12.5,6.9,69,7.63,16,6.3,302.3,325.3,303.7
