PRES,HGHT,TEMP,DWPT,RELH,MIXR,DRCT,SPED,THTA,THTE,THTV
1013.5,31,25.1,20.8,77,15.44,43,5.8,297.1,341.9,299.9
1012.8,37,25.2,20.9,77,15.59,34,4.5,297.3,342.6,300.1
1012.1,42,25.2,20.9,77,15.51,31,4.3,297.4,342.4,300.1
1011.6,47,25.2,20.7,76,15.35,30,4.5,297.4,342.0,300.1
1010.8,54,25.2,20.5,75,15.21,30,4.8,297.4,341.7,300.1
1010.2,59,25.1,20.4,75,15.14,31,5.2,297.4,341.4,300.1
1009.6,65,25.1,20.4,75,15.10,32,5.5,297.4,341.3,300.1
1009.0,70,25.0,20.4,75,15.08,32,5.8,297.4,341.3,300.1
1008.4,75,25.0,20.3,75,15.05,32,6.0,297.4,341.2,300.1
1007.8,81,24.9,20.3,75,15.02,33,6.3,297.4,341.1,300.1
1007.2,86,24.9,20.2,75,15.00,33,6.5,297.4,341.0,300.1
1006.6,91,24.8,20.2,76,14.99,34,6.8,297.4,341.0,300.1
1006.0,96,24.8,20.2,76,15.02,34,7.0,297.4,341.1,300.1
1005.4,101,24.7,20.3,76,15.08,34,7.1,297.4,341.3,300.1
1004.8,106,24.7,20.4,77,15.15,35,7.3,297.4,341.5,300.1
1004.2,112,24.7,20.5,77,15.25,35,7.4,297.4,341.8,300.2
1003.6,117,24.6,20.5,78,15.32,36,7.5,297.5,342.0,300.2
1002.9,123,24.6,20.5,78,15.35,36,7.6,297.5,342.1,300.2
1002.3,128,24.5,20.6,79,15.38,36,7.7,297.5,342.2,300.2
1001.6,134,24.5,20.6,79,15.41,37,7.8,297.5,342.3,300.2
1001.0,140,24.4,20.6,79,15.45,37,7.8,297.5,342.4,300.2
1000.3,146,24.3,20.6,80,15.46,37,7.8,297.5,342.4,300.2
1000.0,149,24.3,20.6,80,15.47,38,7.9,297.5,342.4,300.2
999.7,152,24.3,20.6,80,15.48,38,7.9,297.5,342.5,300.2
999.0,157,24.2,20.7,80,15.52,38,7.9,297.5,342.6,300.2
998.4,163,24.2,20.6,81,15.51,39,7.8,297.5,342.6,300.2
997.7,169,24.1,20.6,80,15.45,39,7.8,297.5,342.4,300.2
997.0,175,24.1,20.5,81,15.41,39,7.8,297.5,342.3,300.2
996.4,181,24.0,20.5,81,15.43,40,7.8,297.5,342.3,300.2
995.7,187,24.0,20.6,81,15.48,40,7.8,297.5,342.5,300.2
995.0,193,23.9,20.6,82,15.54,41,7.7,297.5,342.6,300.2
994.3,199,23.8,20.6,82,15.56,41,7.7,297.5,342.7,300.2
993.6,205,23.8,20.6,82,15.54,42,7.6,297.5,342.7,300.3
992.9,211,23.7,20.5,82,15.51,42,7.6,297.5,342.6,300.2
992.2,217,23.7,20.5,82,15.47,42,7.6,297.5,342.4,300.2
991.5,223,23.6,20.4,82,15.39,43,7.6,297.5,342.2,300.2
990.9,229,23.5,20.4,83,15.38,43,7.5,297.4,342.2,300.2
990.2,235,23.5,20.4,83,15.43,44,7.5,297.5,342.3,300.2
989.5,241,23.4,20.4,83,15.47,44,7.5,297.5,342.4,300.2
988.9,247,23.4,20.5,84,15.52,44,7.5,297.5,342.6,300.2
988.2,253,23.3,20.5,84,15.51,45,7.5,297.5,342.6,300.2
987.5,258,23.3,20.4,84,15.46,45,7.5,297.5,342.4,300.2
986.9,264,23.2,20.3,84,15.41,46,7.5,297.5,342.3,300.2
986.3,270,23.1,20.3,84,15.35,46,7.5,297.5,342.1,300.2
985.6,275,23.1,20.2,84,15.30,46,7.5,297.5,341.9,300.2
985.0,281,23.0,20.1,84,15.24,47,7.5,297.5,341.8,300.2
984.4,287,23.0,20.1,84,15.24,47,7.5,297.4,341.8,300.2
983.7,293,22.9,20.2,85,15.30,47,7.5,297.4,341.9,300.2
983.0,299,22.8,20.2,85,15.33,47,7.6,297.4,342.0,300.2
982.3,305,22.8,20.2,85,15.31,48,7.6,297.4,342.0,300.2
981.6,311,22.7,20.2,85,15.32,48,7.6,297.4,342.0,300.2
981.0,317,22.7,20.2,86,15.35,48,7.6,297.4,342.1,300.2
980.3,323,22.6,20.1,86,15.32,48,7.7,297.4,342.0,300.2
979.7,329,22.5,20.1,86,15.29,48,7.7,297.4,341.8,300.1
979.0,334,22.5,20.1,86,15.28,48,7.7,297.4,341.8,300.1
978.4,340,22.4,20.1,87,15.30,48,7.8,297.4,341.9,300.2
977.8,345,22.4,20.1,87,15.35,48,7.8,297.4,342.0,300.2
977.3,350,22.3,20.1,87,15.37,48,7.8,297.4,342.1,300.2
976.7,355,22.3,20.1,88,15.37,47,7.9,297.4,342.1,300.2
976.1,361,22.2,20.1,88,15.38,47,7.9,297.4,342.1,300.1
975.5,366,22.2,20.1,88,15.39,47,7.9,297.4,342.1,300.2
974.9,371,22.1,20.1,89,15.40,47,7.9,297.4,342.2,300.1
974.3,377,22.1,20.1,89,15.37,47,7.9,297.4,342.1,300.1
973.7,382,22.0,20.1,89,15.34,46,8.0,297.4,342.0,300.1
973.1,387,21.9,20.0,89,15.31,46,8.0,297.4,341.9,300.1
972.5,392,21.9,20.0,89,15.30,46,8.0,297.4,341.9,300.1
972.0,397,21.9,20.0,89,15.33,46,8.0,297.4,342.0,300.1
971.4,403,21.8,20.0,90,15.36,46,8.0,297.4,342.1,300.1
970.8,408,21.8,20.0,90,15.38,45,8.0,297.4,342.1,300.1
970.2,413,21.7,20.0,90,15.38,45,8.0,297.4,342.1,300.1
969.6,418,21.7,20.0,90,15.37,45,8.0,297.4,342.1,300.1
969.1,424,21.6,20.0,91,15.37,45,8.0,297.4,342.1,300.1
968.5,429,21.6,20.0,91,15.37,45,8.0,297.4,342.1,300.2
967.9,434,21.5,20.0,91,15.36,45,8.0,297.4,342.1,300.2
967.3,439,21.5,19.9,91,15.32,45,8.0,297.4,342.0,300.1
966.7,445,21.4,19.9,91,15.29,45,8.0,297.4,341.9,300.1
966.1,450,21.4,19.9,91,15.29,45,8.0,297.4,341.9,300.1
965.6,455,21.3,19.9,91,15.29,45,8.0,297.4,341.9,300.1
965.0,460,21.3,19.9,92,15.30,45,8.0,297.4,341.9,300.1
964.4,465,21.2,19.9,92,15.31,45,8.0,297.4,341.9,300.2
963.9,470,21.2,19.9,92,15.33,45,8.0,297.4,342.0,300.2
963.3,476,21.1,19.9,93,15.36,45,8.0,297.4,342.1,300.2
962.7,481,21.1,19.9,93,15.37,45,8.0,297.4,342.1,300.2
962.1,487,21.0,19.9,93,15.39,46,8.0,297.4,342.2,300.2
961.4,492,21.0,19.9,94,15.42,46,8.0,297.4,342.2,300.2
960.8,498,20.9,19.9,94,15.44,46,8.0,297.4,342.3,300.2
960.1,504,20.9,19.9,95,15.46,46,8.0,297.4,342.4,300.2
959.4,510,20.8,20.0,95,15.49,46,8.0,297.5,342.5,300.2
958.7,517,20.8,19.9,95,15.47,46,8.1,297.5,342.4,300.2
958.0,523,20.7,19.9,95,15.45,47,8.1,297.5,342.4,300.2
957.3,529,20.6,19.9,95,15.42,47,8.1,297.5,342.3,300.2
956.6,536,20.6,19.8,95,15.35,47,8.1,297.4,342.1,300.2
955.8,543,20.5,19.8,96,15.34,47,8.1,297.4,342.0,300.2
955.1,550,20.4,19.8,96,15.35,47,8.1,297.4,342.1,300.2
954.3,557,20.3,19.8,97,15.38,48,8.1,297.4,342.1,300.2
953.6,564,20.3,19.7,97,15.37,48,8.0,297.4,342.1,300.1
952.8,570,20.2,19.7,97,15.31,48,8.0,297.4,341.9,300.1
952.1,577,20.1,19.6,97,15.25,48,8.0,297.4,341.7,300.1
951.4,584,20.1,19.6,97,15.23,48,8.0,297.4,341.7,300.1
950.7,590,20.0,19.6,98,15.29,49,7.9,297.4,341.9,300.1
950.0,596,20.0,19.7,98,15.37,49,7.9,297.4,342.1,300.2
949.3,602,19.9,19.7,99,15.38,49,7.9,297.4,342.1,300.2
948.7,608,19.8,19.6,99,15.33,49,7.8,297.4,342.0,300.2
948.0,614,19.8,19.6,99,15.29,49,7.7,297.4,341.9,300.2
947.4,620,19.7,19.5,99,15.28,50,7.7,297.4,341.8,300.2
946.8,625,19.7,19.6,99,15.31,50,7.6,297.4,341.9,300.2
946.2,631,19.6,19.6,100,15.33,50,7.5,297.5,342.0,300.2
945.5,637,19.6,19.6,100,15.32,50,7.5,297.5,342.0,300.2
944.9,642,19.5,19.5,100,15.27,50,7.4,297.5,341.8,300.2
944.3,648,19.5,19.4,100,15.21,51,7.3,297.5,341.7,300.2
943.7,654,19.5,19.4,100,15.21,51,7.3,297.5,341.7,300.2
943.0,660,19.4,19.4,100,15.24,51,7.2,297.5,341.8,300.2
942.4,665,19.4,19.4,100,15.23,51,7.1,297.6,341.9,300.3
941.8,671,19.4,19.4,100,15.24,51,7.1,297.6,341.9,300.3
941.2,676,19.4,19.4,100,15.23,51,7.0,297.6,342.0,300.4
940.6,682,19.4,19.3,100,15.18,52,7.0,297.7,341.8,300.4
940.0,687,19.3,19.1,99,15.00,52,6.9,297.7,341.4,300.4
939.5,692,19.3,18.8,97,14.65,52,6.9,297.7,340.3,300.3
938.9,697,19.2,18.1,94,14.10,52,6.8,297.6,338.7,300.2
938.4,702,19.1,17.7,92,13.73,53,6.8,297.6,337.6,300.1
937.9,707,19.2,17.7,91,13.75,53,6.8,297.7,337.8,300.2
937.4,712,19.2,18.2,94,14.16,53,6.8,297.8,339.1,300.4
936.8,717,19.2,18.9,98,14.80,53,6.8,297.8,340.9,300.5
936.3,721,19.1,19.1,100,15.02,53,6.8,297.8,341.5,300.5
935.8,726,19.1,18.9,99,14.89,53,6.8,297.8,341.2,300.5
935.3,731,19.0,18.3,96,14.33,54,6.9,297.7,339.5,300.3
934.8,735,18.9,17.7,93,13.78,54,6.9,297.7,337.8,300.2
934.3,740,18.9,17.5,91,13.57,54,7.0,297.8,337.3,300.2
933.9,744,19.0,17.6,92,13.68,54,7.0,297.9,337.8,300.3
933.4,748,19.0,17.9,94,13.98,54,7.1,297.9,338.7,300.4
933.0,752,18.9,18.1,95,14.16,54,7.1,297.9,339.1,300.4
932.5,757,18.8,18.1,96,14.17,54,7.2,297.9,339.1,300.4
932.1,761,18.8,18.1,96,14.17,54,7.2,297.9,339.1,300.4
931.6,765,18.7,18.0,95,14.05,54,7.3,297.8,338.8,300.3
931.1,769,18.7,18.0,95,14.04,54,7.3,297.9,338.8,300.4
930.7,773,18.7,18.2,97,14.30,54,7.4,297.9,339.5,300.4
930.2,778,18.6,18.5,99,14.58,54,7.5,297.9,340.3,300.5
929.7,782,18.6,18.5,99,14.53,54,7.5,297.8,340.1,300.4
929.2,787,18.5,18.3,99,14.35,54,7.6,297.8,339.6,300.4
928.7,791,18.5,18.2,98,14.30,54,7.6,297.8,339.5,300.4
928.2,796,18.5,18.2,98,14.33,54,7.7,297.9,339.6,300.5
927.7,801,18.5,18.1,98,14.21,54,7.7,297.9,339.3,300.5
927.2,806,18.4,17.7,96,13.84,54,7.7,297.9,338.2,300.4
926.6,811,18.3,17.5,95,13.68,54,7.8,297.9,337.7,300.3
926.1,816,18.3,17.4,95,13.61,54,7.8,297.9,337.6,300.3
925.6,821,18.3,17.2,94,13.49,54,7.8,297.9,337.3,300.4
925.0,826,18.3,17.3,94,13.57,54,7.9,298.0,337.6,300.4
924.5,831,18.3,17.6,96,13.81,54,7.9,298.0,338.3,300.5
924.0,836,18.2,17.8,98,14.04,54,7.9,298.0,338.9,300.5
923.4,841,18.1,18.0,99,14.16,54,7.9,297.9,339.2,300.5
922.9,846,18.0,17.8,99,14.04,54,7.9,297.9,338.8,300.4
922.3,851,18.0,17.5,97,13.78,54,7.9,297.9,338.1,300.4
921.7,857,18.0,17.1,95,13.42,54,7.9,298.0,337.1,300.4
921.1,862,18.0,16.8,92,13.17,54,7.9,298.1,336.6,300.5
920.6,867,18.0,16.7,92,13.10,54,7.9,298.1,336.4,300.5
920.0,872,18.0,16.7,92,13.09,54,7.9,298.2,336.4,300.5
919.5,877,18.0,16.7,92,13.11,54,7.9,298.2,336.5,300.6
919.0,882,18.0,16.7,92,13.15,55,7.9,298.3,336.7,300.6
918.5,887,18.0,16.7,92,13.14,55,7.9,298.3,336.7,300.6
918.0,892,18.0,16.7,92,13.10,55,7.9,298.3,336.6,300.6
917.5,896,17.9,16.6,92,13.06,55,7.9,298.3,336.5,300.7
917.0,901,17.9,16.6,92,13.06,55,7.9,298.3,336.5,300.7
916.5,905,17.9,16.6,92,13.09,55,7.9,298.4,336.6,300.7
916.0,910,17.9,16.6,93,13.11,55,7.9,298.4,336.7,300.7
915.5,914,17.8,16.6,93,13.13,55,7.9,298.4,336.8,300.7
915.1,919,17.8,16.7,93,13.15,55,7.9,298.4,336.8,300.7
914.6,924,17.7,16.7,94,13.16,55,7.9,298.4,336.8,300.7
914.1,928,17.7,16.6,94,13.15,55,7.8,298.4,336.8,300.7
913.6,933,17.6,16.6,94,13.11,55,7.8,298.4,336.7,300.7
913.0,938,17.6,16.5,93,13.05,55,7.8,298.4,336.5,300.7
912.5,943,17.6,16.4,93,12.96,56,7.8,298.4,336.3,300.8
912.0,948,17.6,16.3,92,12.87,56,7.8,298.5,336.1,300.8
911.5,953,17.6,16.2,91,12.80,56,7.7,298.5,336.0,300.8
910.9,958,17.6,16.1,91,12.77,56,7.7,298.6,335.9,300.8
910.4,962,17.5,16.1,92,12.77,57,7.7,298.6,335.9,300.9
909.9,967,17.5,16.1,92,12.78,57,7.7,298.6,336.0,300.9
909.4,972,17.4,16.1,92,12.77,57,7.6,298.6,336.0,300.9
908.9,977,17.4,16.1,92,12.75,58,7.6,298.6,335.9,300.9
908.3,982,17.4,16.0,92,12.73,58,7.5,298.6,335.9,300.9
907.8,987,17.3,16.0,92,12.70,58,7.5,298.6,335.8,300.9
907.3,992,17.3,16.0,92,12.68,59,7.5,298.6,335.8,300.9
906.8,997,17.3,15.9,92,12.67,60,7.5,298.6,335.7,300.9
906.3,1001,17.2,15.9,92,12.67,60,7.4,298.6,335.7,300.9
905.8,1006,17.2,15.9,92,12.66,61,7.4,298.7,335.7,300.9
905.3,1011,17.1,15.9,92,12.66,62,7.4,298.7,335.7,300.9
904.8,1015,17.1,15.9,92,12.64,63,7.4,298.7,335.7,300.9
904.4,1020,17.1,15.8,92,12.60,63,7.4,298.7,335.6,300.9
903.9,1024,17.1,15.8,92,12.56,64,7.5,298.7,335.5,301.0
903.4,1029,17.0,15.7,92,12.52,65,7.5,298.7,335.4,301.0
903.0,1033,17.0,15.7,92,12.48,66,7.6,298.8,335.3,301.0
902.5,1037,17.0,15.6,91,12.47,67,7.6,298.8,335.3,301.0
902.0,1042,17.0,15.6,91,12.44,67,7.7,298.8,335.3,301.1
901.6,1046,17.0,15.5,91,12.40,68,7.8,298.9,335.2,301.1
901.1,1051,17.0,15.5,91,12.36,69,7.9,298.9,335.1,301.1
900.6,1055,17.0,15.4,91,12.31,69,8.0,298.9,335.0,301.1
900.2,1059,16.9,15.3,90,12.24,70,8.2,298.9,334.8,301.1
899.8,1063,16.9,15.2,89,12.14,71,8.3,299.0,334.6,301.1
899.3,1068,16.9,15.1,89,12.09,71,8.4,299.0,334.5,301.2
898.9,1072,16.9,15.1,89,12.11,71,8.6,299.0,334.5,301.2
898.4,1076,16.9,15.2,90,12.15,72,8.7,299.0,334.7,301.2
898.0,1080,16.9,15.2,90,12.17,72,8.9,299.1,334.8,301.2
897.5,1085,16.9,15.1,89,12.12,72,9.0,299.1,334.7,301.3
897.1,1089,16.9,15.0,89,12.03,73,9.2,299.2,334.5,301.4
896.6,1093,16.9,14.8,87,11.92,73,9.3,299.3,334.3,301.4
896.2,1098,17.0,14.7,87,11.84,73,9.5,299.4,334.2,301.5
895.7,1102,17.0,14.8,87,11.88,73,9.6,299.4,334.4,301.6
895.2,1107,17.0,14.9,87,11.95,73,9.7,299.5,334.6,301.6
894.8,1111,17.0,14.9,88,11.99,73,9.8,299.5,334.7,301.6
894.3,1116,16.9,14.9,88,12.00,73,9.9,299.5,334.8,301.6
893.8,1120,16.9,14.9,88,12.01,73,10.0,299.5,334.8,301.7
893.3,1125,16.9,14.9,88,11.98,73,10.0,299.5,334.8,301.7
892.8,1130,16.8,14.8,88,11.91,73,10.1,299.5,334.6,301.7
892.3,1135,16.9,14.6,87,11.82,73,10.1,299.6,334.4,301.7
891.8,1140,16.9,14.5,86,11.72,73,10.1,299.6,334.2,301.8
891.3,1144,16.8,14.4,85,11.64,74,10.2,299.7,334.0,301.8
890.8,1149,16.8,14.3,85,11.57,74,10.2,299.7,333.8,301.8
890.3,1154,16.8,14.3,85,11.55,74,10.2,299.8,333.8,301.8
889.8,1159,16.8,14.3,85,11.56,74,10.2,299.8,333.8,301.8
889.3,1164,16.7,14.3,85,11.57,74,10.1,299.8,333.8,301.9
888.8,1169,16.7,14.3,86,11.57,74,10.1,299.8,333.9,301.9
888.3,1173,16.7,14.3,86,11.59,74,10.1,299.8,333.9,301.9
887.8,1178,16.6,14.3,86,11.59,75,10.1,299.8,333.9,301.9
887.3,1183,16.6,14.2,86,11.58,75,10.0,299.8,333.9,301.9
886.8,1188,16.5,14.2,86,11.58,75,10.0,299.8,333.9,301.9
886.3,1193,16.5,14.2,86,11.56,76,10.0,299.8,333.9,301.9
885.7,1198,16.5,14.1,86,11.53,76,9.9,299.8,333.8,301.9
885.2,1203,16.5,14.1,86,11.48,76,9.9,299.9,333.7,301.9
884.7,1208,16.5,14.0,85,11.44,77,9.9,299.9,333.7,302.0
884.2,1213,16.4,14.0,86,11.43,77,9.9,299.9,333.6,302.0
883.6,1218,16.4,14.0,86,11.41,78,9.9,299.9,333.6,302.0
883.1,1223,16.4,13.9,86,11.41,78,9.9,300.0,333.6,302.0
882.5,1229,16.3,14.0,86,11.43,79,9.9,300.0,333.7,302.1
882.0,1234,16.3,14.0,86,11.43,79,9.9,300.0,333.8,302.1
881.4,1239,16.3,13.9,86,11.40,80,9.9,300.0,333.7,302.1
880.9,1245,16.2,13.8,86,11.34,81,9.9,300.1,333.5,302.1
880.3,1250,16.2,13.7,85,11.29,81,9.9,300.1,333.4,302.1
879.8,1255,16.2,13.7,85,11.25,82,10.0,300.1,333.3,302.1
879.3,1260,16.2,13.6,85,11.24,83,10.0,300.1,333.3,302.2
878.8,1265,16.1,13.6,85,11.22,83,10.0,300.1,333.3,302.2
878.3,1270,16.1,13.6,85,11.20,84,10.1,300.2,333.2,302.2
877.8,1275,16.1,13.5,85,11.17,84,10.1,300.2,333.2,302.2
877.3,1280,16.1,13.5,85,11.17,85,10.2,300.3,333.3,302.3
876.8,1285,16.1,13.5,85,11.18,86,10.2,300.3,333.3,302.3
876.3,1289,16.0,13.5,85,11.18,86,10.3,300.3,333.3,302.3
875.8,1294,16.0,13.5,85,11.18,87,10.4,300.3,333.4,302.3
875.3,1299,16.0,13.5,85,11.18,87,10.4,300.4,333.4,302.4
874.8,1303,16.0,13.5,85,11.18,88,10.5,300.4,333.4,302.4
874.4,1308,15.9,13.5,86,11.21,88,10.6,300.4,333.5,302.4
873.9,1313,15.9,13.6,86,11.24,89,10.6,300.4,333.6,302.4
873.4,1317,15.9,13.6,86,11.27,89,10.7,300.4,333.7,302.4
872.9,1322,15.8,13.6,87,11.30,89,10.7,300.4,333.8,302.5
872.3,1328,15.8,13.6,87,11.33,90,10.8,300.5,333.9,302.5
871.8,1333,15.8,13.7,88,11.40,90,10.8,300.5,334.2,302.5
871.2,1338,15.8,13.8,88,11.48,90,10.9,300.5,334.4,302.6
870.7,1344,15.7,13.9,89,11.56,90,10.9,300.5,334.7,302.6
870.1,1349,15.8,14.1,90,11.67,90,10.9,300.6,335.1,302.7
869.6,1355,15.8,14.1,90,11.73,90,11.0,300.7,335.4,302.8
869.0,1360,15.8,14.1,90,11.72,90,11.0,300.8,335.4,302.9
868.5,1365,15.7,14.1,90,11.72,90,11.0,300.8,335.4,302.9
868.0,1370,15.7,14.1,90,11.74,90,11.0,300.8,335.5,302.9
867.5,1375,15.6,14.1,91,11.76,90,11.0,300.8,335.5,302.9
867.1,1379,15.6,14.2,91,11.79,90,11.0,300.7,335.6,302.9
866.6,1383,15.5,14.2,92,11.82,90,11.0,300.7,335.7,302.9
866.2,1388,15.5,14.2,92,11.84,90,11.0,300.7,335.7,302.8
865.8,1392,15.4,14.2,93,11.87,90,11.0,300.7,335.8,302.8
865.4,1396,15.4,14.2,93,11.88,90,11.0,300.7,335.8,302.9
865.0,1400,15.4,14.2,92,11.83,90,11.0,300.7,335.7,302.9
864.6,1403,15.4,14.1,92,11.78,90,11.0,300.8,335.6,302.9
864.2,1407,15.3,14.1,92,11.76,90,11.0,300.8,335.5,302.9
863.8,1411,15.3,14.1,92,11.76,90,11.0,300.8,335.5,302.9
863.4,1415,15.2,14.1,93,11.80,90,11.0,300.7,335.6,302.9
863.0,1419,15.2,14.2,94,11.85,90,11.0,300.7,335.7,302.8
862.6,1423,15.1,14.2,94,11.88,90,11.0,300.6,335.7,302.8
862.2,1427,15.0,14.2,95,11.90,90,11.0,300.7,335.8,302.8
861.7,1432,15.0,14.2,95,11.93,90,11.0,300.7,335.9,302.8
861.3,1436,15.0,14.3,95,11.95,90,11.0,300.7,336.0,302.8
860.8,1441,14.9,14.2,95,11.92,90,11.1,300.7,335.9,302.8
860.3,1446,14.9,14.2,95,11.89,91,11.1,300.7,335.9,302.9
859.8,1451,14.9,14.1,95,11.88,91,11.1,300.7,335.8,302.8
859.2,1456,14.8,14.1,96,11.88,91,11.2,300.7,335.8,302.8
858.7,1461,14.7,14.1,96,11.86,91,11.2,300.6,335.7,302.8
858.2,1467,14.6,14.0,96,11.80,91,11.3,300.6,335.5,302.8
857.7,1472,14.6,13.9,96,11.73,91,11.3,300.7,335.4,302.8
857.2,1476,14.6,13.9,95,11.69,91,11.4,300.7,335.3,302.8
856.7,1481,14.6,13.8,95,11.68,91,11.4,300.8,335.3,302.9
856.3,1486,14.6,13.8,95,11.67,90,11.5,300.8,335.3,302.9
855.8,1490,14.5,13.8,96,11.69,90,11.5,300.8,335.3,302.9
855.3,1495,14.5,13.9,96,11.73,90,11.6,300.8,335.4,302.9
854.9,1499,14.4,13.9,97,11.76,90,11.6,300.8,335.6,302.9
854.4,1504,14.4,13.9,97,11.80,89,11.7,300.8,335.7,302.9
853.9,1509,14.4,14.0,98,11.84,89,11.7,300.8,335.8,302.9
853.4,1514,14.3,14.0,98,11.86,89,11.8,300.8,335.8,302.9
852.9,1519,14.2,13.9,98,11.82,88,11.8,300.7,335.7,302.9
852.4,1524,14.2,13.9,98,11.78,88,11.9,300.8,335.6,302.9
851.9,1529,14.2,13.8,98,11.75,87,12.0,300.8,335.5,302.9
851.4,1534,14.1,13.8,98,11.76,87,12.0,300.8,335.6,302.9
850.9,1539,14.1,13.9,98,11.78,86,12.1,300.8,335.7,302.9
850.4,1544,14.1,13.8,98,11.76,85,12.1,300.9,335.6,303.0
850.0,1548,14.1,13.8,98,11.73,85,12.1,300.9,335.6,303.0
849.8,1550,14.1,13.8,98,11.72,85,12.2,301.0,335.6,303.1
849.3,1555,14.1,13.7,97,11.67,84,12.2,301.0,335.6,303.1
848.8,1560,14.1,13.6,97,11.63,83,12.3,301.0,335.5,303.1
848.3,1565,14.1,13.6,97,11.59,83,12.3,301.1,335.4,303.1
847.8,1570,14.1,13.5,96,11.55,82,12.4,301.1,335.3,303.2
847.3,1575,14.1,13.5,96,11.54,82,12.4,301.1,335.3,303.2
846.9,1579,14.1,13.4,96,11.52,81,12.5,301.2,335.3,303.3
846.4,1584,14.1,13.4,95,11.48,80,12.5,301.3,335.3,303.3
845.9,1588,14.1,13.3,95,11.44,80,12.6,301.3,335.2,303.4
845.5,1593,14.1,13.2,94,11.39,79,12.6,301.4,335.2,303.5
845.0,1598,14.2,13.2,94,11.36,79,12.7,301.5,335.2,303.5
844.5,1603,14.2,13.1,93,11.30,78,12.7,301.5,335.1,303.6
844.0,1608,14.2,13.0,92,11.21,78,12.8,301.6,334.9,303.7
843.5,1613,14.4,12.7,90,11.04,77,12.8,301.9,334.7,303.9
843.0,1618,14.6,12.2,85,10.65,77,12.8,302.2,333.9,304.1
842.5,1623,14.9,11.3,79,10.00,76,12.9,302.5,332.4,304.3
842.0,1628,15.2,10.1,72,9.29,76,12.9,302.8,330.7,304.5
841.5,1633,15.3,9.4,67,8.81,76,12.9,303.1,329.6,304.7
841.0,1638,15.5,9.0,65,8.59,75,12.9,303.3,329.1,304.8
840.5,1643,15.5,9.0,65,8.58,75,13.0,303.3,329.2,304.9
840.0,1648,15.5,9.2,66,8.74,75,13.0,303.3,329.7,304.9
839.6,1653,15.4,9.4,68,8.87,74,13.0,303.3,330.0,304.9
839.1,1657,15.3,9.2,67,8.76,74,13.0,303.3,329.7,304.9
838.6,1662,15.3,8.7,65,8.46,74,13.0,303.4,328.9,304.9
838.1,1667,15.4,8.3,63,8.23,74,13.0,303.4,328.3,304.9
837.6,1673,15.3,8.1,62,8.13,74,13.1,303.5,328.0,305.0
837.1,1678,15.3,7.9,61,7.99,73,13.1,303.5,327.7,305.0
836.6,1683,15.3,7.3,59,7.68,73,13.1,303.5,326.8,304.9
836.1,1688,15.3,6.2,55,7.15,73,13.1,303.6,325.3,304.9
835.5,1693,15.5,5.3,51,6.70,73,13.1,303.8,324.2,305.0
835.0,1698,15.5,4.9,49,6.53,73,13.1,303.9,323.8,305.1
834.5,1703,15.5,4.9,49,6.53,73,13.1,304.0,323.9,305.2
834.1,1709,15.5,5.0,50,6.58,73,13.2,304.0,324.0,305.2
833.6,1713,15.4,5.0,50,6.58,73,13.2,303.9,324.0,305.1
833.1,1718,15.4,4.8,49,6.50,73,13.2,304.0,323.8,305.1
832.6,1723,15.3,4.6,49,6.38,73,13.3,304.0,323.5,305.2
832.2,1728,15.3,4.4,48,6.29,73,13.3,304.0,323.2,305.2
831.7,1732,15.3,4.3,48,6.26,73,13.4,304.0,323.2,305.2
831.3,1737,15.3,4.3,48,6.25,73,13.4,304.1,323.2,305.2
830.8,1741,15.2,4.2,48,6.24,73,13.5,304.1,323.2,305.2
830.4,1746,15.2,4.2,48,6.23,73,13.5,304.1,323.2,305.2
829.9,1750,15.2,4.1,48,6.22,73,13.6,304.1,323.1,305.2
829.5,1755,15.2,4.0,47,6.17,73,13.7,304.1,323.0,305.3
829.0,1760,15.2,3.8,47,6.08,74,13.7,304.2,322.8,305.3
828.5,1765,15.2,3.5,46,5.96,74,13.8,304.2,322.5,305.3
828.0,1770,15.1,3.1,44,5.79,74,13.9,304.3,322.0,305.3
827.5,1775,15.2,2.6,43,5.60,74,14.0,304.3,321.6,305.4
827.0,1780,15.2,2.2,41,5.42,74,14.1,304.4,321.2,305.4
826.6,1785,15.3,1.8,40,5.27,74,14.2,304.5,320.8,305.5
826.1,1790,15.3,1.5,39,5.17,74,14.3,304.6,320.6,305.6
825.7,1794,15.3,1.2,38,5.07,74,14.4,304.7,320.3,305.6
825.3,1798,15.3,0.9,38,4.96,75,14.5,304.8,320.1,305.7
824.8,1803,15.4,0.7,37,4.90,75,14.6,304.9,320.0,305.8
824.4,1807,15.4,0.7,37,4.89,75,14.7,304.9,320.1,305.8
824.0,1811,15.4,0.7,37,4.89,75,14.8,304.9,320.1,305.8
823.6,1816,15.4,0.7,37,4.90,75,14.9,305.0,320.2,305.9
823.1,1820,15.4,0.8,37,4.92,75,15.0,305.1,320.3,306.0
822.7,1825,15.4,0.8,37,4.95,75,15.1,305.1,320.5,306.0
822.3,1829,15.4,0.9,37,4.96,75,15.2,305.2,320.6,306.1
821.8,1834,15.4,0.9,37,4.99,75,15.3,305.2,320.7,306.1
821.4,1838,15.4,1.0,38,5.03,75,15.4,305.2,320.8,306.2
820.9,1843,15.4,1.2,38,5.09,75,15.5,305.3,321.1,306.2
820.5,1848,15.4,1.4,39,5.18,75,15.6,305.3,321.3,306.3
820.0,1853,15.4,1.7,39,5.27,75,15.6,305.3,321.6,306.3
819.5,1857,15.3,1.9,40,5.37,75,15.7,305.4,322.0,306.4
