PRES,HGHT,TEMP,DWPT,RELH,MIXR,DRCT,SPED,THTA,THTE,THTV
1013.5,31,24.9,22.2,85,16.87,88,8.4,296.9,345.8,299.9
1012.4,40,25.4,21.9,81,16.60,90,5.8,297.5,345.7,300.4
1011.8,46,25.5,22.0,81,16.66,91,5.1,297.7,346.1,300.6
1011.0,53,25.5,21.9,80,16.54,92,5.0,297.7,345.8,300.6
1010.4,57,25.5,21.7,80,16.43,92,5.4,297.8,345.6,300.7
1009.7,63,25.6,21.7,79,16.36,91,5.7,297.9,345.5,300.8
1009.0,70,25.5,21.6,79,16.31,91,6.1,297.9,345.4,300.8
1008.3,76,25.4,21.6,79,16.31,91,6.4,297.9,345.4,300.8
1007.6,82,25.4,21.6,80,16.33,91,6.6,297.9,345.4,300.8
1006.8,89,25.3,21.6,80,16.37,91,6.9,297.9,345.6,300.8
1006.1,95,25.3,21.6,80,16.37,90,7.1,297.9,345.6,300.8
1005.3,102,25.2,21.6,80,16.36,90,7.3,297.9,345.5,300.8
1004.5,109,25.1,21.6,81,16.36,90,7.5,297.9,345.6,300.8
1003.7,116,25.1,21.6,81,16.41,90,7.7,297.9,345.7,300.8
1002.9,123,25.0,21.6,81,16.43,90,7.8,297.9,345.8,300.8
1002.1,130,24.9,21.6,82,16.41,90,8.0,297.9,345.7,300.8
1001.4,137,24.9,21.6,82,16.43,89,8.1,297.9,345.8,300.8
1000.6,143,24.8,21.6,82,16.41,89,8.2,297.9,345.7,300.8
1000.0,149,24.7,21.5,82,16.31,89,8.2,297.9,345.4,300.8
999.9,150,24.7,21.4,82,16.29,89,8.3,297.9,345.3,300.8
999.2,156,24.7,21.3,82,16.20,89,8.4,297.9,345.1,300.8
998.5,162,24.6,21.3,82,16.17,89,8.5,297.9,345.0,300.8
997.8,168,24.6,21.3,82,16.15,89,8.5,297.9,344.9,300.8
997.1,174,24.5,21.2,82,16.14,89,8.6,297.9,344.9,300.8
996.5,180,24.4,21.2,82,16.08,89,8.6,297.9,344.7,300.7
995.8,186,24.4,21.1,82,16.05,89,8.6,297.9,344.6,300.7
995.1,192,24.3,21.1,82,16.06,89,8.7,297.9,344.6,300.7
994.4,198,24.2,21.1,83,16.06,88,8.7,297.9,344.6,300.7
993.7,204,24.2,21.1,83,16.04,88,8.7,297.9,344.6,300.7
993.0,210,24.1,21.0,83,16.01,88,8.7,297.9,344.5,300.7
992.4,216,24.1,21.0,83,16.01,88,8.7,297.9,344.5,300.7
991.8,222,24.0,21.0,83,16.03,89,8.7,297.9,344.5,300.7
991.1,227,24.0,21.0,84,16.04,89,8.7,297.9,344.6,300.7
990.5,232,23.9,21.0,84,16.03,89,8.8,297.9,344.5,300.7
989.9,238,23.9,21.0,84,16.04,89,8.8,297.9,344.6,300.7
989.4,243,23.8,21.1,85,16.08,89,8.8,297.9,344.7,300.7
988.8,248,23.8,21.1,85,16.11,89,8.8,297.9,344.8,300.7
988.2,253,23.7,21.1,85,16.13,89,8.8,297.8,344.8,300.7
987.6,259,23.6,21.1,86,16.14,89,8.8,297.8,344.9,300.7
987.0,264,23.6,21.1,86,16.14,89,8.8,297.9,344.9,300.7
986.4,269,23.5,21.1,86,16.13,90,8.8,297.9,344.8,300.7
985.8,275,23.5,21.0,86,16.12,90,8.8,297.9,344.8,300.7
985.2,280,23.4,21.0,86,16.09,90,8.8,297.9,344.7,300.7
984.6,285,23.4,21.0,86,16.07,90,8.8,297.8,344.6,300.7
984.0,291,23.3,21.0,87,16.08,90,8.8,297.8,344.7,300.7
983.4,296,23.3,21.0,87,16.12,90,8.9,297.9,344.8,300.7
982.8,302,23.2,21.0,87,16.15,90,8.9,297.9,344.9,300.7
982.1,307,23.2,21.0,88,16.15,90,8.9,297.9,344.9,300.7
981.5,313,23.1,21.0,88,16.15,90,8.9,297.9,344.9,300.7
980.9,319,23.1,21.0,88,16.16,90,8.9,297.9,344.9,300.7
980.2,324,23.0,21.0,88,16.17,90,8.9,297.9,345.0,300.7
979.6,330,23.0,21.0,89,16.16,90,8.9,297.9,344.9,300.7
978.9,336,22.9,20.9,89,16.14,90,8.9,297.9,344.9,300.7
978.3,341,22.9,21.0,89,16.16,90,8.9,297.9,344.9,300.7
977.7,347,22.8,21.0,90,16.22,90,8.9,297.9,345.1,300.7
977.0,353,22.7,21.0,90,16.23,90,8.9,297.9,345.1,300.8
976.4,358,22.7,20.9,90,16.19,90,8.9,297.9,345.0,300.7
975.8,364,22.6,20.9,90,16.10,90,9.0,297.9,344.8,300.7
975.1,370,22.6,20.8,90,16.05,90,9.0,297.9,344.6,300.7
974.5,375,22.6,20.7,89,15.99,90,9.0,297.9,344.5,300.7
973.9,381,22.5,20.7,89,15.95,90,9.0,297.9,344.4,300.8
973.3,386,22.5,20.6,89,15.92,89,9.0,297.9,344.3,300.8
972.8,391,22.4,20.6,89,15.90,89,9.0,297.9,344.2,300.8
972.2,396,22.4,20.6,90,15.89,89,9.0,297.9,344.2,300.8
971.7,400,22.4,20.6,90,15.90,89,9.1,297.9,344.3,300.8
971.2,405,22.3,20.6,90,15.95,88,9.1,297.9,344.4,300.8
970.6,410,22.3,20.7,91,16.01,88,9.1,297.9,344.6,300.8
970.1,415,22.2,20.7,91,16.06,88,9.1,297.9,344.7,300.8
969.5,420,22.2,20.7,91,16.07,87,9.1,297.9,344.7,300.8
969.0,425,22.1,20.7,91,16.03,87,9.2,297.9,344.6,300.8
968.4,430,22.1,20.6,91,15.97,87,9.2,297.9,344.4,300.8
967.8,436,22.0,20.5,91,15.91,86,9.2,297.9,344.3,300.8
967.2,441,22.0,20.5,91,15.91,86,9.2,297.9,344.3,300.8
966.6,446,21.9,20.6,92,15.96,85,9.3,297.9,344.4,300.8
966.0,451,21.9,20.6,93,16.03,85,9.3,297.9,344.6,300.8
965.5,457,21.8,20.6,93,16.07,85,9.3,297.9,344.7,300.8
964.9,462,21.8,20.6,93,16.07,84,9.3,297.9,344.7,300.8
964.3,467,21.7,20.6,94,16.06,84,9.4,297.9,344.7,300.8
963.8,472,21.7,20.6,94,16.06,84,9.4,297.9,344.7,300.8
963.3,477,21.6,20.6,94,16.06,83,9.4,297.9,344.7,300.8
962.8,481,21.6,20.6,94,16.02,83,9.5,297.9,344.6,300.8
962.3,486,21.5,20.4,94,15.90,83,9.5,297.9,344.2,300.7
961.8,490,21.5,20.2,93,15.71,82,9.6,297.9,343.7,300.7
961.3,494,21.5,20.0,91,15.47,82,9.6,298.0,343.0,300.7
960.8,499,21.6,19.8,90,15.31,82,9.6,298.1,342.7,300.8
960.3,503,21.6,19.8,89,15.28,82,9.7,298.2,342.7,300.9
959.8,508,21.6,19.8,90,15.32,82,9.7,298.2,342.8,300.9
959.3,512,21.5,19.8,90,15.34,81,9.8,298.2,342.9,300.9
958.8,517,21.5,19.8,90,15.32,81,9.8,298.2,342.8,300.9
958.2,522,21.4,19.8,90,15.32,81,9.8,298.2,342.9,300.9
957.7,527,21.4,19.8,91,15.33,81,9.8,298.2,342.9,300.9
957.2,532,21.3,19.8,91,15.33,81,9.9,298.2,342.9,300.9
956.6,537,21.3,19.7,91,15.29,81,9.9,298.2,342.7,300.9
956.1,541,21.2,19.7,91,15.24,81,9.9,298.2,342.6,300.9
955.6,546,21.2,19.6,91,15.19,81,9.9,298.2,342.5,300.9
955.1,551,21.2,19.5,90,15.12,81,10.0,298.2,342.3,300.9
954.6,555,21.2,19.5,90,15.11,81,10.0,298.3,342.3,301.0
954.1,559,21.1,19.5,91,15.16,81,10.0,298.3,342.5,301.0
953.7,564,21.1,19.5,91,15.16,81,10.0,298.2,342.5,301.0
953.2,568,21.1,19.4,90,15.08,81,10.0,298.3,342.3,301.0
952.7,573,21.1,19.4,90,15.02,81,10.0,298.3,342.2,301.0
952.2,577,21.0,19.3,90,14.99,81,10.0,298.3,342.1,301.0
951.7,582,21.0,19.3,90,14.97,81,10.0,298.3,342.0,301.0
951.2,587,21.0,19.3,90,14.98,81,9.9,298.3,342.1,301.0
950.6,591,20.9,19.3,91,14.99,81,9.9,298.3,342.1,301.0
950.1,596,20.9,19.3,91,14.95,81,9.9,298.3,342.0,301.0
949.6,601,20.8,19.2,90,14.89,81,9.9,298.4,341.8,301.0
949.0,606,20.8,19.1,90,14.84,81,9.9,298.4,341.7,301.0
948.5,611,20.8,19.1,90,14.82,81,9.9,298.4,341.7,301.0
947.9,616,20.7,19.1,90,14.85,81,9.9,298.4,341.8,301.1
947.3,621,20.7,19.2,91,14.92,81,9.9,298.4,342.0,301.1
946.8,627,20.6,19.2,92,14.97,81,9.9,298.4,342.1,301.1
946.2,632,20.6,19.2,92,14.97,81,9.9,298.4,342.1,301.1
945.6,637,20.5,19.1,92,14.91,81,9.9,298.4,341.9,301.1
945.0,643,20.5,19.0,91,14.82,81,10.0,298.4,341.6,301.0
944.4,648,20.4,18.9,91,14.73,81,10.0,298.4,341.4,301.1
943.9,653,20.4,18.8,91,14.66,81,10.0,298.4,341.3,301.1
943.3,658,20.4,18.8,91,14.66,81,10.0,298.5,341.3,301.1
942.8,663,20.4,18.9,91,14.72,81,10.1,298.5,341.5,301.1
942.2,669,20.3,19.0,92,14.79,81,10.1,298.5,341.7,301.1
941.7,674,20.2,19.0,92,14.82,81,10.2,298.5,341.8,301.1
941.1,679,20.2,19.0,93,14.83,81,10.2,298.5,341.8,301.1
940.6,684,20.2,18.9,93,14.80,81,10.3,298.5,341.7,301.1
940.0,689,20.1,18.8,92,14.72,81,10.4,298.5,341.4,301.1
939.5,694,20.1,18.7,92,14.57,81,10.4,298.5,341.1,301.1
938.9,699,20.1,18.5,91,14.43,81,10.5,298.5,340.7,301.1
938.4,704,20.1,18.4,90,14.35,81,10.6,298.6,340.5,301.2
937.8,709,20.1,18.4,90,14.33,81,10.6,298.6,340.5,301.2
937.3,714,20.0,18.4,90,14.33,81,10.7,298.6,340.5,301.2
936.7,719,20.0,18.3,90,14.31,81,10.8,298.6,340.5,301.2
936.2,724,19.9,18.3,90,14.28,81,10.9,298.7,340.4,301.2
935.7,729,19.9,18.3,90,14.28,81,10.9,298.7,340.4,301.2
935.2,733,19.9,18.3,91,14.32,82,11.0,298.7,340.6,301.3
934.7,738,19.8,18.3,91,14.34,82,11.1,298.7,340.6,301.3
934.2,743,19.8,18.3,91,14.33,82,11.2,298.7,340.6,301.3
933.7,747,19.8,18.2,91,14.27,82,11.2,298.7,340.5,301.3
933.2,752,19.8,18.2,90,14.19,82,11.3,298.8,340.3,301.3
932.7,757,19.7,18.1,90,14.15,82,11.4,298.8,340.1,301.3
932.1,762,19.7,18.0,90,14.11,83,11.4,298.8,340.1,301.3
931.6,766,19.7,18.0,90,14.09,83,11.5,298.8,340.0,301.3
931.1,771,19.6,18.0,90,14.06,83,11.5,298.8,339.9,301.3
930.7,775,19.6,17.9,90,14.04,84,11.6,298.8,339.9,301.3
930.2,780,19.5,17.9,90,14.04,84,11.6,298.8,339.9,301.3
929.7,784,19.5,17.9,91,14.06,84,11.6,298.8,339.9,301.3
929.2,789,19.5,18.0,91,14.07,85,11.7,298.8,340.0,301.3
928.7,793,19.4,17.9,91,14.05,85,11.7,298.8,339.9,301.3
928.2,798,19.4,17.8,91,13.99,85,11.7,298.9,339.8,301.4
927.7,803,19.4,17.8,90,13.94,86,11.8,298.9,339.7,301.4
927.2,807,19.4,17.7,90,13.92,86,11.8,298.9,339.6,301.4
926.7,812,19.4,17.7,90,13.89,87,11.8,298.9,339.6,301.4
926.1,817,19.3,17.7,90,13.88,87,11.8,298.9,339.6,301.4
925.6,822,19.3,17.7,91,13.87,88,11.8,298.9,339.5,301.4
925.0,828,19.2,17.6,91,13.86,89,11.8,298.9,339.5,301.4
924.5,832,19.1,17.6,91,13.87,89,11.8,298.9,339.5,301.4
924.0,837,19.1,17.7,91,13.88,89,11.7,298.9,339.6,301.4
923.5,842,19.0,17.7,92,13.90,90,11.7,298.9,339.6,301.4
923.0,847,19.0,17.7,92,13.90,90,11.7,298.9,339.6,301.4
922.5,852,19.0,17.6,92,13.87,91,11.7,298.9,339.5,301.4
922.0,856,18.9,17.6,92,13.87,91,11.7,298.9,339.6,301.4
921.5,860,19.0,17.7,92,13.95,92,11.7,299.0,339.9,301.5
921.1,865,18.9,17.7,93,13.98,92,11.6,299.0,340.0,301.5
920.6,869,18.9,17.7,93,13.97,93,11.6,299.0,340.0,301.5
920.2,873,18.9,17.7,93,13.97,93,11.6,299.0,340.0,301.5
919.8,876,18.8,17.7,93,13.98,93,11.6,299.0,340.0,301.5
919.4,880,18.8,17.7,93,13.98,94,11.6,299.0,340.0,301.5
919.0,884,18.8,17.7,93,13.97,94,11.6,299.1,340.0,301.6
918.6,888,18.8,17.6,93,13.95,94,11.5,299.1,340.0,301.6
918.1,892,18.7,17.6,93,13.89,94,11.5,299.1,339.8,301.6
917.7,897,18.7,17.5,93,13.84,95,11.5,299.1,339.7,301.6
917.2,901,18.7,17.5,93,13.84,95,11.5,299.1,339.7,301.6
916.7,905,18.7,17.6,93,13.91,95,11.5,299.2,339.9,301.7
916.2,910,18.6,17.7,94,14.00,95,11.5,299.1,340.2,301.6
915.7,915,18.5,17.8,95,14.12,95,11.5,299.1,340.5,301.6
915.2,920,18.5,17.8,96,14.17,95,11.5,299.1,340.6,301.6
914.7,925,18.4,17.8,96,14.13,95,11.5,299.0,340.4,301.6
914.1,930,18.3,17.6,96,13.99,95,11.5,299.0,340.0,301.5
913.6,935,18.3,17.4,94,13.78,95,11.5,299.1,339.5,301.5
913.1,940,18.3,17.3,93,13.69,95,11.5,299.2,339.3,301.6
912.5,945,18.4,17.4,94,13.81,95,11.5,299.2,339.7,301.7
912.0,950,18.2,17.6,96,13.98,95,11.4,299.1,340.1,301.6
911.5,954,18.1,17.6,97,14.05,95,11.4,299.1,340.2,301.6
911.1,959,18.0,17.6,97,13.99,95,11.4,299.0,340.0,301.5
910.6,963,18.0,17.4,96,13.83,95,11.4,299.0,339.5,301.5
910.2,967,18.0,17.2,95,13.69,95,11.3,299.1,339.2,301.5
909.8,971,18.0,17.1,94,13.62,95,11.3,299.2,339.1,301.6
909.4,975,18.1,17.1,94,13.64,95,11.3,299.2,339.2,301.7
909.0,978,18.1,17.2,95,13.68,95,11.2,299.2,339.3,301.7
908.6,982,18.0,17.2,95,13.71,94,11.2,299.3,339.5,301.7
908.2,986,18.0,17.2,95,13.73,94,11.2,299.3,339.5,301.7
907.8,990,18.0,17.1,95,13.68,94,11.1,299.3,339.4,301.7
907.3,994,17.9,17.1,95,13.61,94,11.1,299.3,339.2,301.7
906.9,998,17.9,17.0,94,13.55,94,11.0,299.3,339.1,301.7
906.4,1003,17.9,17.0,94,13.57,93,11.0,299.3,339.1,301.8
905.9,1007,17.8,17.0,95,13.62,93,11.0,299.3,339.3,301.8
905.4,1012,17.8,17.1,96,13.68,93,11.0,299.3,339.5,301.8
904.9,1017,17.8,17.1,96,13.71,92,11.0,299.3,339.5,301.8
904.4,1021,17.6,17.0,96,13.63,92,10.9,299.3,339.2,301.7
903.9,1026,17.6,16.9,95,13.49,92,10.9,299.3,338.9,301.7
903.4,1031,17.7,16.7,94,13.39,91,11.0,299.4,338.6,301.8
902.9,1036,17.7,16.8,94,13.41,91,11.0,299.4,338.8,301.8
902.4,1041,17.6,16.9,96,13.51,91,11.0,299.4,339.0,301.8
901.9,1045,17.5,16.9,97,13.56,90,11.0,299.3,339.1,301.7
901.4,1050,17.4,16.9,97,13.57,90,11.0,299.3,339.1,301.7
901.0,1055,17.4,16.9,97,13.61,90,11.1,299.3,339.2,301.7
900.5,1059,17.3,17.0,98,13.64,89,11.1,299.3,339.3,301.7
900.0,1064,17.3,17.0,98,13.69,89,11.2,299.3,339.5,301.8
899.4,1069,17.3,17.0,99,13.70,89,11.2,299.3,339.5,301.8
898.9,1074,17.2,17.0,99,13.70,89,11.2,299.4,339.5,301.8
898.4,1079,17.2,17.0,99,13.69,88,11.3,299.4,339.5,301.8
897.8,1085,17.2,16.9,98,13.65,88,11.3,299.4,339.4,301.9
897.2,1090,17.1,16.9,99,13.64,88,11.4,299.4,339.4,301.9
896.6,1096,17.1,16.9,99,13.65,88,11.4,299.5,339.5,301.9
896.0,1102,17.1,16.9,99,13.66,88,11.4,299.5,339.6,302.0
895.3,1108,17.1,16.9,99,13.66,88,11.4,299.5,339.6,302.0
894.7,1115,17.0,16.9,99,13.64,88,11.4,299.5,339.6,302.0
894.0,1121,17.0,16.9,99,13.64,88,11.4,299.5,339.6,302.0
893.3,1127,17.0,16.9,100,13.70,88,11.4,299.6,339.9,302.1
892.7,1134,17.0,16.9,100,13.74,88,11.3,299.7,340.0,302.2
892.0,1140,16.9,16.9,100,13.68,89,11.3,299.7,339.9,302.2
891.3,1146,16.9,16.8,99,13.63,89,11.2,299.7,339.7,302.2
890.7,1153,16.8,16.7,100,13.57,89,11.2,299.7,339.6,302.1
890.0,1159,16.8,16.7,100,13.58,89,11.1,299.7,339.6,302.2
889.4,1165,16.8,16.8,100,13.67,89,11.0,299.8,340.0,302.3
888.8,1171,16.8,16.7,100,13.60,89,10.9,299.8,339.8,302.3
888.2,1177,16.7,16.7,100,13.62,89,10.8,299.9,339.9,302.3
887.6,1183,16.8,16.8,100,13.66,89,10.7,300.0,340.1,302.4
887.0,1188,16.8,16.8,100,13.67,89,10.7,300.0,340.2,302.5
886.5,1193,16.8,16.8,100,13.72,89,10.6,300.1,340.5,302.6
885.9,1199,16.7,16.7,100,13.63,89,10.5,300.1,340.2,302.5
885.4,1204,16.6,16.5,100,13.49,89,10.4,300.0,339.6,302.4
884.9,1208,16.5,16.5,100,13.44,89,10.4,299.9,339.4,302.3
884.4,1213,16.5,16.5,100,13.43,89,10.3,299.9,339.5,302.4
884.0,1218,16.4,16.4,100,13.43,89,10.3,300.0,339.5,302.4
883.5,1222,16.4,16.3,100,13.33,89,10.2,299.9,339.2,302.3
883.0,1226,16.3,16.2,99,13.25,88,10.2,299.9,338.9,302.3
882.6,1231,16.3,16.1,99,13.16,88,10.2,299.9,338.6,302.3
882.1,1235,16.2,16.0,99,13.11,88,10.2,299.9,338.5,302.3
881.6,1240,16.3,16.0,99,13.11,88,10.2,300.0,338.6,302.4
881.1,1245,16.2,15.8,97,12.94,88,10.2,300.0,338.1,302.4
880.6,1250,16.2,15.4,95,12.56,88,10.2,300.0,337.0,302.3
880.1,1255,16.1,14.9,92,12.22,89,10.2,300.0,336.0,302.2
879.6,1260,16.2,14.7,91,12.07,89,10.2,300.1,335.7,302.3
879.0,1265,16.2,14.7,91,12.06,89,10.3,300.3,335.8,302.4
878.5,1271,16.2,14.8,91,12.11,89,10.3,300.3,336.0,302.5
877.9,1276,16.2,14.8,91,12.15,89,10.3,300.3,336.2,302.5
877.4,1282,16.2,14.8,92,12.18,90,10.4,300.4,336.3,302.6
876.8,1287,16.2,14.8,91,12.17,90,10.4,300.4,336.3,302.6
876.2,1293,16.2,14.7,91,12.11,91,10.4,300.4,336.2,302.6
875.6,1298,16.1,14.7,91,12.07,91,10.5,300.5,336.1,302.7
875.0,1304,16.1,14.6,91,12.04,92,10.5,300.5,336.1,302.7
874.4,1310,16.1,14.5,90,11.93,92,10.5,300.5,335.8,302.7
873.9,1316,16.1,14.2,89,11.75,93,10.6,300.6,335.3,302.7
873.3,1321,16.1,14.0,87,11.59,93,10.6,300.7,334.9,302.8
872.7,1327,16.1,13.9,87,11.54,94,10.6,300.7,334.8,302.8
872.1,1333,16.1,13.9,87,11.52,94,10.7,300.8,334.9,302.9
871.6,1338,16.1,13.9,87,11.52,95,10.7,300.8,334.9,302.9
871.0,1343,16.1,13.9,87,11.51,95,10.7,300.9,335.0,303.0
870.5,1349,16.1,13.9,87,11.52,96,10.8,300.9,335.0,303.0
870.0,1354,16.1,13.9,87,11.53,96,10.8,300.9,335.1,303.0
869.4,1359,16.0,13.9,87,11.53,97,10.8,301.0,335.1,303.1
869.0,1364,16.0,13.8,87,11.51,97,10.8,301.0,335.1,303.1
868.5,1368,16.0,13.8,87,11.48,97,10.9,301.0,335.0,303.1
868.0,1373,16.0,13.7,86,11.43,97,10.9,301.1,334.9,303.1
867.5,1378,16.0,13.6,86,11.38,98,11.0,301.1,334.8,303.2
867.0,1383,16.0,13.6,86,11.34,98,11.0,301.1,334.7,303.2
866.5,1388,15.9,13.5,86,11.31,98,11.0,301.2,334.7,303.2
866.0,1392,15.9,13.4,85,11.24,98,11.1,301.2,334.5,303.2
865.5,1397,15.9,13.3,85,11.17,98,11.1,301.2,334.4,303.3
865.0,1402,15.9,13.2,84,11.10,98,11.2,301.2,334.2,303.3
864.5,1407,15.8,13.1,84,11.02,98,11.2,301.3,334.0,303.3
864.0,1412,15.8,13.1,84,11.00,98,11.3,301.3,333.9,303.3
863.5,1417,15.8,13.1,84,11.02,98,11.3,301.3,334.0,303.3
863.1,1422,15.8,13.1,84,11.04,98,11.4,301.3,334.1,303.3
862.6,1426,15.7,13.1,84,11.05,98,11.4,301.4,334.1,303.4
862.1,1431,15.7,13.1,84,11.02,98,11.5,301.4,334.1,303.4
861.6,1436,15.8,13.1,84,11.05,98,11.5,301.5,334.3,303.5
861.1,1441,15.8,13.1,84,11.04,98,11.6,301.6,334.4,303.6
860.7,1445,15.8,13.0,84,10.99,98,11.7,301.6,334.2,303.6
860.2,1450,15.7,13.0,84,10.98,98,11.7,301.6,334.2,303.5
859.7,1455,15.7,13.0,84,11.00,98,11.7,301.6,334.3,303.6
859.2,1460,15.7,13.0,84,11.05,98,11.8,301.6,334.4,303.6
858.7,1465,15.6,13.1,85,11.08,98,11.8,301.6,334.5,303.6
858.2,1470,15.6,13.1,85,11.08,98,11.9,301.6,334.5,303.6
857.6,1476,15.5,13.0,85,11.06,98,11.9,301.6,334.5,303.6
857.0,1481,15.5,13.0,85,11.03,98,11.9,301.6,334.4,303.6
856.5,1487,15.4,12.9,85,11.00,98,12.0,301.6,334.3,303.6
855.9,1492,15.3,12.9,85,10.99,98,12.0,301.6,334.3,303.6
855.3,1498,15.3,12.9,86,11.00,98,12.0,301.6,334.3,303.6
854.7,1504,15.2,12.9,86,11.03,98,12.1,301.6,334.4,303.6
854.2,1510,15.2,13.0,87,11.07,98,12.1,301.6,334.5,303.6
853.6,1515,15.1,13.0,87,11.06,97,12.1,301.6,334.5,303.6
853.0,1521,15.1,12.9,87,11.00,97,12.1,301.6,334.3,303.6
852.5,1526,15.0,12.8,87,10.96,97,12.1,301.6,334.2,303.6
852.0,1531,15.0,12.8,87,10.96,97,12.1,301.6,334.2,303.6
851.5,1536,14.9,12.8,87,10.97,97,12.1,301.6,334.2,303.6
851.1,1540,14.9,12.8,87,10.97,96,12.2,301.7,334.3,303.6
850.6,1545,14.9,12.8,87,10.99,96,12.2,301.7,334.4,303.7
850.2,1549,14.9,12.8,88,11.03,96,12.2,301.7,334.5,303.7
850.0,1551,14.9,12.8,88,11.03,95,12.1,301.7,334.5,303.7
849.8,1554,14.8,12.9,88,11.04,95,12.1,301.7,334.5,303.7
849.3,1558,14.8,12.8,88,11.00,95,12.1,301.7,334.4,303.7
848.8,1563,14.8,12.7,88,10.96,95,12.1,301.7,334.3,303.7
848.3,1568,14.7,12.6,87,10.90,94,12.1,301.7,334.2,303.7
847.8,1573,14.7,12.5,87,10.83,94,12.1,301.8,334.0,303.7
847.3,1579,14.7,12.5,87,10.80,93,12.1,301.8,333.9,303.8
846.7,1584,14.7,12.4,87,10.78,93,12.0,301.8,333.9,303.8
846.2,1589,14.6,12.4,87,10.78,92,12.0,301.8,333.9,303.8
845.7,1594,14.5,12.4,87,10.79,92,12.0,301.8,333.9,303.8
845.2,1599,14.5,12.4,87,10.79,92,11.9,301.8,333.9,303.8
844.7,1604,14.5,12.4,87,10.76,91,11.9,301.9,333.9,303.8
844.3,1608,14.4,12.3,87,10.74,91,11.8,301.8,333.8,303.8
843.9,1613,14.4,12.3,87,10.72,90,11.8,301.8,333.8,303.8
843.4,1617,14.4,12.3,87,10.73,90,11.7,301.9,333.8,303.8
843.0,1621,14.3,12.3,88,10.74,89,11.7,301.9,333.8,303.8
842.6,1626,14.3,12.3,88,10.75,89,11.6,301.9,333.8,303.8
842.1,1630,14.3,12.2,88,10.68,89,11.6,301.9,333.7,303.8
841.6,1635,14.3,12.1,87,10.58,88,11.5,301.9,333.4,303.8
841.2,1640,14.3,12.0,86,10.52,88,11.4,302.0,333.3,303.9
840.7,1645,14.3,11.9,86,10.46,88,11.4,302.0,333.2,303.9
840.2,1650,14.3,11.8,85,10.39,87,11.3,302.1,333.0,303.9
839.7,1655,14.2,11.7,85,10.33,87,11.3,302.1,332.9,304.0
839.2,1660,14.3,11.6,84,10.30,87,11.2,302.2,332.9,304.0
838.7,1665,14.3,11.6,84,10.32,87,11.2,302.2,333.0,304.1
838.1,1670,14.2,11.7,85,10.35,86,11.1,302.2,333.1,304.1
837.6,1676,14.2,11.7,85,10.35,86,11.1,302.2,333.1,304.1
837.0,1681,14.1,11.6,85,10.29,86,11.0,302.2,332.9,304.1
836.5,1687,14.0,11.4,84,10.21,85,11.0,302.2,332.7,304.1
836.0,1692,14.0,11.4,84,10.15,85,10.9,302.2,332.5,304.1
835.4,1698,14.0,11.3,84,10.14,85,10.9,302.3,332.5,304.1
834.9,1703,13.9,11.4,84,10.17,84,10.9,302.3,332.6,304.1
834.4,1708,13.9,11.4,85,10.19,84,10.8,302.3,332.7,304.1
833.9,1714,13.8,11.3,85,10.17,84,10.8,302.3,332.6,304.1
833.3,1719,13.8,11.3,84,10.12,83,10.8,302.3,332.5,304.2
832.8,1724,13.8,11.2,84,10.08,83,10.7,302.3,332.4,304.2
832.3,1729,13.8,11.2,84,10.07,83,10.7,302.4,332.5,304.2
831.9,1734,13.7,11.2,85,10.08,82,10.7,302.4,332.5,304.2
831.4,1739,13.7,11.2,84,10.08,82,10.7,302.4,332.5,304.3
830.9,1743,13.7,11.1,84,10.04,82,10.6,302.5,332.5,304.3
830.5,1748,13.7,11.1,84,10.02,81,10.6,302.5,332.5,304.3
830.1,1752,13.7,11.1,84,10.05,81,10.5,302.5,332.6,304.3
829.6,1757,13.7,11.2,85,10.11,81,10.5,302.5,332.8,304.4
829.2,1761,13.6,11.2,85,10.15,81,10.4,302.5,332.9,304.4
828.8,1765,13.6,11.3,86,10.18,80,10.4,302.5,332.9,304.4
828.3,1770,13.5,11.2,86,10.17,80,10.3,302.5,332.9,304.4
827.9,1774,13.5,11.2,86,10.14,80,10.3,302.5,332.8,304.4
827.5,1778,13.4,11.2,86,10.12,80,10.2,302.5,332.8,304.4
827.1,1783,13.4,11.2,86,10.13,80,10.2,302.5,332.8,304.4
826.6,1787,13.4,11.2,86,10.13,80,10.1,302.5,332.8,304.4
826.2,1791,13.3,11.1,87,10.13,80,10.0,302.5,332.8,304.4
825.8,1796,13.3,11.1,87,10.11,80,10.0,302.5,332.7,304.3
825.4,1800,13.2,11.1,87,10.12,81,9.9,302.5,332.7,304.3
824.9,1805,13.2,11.2,88,10.16,81,9.8,302.5,332.9,304.3
824.5,1809,13.1,11.2,88,10.20,81,9.8,302.5,333.0,304.3
824.0,1814,13.1,11.2,89,10.23,81,9.7,302.5,333.0,304.3
823.6,1818,13.0,11.3,89,10.24,82,9.7,302.5,333.1,304.4
823.1,1823,13.0,11.2,89,10.22,82,9.6,302.5,333.1,304.4
822.7,1828,13.0,11.2,89,10.18,82,9.6,302.5,333.0,304.4
822.2,1833,13.0,11.3,89,10.26,83,9.6,302.6,333.2,304.4
821.7,1838,12.9,11.3,90,10.32,83,9.5,302.6,333.4,304.5
821.2,1843,12.9,11.3,90,10.30,83,9.5,302.6,333.4,304.5
820.7,1848,12.8,11.3,90,10.27,84,9.5,302.6,333.3,304.5
