PRES,HGHT,TEMP,DWPT,RELH,MIXR,DRCT,SPED,THTA,THTE,THTV
1011.6,31,23.8,20.2,80,14.86,166,9.1,296.0,338.9,298.6
1011.0,36,24.0,20.0,78,14.67,168,5.9,296.2,338.7,298.8
1010.5,40,24.1,19.9,77,14.59,168,5.3,296.3,338.6,298.9
1009.9,46,24.1,19.8,77,14.56,169,5.4,296.4,338.5,299.0
1009.2,51,24.0,19.7,77,14.50,169,5.9,296.4,338.4,299.0
1008.6,56,24.0,19.7,77,14.43,169,6.4,296.4,338.2,299.0
1008.1,61,24.0,19.6,77,14.38,169,6.8,296.4,338.1,299.0
1007.3,68,23.9,19.5,77,14.35,169,7.2,296.4,338.0,299.0
1006.7,73,23.8,19.5,77,14.29,169,7.6,296.4,337.8,299.0
1006.0,79,23.8,19.4,77,14.26,169,7.9,296.4,337.7,299.0
1005.3,85,23.7,19.4,77,14.24,169,8.3,296.4,337.7,299.0
1004.7,91,23.7,19.4,77,14.24,169,8.6,296.4,337.7,299.0
1004.0,97,23.6,19.4,77,14.23,169,8.9,296.4,337.7,299.0
1003.3,103,23.6,19.3,77,14.20,169,9.2,296.5,337.6,299.0
1002.6,108,23.5,19.3,77,14.15,169,9.4,296.5,337.5,299.0
1002.0,114,23.5,19.2,77,14.09,168,9.6,296.5,337.3,299.0
1001.3,120,23.5,19.1,76,14.02,168,9.8,296.5,337.2,299.0
1000.6,126,23.5,19.0,76,13.97,168,10.0,296.5,337.0,299.0
1000.0,132,23.4,19.0,76,13.95,168,10.0,296.6,337.0,299.0
999.9,132,23.4,19.0,76,13.95,168,10.1,296.6,337.0,299.0
999.2,138,23.4,19.0,77,13.98,167,10.3,296.6,337.1,299.1
998.5,144,23.3,19.0,77,14.02,167,10.4,296.6,337.2,299.1
997.9,150,23.2,19.1,77,14.07,167,10.5,296.6,337.3,299.1
997.2,156,23.2,19.1,78,14.10,166,10.5,296.5,337.4,299.1
996.5,162,23.1,19.2,78,14.16,166,10.6,296.5,337.6,299.1
995.9,168,23.1,19.2,79,14.24,166,10.6,296.5,337.8,299.1
995.3,173,23.0,19.3,80,14.32,165,10.7,296.6,338.1,299.1
994.7,178,23.0,19.3,80,14.34,165,10.7,296.5,338.1,299.1
994.1,183,22.9,19.3,80,14.36,164,10.7,296.5,338.1,299.1
993.6,188,22.8,19.4,81,14.44,164,10.7,296.5,338.4,299.1
993.0,193,22.8,19.6,82,14.57,164,10.7,296.5,338.7,299.1
992.5,197,22.8,19.6,83,14.65,163,10.7,296.5,339.0,299.1
992.0,202,22.7,19.7,83,14.68,163,10.7,296.5,339.1,299.1
991.4,207,22.7,19.6,83,14.68,163,10.6,296.5,339.1,299.1
990.9,212,22.6,19.6,83,14.65,162,10.6,296.5,339.0,299.1
990.3,217,22.6,19.6,83,14.61,162,10.6,296.5,338.9,299.1
989.8,222,22.5,19.5,83,14.61,162,10.6,296.5,338.8,299.1
989.2,227,22.5,19.6,84,14.64,162,10.6,296.5,339.0,299.1
988.6,232,22.4,19.6,84,14.71,161,10.5,296.5,339.1,299.2
988.1,237,22.4,19.7,85,14.74,161,10.5,296.5,339.3,299.2
987.5,242,22.3,19.7,85,14.74,161,10.5,296.5,339.3,299.2
986.9,246,22.3,19.6,85,14.73,161,10.5,296.5,339.2,299.2
986.4,251,22.2,19.6,85,14.70,161,10.5,296.5,339.1,299.1
985.8,256,22.2,19.6,85,14.68,161,10.5,296.5,339.0,299.1
985.3,261,22.1,19.6,85,14.69,161,10.4,296.5,339.1,299.1
984.7,266,22.1,19.6,86,14.70,161,10.4,296.5,339.1,299.2
984.2,271,22.1,19.4,85,14.60,161,10.4,296.5,338.8,299.1
983.6,276,22.0,19.2,84,14.35,161,10.4,296.6,338.1,299.1
983.1,280,22.0,18.9,83,14.15,161,10.4,296.6,337.6,299.1
982.6,285,21.9,19.0,83,14.17,161,10.4,296.6,337.6,299.1
982.1,290,21.9,19.1,84,14.27,161,10.4,296.6,337.9,299.1
981.6,294,21.8,19.1,84,14.30,161,10.4,296.6,338.0,299.1
981.1,298,21.8,19.1,84,14.29,161,10.4,296.6,338.0,299.1
980.7,302,21.8,19.0,84,14.22,161,10.4,296.6,337.8,299.1
980.3,306,21.7,18.9,84,14.13,161,10.4,296.6,337.5,299.1
979.8,310,21.7,18.8,84,14.11,161,10.4,296.6,337.5,299.1
979.4,313,21.7,18.9,84,14.15,161,10.4,296.6,337.6,299.1
978.9,317,21.6,18.9,84,14.18,161,10.4,296.6,337.7,299.1
978.5,321,21.6,18.9,85,14.21,162,10.4,296.6,337.7,299.1
978.0,326,21.5,18.9,85,14.21,162,10.4,296.6,337.8,299.1
977.6,330,21.5,18.9,85,14.22,162,10.4,296.6,337.8,299.1
977.1,334,21.5,19.0,86,14.27,162,10.4,296.6,337.9,299.1
976.6,338,21.4,19.0,86,14.34,162,10.4,296.5,338.1,299.1
976.1,343,21.4,19.0,87,14.32,162,10.4,296.5,338.0,299.1
975.5,348,21.3,18.9,86,14.19,162,10.4,296.6,337.7,299.1
975.0,352,21.3,18.7,85,14.08,163,10.3,296.6,337.4,299.1
974.5,357,21.3,18.7,85,14.05,163,10.3,296.6,337.3,299.1
974.0,362,21.2,18.7,86,14.06,163,10.3,296.6,337.3,299.1
973.5,366,21.2,18.7,86,14.06,163,10.3,296.6,337.3,299.1
973.0,371,21.1,18.7,86,14.07,163,10.3,296.6,337.3,299.1
972.4,375,21.1,18.7,86,14.07,164,10.3,296.6,337.4,299.1
971.9,380,21.0,18.7,86,14.07,164,10.2,296.6,337.4,299.1
971.4,385,21.0,18.7,87,14.09,164,10.2,296.6,337.4,299.1
970.9,389,20.9,18.7,87,14.13,164,10.2,296.6,337.5,299.1
970.4,394,20.9,18.8,88,14.20,165,10.2,296.6,337.7,299.1
969.8,399,20.9,18.9,88,14.28,165,10.2,296.6,338.0,299.1
969.3,404,20.8,18.9,89,14.35,165,10.2,296.6,338.2,299.1
968.7,409,20.7,19.0,90,14.38,165,10.2,296.6,338.2,299.1
968.2,413,20.7,18.9,90,14.36,166,10.2,296.6,338.2,299.1
967.7,418,20.6,18.9,90,14.33,166,10.2,296.5,338.1,299.1
967.2,423,20.6,18.9,90,14.33,166,10.2,296.5,338.1,299.1
966.7,427,20.5,18.9,90,14.39,166,10.2,296.5,338.2,299.1
966.2,432,20.5,19.0,91,14.46,166,10.2,296.6,338.4,299.1
965.7,436,20.5,19.0,91,14.48,166,10.2,296.6,338.5,299.1
965.2,440,20.4,19.0,91,14.43,167,10.2,296.6,338.4,299.1
964.7,445,20.4,18.8,91,14.32,167,10.2,296.6,338.0,299.1
964.2,450,20.3,18.7,90,14.22,167,10.2,296.6,337.7,299.1
963.6,454,20.3,18.7,90,14.18,167,10.2,296.6,337.7,299.1
963.1,459,20.3,18.6,90,14.17,167,10.2,296.6,337.6,299.1
962.6,464,20.2,18.6,90,14.17,167,10.2,296.6,337.7,299.1
962.0,469,20.2,18.6,91,14.15,167,10.2,296.6,337.6,299.1
961.5,474,20.1,18.6,91,14.12,167,10.2,296.6,337.5,299.1
960.9,479,20.1,18.6,91,14.18,167,10.3,296.6,337.7,299.1
960.3,484,20.0,18.7,92,14.30,167,10.3,296.6,338.0,299.1
959.7,489,20.0,18.9,93,14.44,167,10.3,296.6,338.4,299.1
959.1,495,19.9,19.0,95,14.57,167,10.3,296.5,338.7,299.1
958.6,500,19.8,19.0,95,14.58,167,10.3,296.5,338.8,299.1
958.0,505,19.8,18.9,95,14.54,167,10.3,296.5,338.6,299.1
957.4,510,19.7,18.9,95,14.51,167,10.3,296.5,338.6,299.1
956.9,515,19.7,18.9,95,14.52,167,10.3,296.5,338.6,299.1
956.3,520,19.6,18.9,95,14.52,167,10.3,296.5,338.6,299.1
955.8,525,19.6,18.8,95,14.47,167,10.3,296.5,338.4,299.1
955.3,530,19.5,18.7,95,14.37,167,10.3,296.5,338.2,299.1
954.7,535,19.5,18.6,95,14.27,167,10.3,296.5,337.9,299.1
954.2,539,19.5,18.5,94,14.16,167,10.3,296.6,337.6,299.1
953.7,544,19.4,18.4,94,14.08,167,10.3,296.6,337.4,299.1
953.2,549,19.4,18.4,94,14.08,167,10.4,296.6,337.4,299.1
952.7,553,19.4,18.5,94,14.17,168,10.4,296.6,337.6,299.1
952.1,558,19.3,18.5,95,14.25,168,10.4,296.6,337.9,299.1
951.6,563,19.3,18.6,96,14.29,168,10.4,296.6,338.0,299.1
951.0,568,19.2,18.5,96,14.27,168,10.4,296.6,337.9,299.1
950.5,573,19.2,18.5,96,14.26,168,10.5,296.6,337.9,299.1
950.0,578,19.1,18.5,96,14.25,168,10.5,296.6,337.9,299.1
949.4,583,19.1,18.5,96,14.24,168,10.5,296.6,337.8,299.1
948.9,587,19.0,18.4,96,14.19,169,10.6,296.6,337.7,299.1
948.4,592,19.0,18.4,96,14.15,169,10.6,296.6,337.6,299.1
947.9,597,18.9,18.3,96,14.11,169,10.6,296.6,337.5,299.1
947.3,602,18.9,18.2,96,14.06,169,10.7,296.6,337.3,299.1
946.8,607,18.9,18.2,96,14.06,170,10.7,296.6,337.3,299.1
946.2,612,18.8,18.3,97,14.08,170,10.7,296.6,337.4,299.1
945.7,617,18.8,18.2,96,14.01,170,10.8,296.6,337.2,299.1
945.1,622,18.7,18.1,96,13.92,170,10.8,296.6,337.0,299.1
944.5,628,18.7,18.1,96,13.97,170,10.8,296.7,337.1,299.1
943.8,633,18.7,18.3,98,14.13,170,10.9,296.7,337.6,299.2
943.2,639,18.6,18.4,99,14.22,171,10.9,296.6,337.9,299.2
942.6,645,18.5,18.3,99,14.19,171,10.9,296.6,337.8,299.2
941.9,651,18.5,18.3,99,14.16,171,10.9,296.7,337.7,299.2
941.2,657,18.4,18.2,99,14.12,171,11.0,296.7,337.6,299.2
940.6,663,18.4,18.2,99,14.13,171,11.0,296.7,337.7,299.2
939.9,670,18.4,18.3,99,14.19,171,11.0,296.8,337.9,299.3
939.2,676,18.4,18.3,99,14.21,171,11.0,296.8,338.1,299.4
938.6,682,18.4,18.3,99,14.22,171,11.1,296.8,338.1,299.4
937.9,688,18.3,18.3,100,14.25,172,11.1,296.9,338.2,299.4
937.2,694,18.3,18.3,100,14.28,172,11.1,296.9,338.4,299.5
936.6,700,18.3,18.3,100,14.25,172,11.2,297.0,338.3,299.5
935.9,706,18.3,18.2,100,14.21,172,11.2,297.0,338.2,299.5
935.3,712,18.3,18.2,100,14.20,172,11.2,297.0,338.2,299.6
934.6,718,18.3,18.2,99,14.21,172,11.3,297.1,338.4,299.6
934.0,724,18.3,18.2,99,14.21,173,11.3,297.2,338.4,299.7
933.3,730,18.2,18.2,100,14.21,173,11.4,297.2,338.5,299.7
932.6,737,18.2,18.2,100,14.20,173,11.5,297.2,338.5,299.8
931.9,743,18.2,18.1,100,14.20,174,11.5,297.3,338.5,299.8
931.2,749,18.2,18.1,100,14.19,174,11.6,297.3,338.5,299.8
930.5,756,18.1,18.1,100,14.18,174,11.6,297.3,338.6,299.9
929.9,762,18.1,18.1,100,14.15,175,11.7,297.4,338.5,299.9
929.2,768,18.1,18.0,99,14.13,175,11.8,297.4,338.5,299.9
928.6,773,18.1,18.0,99,14.09,175,11.8,297.5,338.4,300.0
928.0,779,18.1,17.9,99,14.06,176,11.9,297.5,338.4,300.0
927.5,784,18.0,17.8,99,13.99,176,11.9,297.5,338.2,300.0
927.0,789,17.9,17.7,99,13.85,177,12.0,297.4,337.7,299.9
926.5,793,17.7,17.5,99,13.69,177,12.1,297.2,337.0,299.7
926.0,798,17.6,17.6,99,13.77,178,12.1,297.2,337.3,299.7
925.5,802,17.7,17.7,100,13.88,178,12.1,297.3,337.7,299.8
925.0,807,17.6,17.6,100,13.85,179,12.2,297.3,337.6,299.8
924.6,811,17.7,17.6,100,13.85,179,12.2,297.4,337.7,299.9
924.1,815,17.7,17.7,100,13.91,179,12.2,297.5,338.0,300.0
923.7,819,17.7,17.6,99,13.83,180,12.3,297.5,337.7,300.0
923.2,824,17.4,17.2,98,13.50,180,12.3,297.3,336.5,299.7
922.8,828,17.2,16.9,98,13.28,181,12.3,297.1,335.7,299.5
922.3,832,17.3,17.0,98,13.33,181,12.3,297.2,336.0,299.6
921.9,836,17.3,16.8,97,13.13,181,12.3,297.3,335.4,299.6
921.4,841,17.1,16.2,94,12.68,182,12.2,297.1,334.0,299.4
920.9,845,17.0,16.0,94,12.51,182,12.2,297.0,333.4,299.3
920.4,850,16.9,16.0,94,12.48,182,12.2,297.0,333.3,299.3
919.9,854,16.9,15.8,93,12.33,182,12.1,297.1,333.0,299.3
919.4,859,17.0,15.5,91,12.16,183,12.1,297.2,332.6,299.3
918.9,864,17.0,15.4,91,12.08,183,12.1,297.2,332.4,299.4
918.4,868,16.9,15.3,90,12.02,183,12.0,297.2,332.2,299.4
917.9,873,16.9,15.3,90,11.99,183,12.0,297.2,332.2,299.4
917.4,877,16.9,15.3,90,11.97,183,11.9,297.3,332.1,299.4
917.0,882,16.9,15.3,90,11.99,183,11.8,297.3,332.2,299.4
916.5,886,16.8,15.3,91,12.01,183,11.8,297.3,332.3,299.4
916.0,890,16.8,15.3,91,12.03,183,11.7,297.3,332.4,299.5
915.6,895,16.8,15.3,91,12.02,183,11.7,297.3,332.3,299.4
915.1,899,16.7,15.2,91,11.97,183,11.7,297.3,332.2,299.4
914.7,903,16.7,15.1,90,11.91,183,11.6,297.3,332.0,299.5
914.2,908,16.7,15.0,90,11.83,183,11.6,297.4,331.9,299.5
913.7,912,16.7,14.9,89,11.76,183,11.6,297.5,331.7,299.6
913.2,917,16.7,14.9,89,11.73,183,11.5,297.5,331.7,299.6
912.7,921,16.7,14.9,89,11.72,183,11.5,297.5,331.7,299.6
912.2,926,16.7,14.8,89,11.69,183,11.5,297.6,331.6,299.6
911.7,931,16.7,14.8,89,11.68,183,11.5,297.6,331.6,299.7
911.2,935,16.7,14.8,89,11.68,183,11.5,297.6,331.7,299.7
910.7,940,16.6,14.8,89,11.70,183,11.5,297.6,331.8,299.7
910.2,945,16.6,14.8,89,11.70,183,11.5,297.7,331.8,299.7
909.7,950,16.6,14.8,89,11.69,183,11.5,297.7,331.8,299.8
909.2,955,16.6,14.8,89,11.72,183,11.6,297.7,331.9,299.8
908.7,959,16.6,14.8,90,11.75,183,11.6,297.7,332.0,299.8
908.2,964,16.5,14.8,90,11.77,183,11.6,297.7,332.1,299.8
907.6,969,16.5,14.9,90,11.79,183,11.7,297.8,332.2,299.9
907.1,974,16.5,14.9,90,11.81,183,11.7,297.8,332.3,299.9
906.6,979,16.4,14.9,90,11.80,183,11.7,297.8,332.3,299.9
906.0,984,16.4,14.8,90,11.73,183,11.8,297.8,332.1,299.9
905.5,989,16.4,14.6,89,11.64,183,11.8,297.8,331.9,299.9
904.9,994,16.3,14.5,89,11.58,183,11.8,297.9,331.7,299.9
904.4,999,16.3,14.5,89,11.57,183,11.8,297.9,331.7,300.0
903.9,1004,16.3,14.5,89,11.56,183,11.9,297.9,331.7,300.0
903.4,1009,16.3,14.5,89,11.56,183,11.9,297.9,331.7,300.0
903.0,1013,16.3,14.5,89,11.57,183,11.9,298.0,331.8,300.0
902.5,1018,16.2,14.5,90,11.59,183,11.9,298.0,331.9,300.1
902.0,1022,16.2,14.5,90,11.60,183,11.9,298.0,331.9,300.1
901.5,1027,16.1,14.5,90,11.59,183,11.9,298.0,331.9,300.1
901.0,1032,16.1,14.4,89,11.50,183,11.9,298.0,331.6,300.0
900.5,1036,16.1,14.1,88,11.31,183,11.9,298.0,331.1,300.0
900.1,1041,16.1,13.8,87,11.11,183,11.9,298.0,330.6,300.0
899.6,1045,16.1,13.7,86,11.03,183,11.8,298.1,330.4,300.1
899.2,1049,16.0,13.7,86,11.05,183,11.8,298.1,330.4,300.1
898.7,1053,16.0,13.8,87,11.12,184,11.7,298.1,330.7,300.1
898.3,1057,16.0,13.9,88,11.19,184,11.7,298.1,330.9,300.1
897.9,1061,15.9,14.0,88,11.24,184,11.6,298.1,331.0,300.1
897.5,1065,15.9,14.0,89,11.26,185,11.6,298.1,331.1,300.1
897.1,1069,15.9,14.0,89,11.25,185,11.5,298.1,331.0,300.1
896.7,1073,15.8,14.0,89,11.24,185,11.4,298.1,331.0,300.1
896.3,1077,15.8,14.0,89,11.25,186,11.3,298.1,331.1,300.1
895.8,1081,15.8,14.0,89,11.26,186,11.3,298.1,331.1,300.2
895.4,1085,15.7,13.9,89,11.25,186,11.2,298.2,331.1,300.2
894.9,1090,15.7,13.9,89,11.24,187,11.1,298.2,331.0,300.2
894.4,1095,15.7,13.9,90,11.27,187,11.0,298.2,331.1,300.2
893.8,1100,15.6,14.0,90,11.30,188,10.9,298.2,331.2,300.2
893.3,1105,15.6,13.9,90,11.26,188,10.9,298.2,331.1,300.2
892.7,1110,15.6,13.7,89,11.14,189,10.8,298.2,330.9,300.2
892.2,1115,15.6,13.5,87,10.97,189,10.7,298.3,330.4,300.3
891.6,1121,15.6,13.3,86,10.81,190,10.6,298.4,330.1,300.3
891.1,1126,15.6,13.0,85,10.65,190,10.6,298.5,329.7,300.4
890.6,1131,15.7,12.8,83,10.50,190,10.5,298.6,329.4,300.4
890.1,1136,15.8,12.6,82,10.38,191,10.5,298.7,329.2,300.5
889.6,1140,15.8,12.5,81,10.32,191,10.4,298.8,329.1,300.6
889.1,1145,15.8,12.5,81,10.30,191,10.4,298.8,329.1,300.7
888.6,1150,15.8,12.5,81,10.31,191,10.4,298.8,329.2,300.7
888.1,1154,15.7,12.5,81,10.30,192,10.3,298.8,329.1,300.7
887.6,1159,15.7,12.5,81,10.29,192,10.3,298.9,329.1,300.7
887.1,1164,15.7,12.5,81,10.30,192,10.3,298.9,329.2,300.8
886.6,1168,15.7,12.5,81,10.29,192,10.3,298.9,329.2,300.8
886.1,1173,15.7,12.4,81,10.27,192,10.3,299.0,329.2,300.8
885.6,1178,15.6,12.3,81,10.22,192,10.3,299.0,329.1,300.8
885.1,1183,15.6,12.2,80,10.15,191,10.3,299.0,328.9,300.8
884.6,1188,15.6,12.1,80,10.10,191,10.3,299.0,328.8,300.8
884.1,1193,15.6,12.1,80,10.06,191,10.4,299.1,328.7,300.9
883.6,1197,15.5,12.0,79,10.01,191,10.4,299.1,328.6,300.9
883.2,1202,15.5,11.9,79,9.95,190,10.4,299.1,328.4,300.9
882.8,1206,15.5,11.8,79,9.88,190,10.4,299.1,328.2,300.9
882.3,1210,15.5,11.7,78,9.81,190,10.4,299.1,328.1,300.9
881.9,1214,15.5,11.6,78,9.79,189,10.4,299.2,328.1,300.9
881.5,1218,15.5,11.7,78,9.85,189,10.5,299.2,328.3,301.0
881.1,1222,15.4,11.8,79,9.93,188,10.5,299.2,328.5,301.0
880.6,1227,15.4,11.9,80,9.99,188,10.5,299.2,328.6,301.0
880.1,1231,15.3,11.9,80,9.99,187,10.5,299.2,328.6,301.0
879.6,1236,15.2,11.8,80,9.93,187,10.5,299.2,328.4,300.9
879.1,1241,15.2,11.7,79,9.86,187,10.4,299.2,328.3,301.0
878.5,1247,15.2,11.6,79,9.81,186,10.4,299.3,328.2,301.0
878.0,1252,15.2,11.5,79,9.78,186,10.4,299.3,328.1,301.0
877.4,1257,15.2,11.5,79,9.75,185,10.4,299.3,328.1,301.0
876.9,1262,15.1,11.4,79,9.72,185,10.3,299.3,328.0,301.0
876.4,1267,15.1,11.4,79,9.70,185,10.3,299.3,327.9,301.0
875.9,1272,15.0,11.4,79,9.69,185,10.2,299.3,327.9,301.0
875.4,1276,15.0,11.3,79,9.66,184,10.1,299.3,327.8,301.1
875.0,1281,15.0,11.3,79,9.65,184,10.1,299.3,327.8,301.1
874.6,1285,15.0,11.3,79,9.64,184,10.0,299.4,327.9,301.1
874.1,1289,15.0,11.3,79,9.65,184,9.9,299.4,327.9,301.1
873.7,1293,14.9,11.3,79,9.65,184,9.9,299.4,327.9,301.1
873.2,1298,14.9,11.2,79,9.64,184,9.8,299.4,327.9,301.2
872.8,1302,14.9,11.2,79,9.61,185,9.7,299.4,327.8,301.2
872.3,1307,14.8,11.1,79,9.57,185,9.6,299.4,327.7,301.2
871.9,1311,14.8,11.1,78,9.54,185,9.6,299.4,327.6,301.2
871.4,1316,14.8,11.0,78,9.52,185,9.5,299.4,327.6,301.2
870.9,1320,14.7,11.1,79,9.55,186,9.5,299.5,327.7,301.2
870.5,1325,14.7,11.2,80,9.63,186,9.4,299.5,327.9,301.2
870.0,1329,14.6,11.3,80,9.72,187,9.4,299.5,328.2,301.2
869.6,1334,14.6,11.4,81,9.77,187,9.4,299.5,328.4,301.3
869.1,1338,14.6,11.3,81,9.72,187,9.4,299.5,328.2,301.3
868.6,1343,14.6,11.1,79,9.57,188,9.3,299.6,327.9,301.3
868.1,1348,14.6,10.7,78,9.37,188,9.3,299.6,327.3,301.3
867.7,1352,14.6,10.4,76,9.17,189,9.4,299.7,326.9,301.3
867.2,1357,14.6,10.1,74,8.99,189,9.4,299.7,326.4,301.4
866.7,1361,14.7,9.8,73,8.82,189,9.4,299.8,326.0,301.4
866.3,1365,14.7,9.5,71,8.66,189,9.4,299.9,325.6,301.4
865.8,1370,14.7,9.4,70,8.56,190,9.4,299.9,325.4,301.5
865.4,1375,14.7,9.3,70,8.53,190,9.5,300.0,325.3,301.5
864.9,1379,14.7,9.3,70,8.52,190,9.5,300.0,325.3,301.5
864.4,1384,14.7,9.2,70,8.48,190,9.5,300.0,325.3,301.6
863.9,1389,14.6,9.2,70,8.46,190,9.6,300.1,325.2,301.6
863.4,1394,14.6,9.2,70,8.49,190,9.6,300.1,325.3,301.6
862.9,1399,14.6,9.3,70,8.56,190,9.7,300.1,325.6,301.7
862.4,1404,14.6,9.3,70,8.56,189,9.7,300.2,325.7,301.7
861.9,1409,14.6,9.2,70,8.50,189,9.8,300.2,325.5,301.8
861.4,1414,14.6,9.0,69,8.41,189,9.8,300.3,325.3,301.8
860.8,1419,14.6,8.9,68,8.32,189,9.9,300.3,325.1,301.8
860.3,1424,14.6,8.7,68,8.26,188,10.0,300.4,325.0,301.9
859.7,1430,14.6,8.7,68,8.25,188,10.0,300.4,325.0,301.9
859.2,1435,14.5,8.7,68,8.23,187,10.1,300.4,325.0,301.9
858.7,1440,14.5,8.6,68,8.18,187,10.2,300.4,324.8,301.9
858.1,1445,14.5,8.5,67,8.14,187,10.3,300.5,324.8,302.0
857.6,1451,14.5,8.5,67,8.13,186,10.4,300.5,324.8,302.0
857.1,1455,14.4,8.5,67,8.14,186,10.4,300.5,324.8,302.0
856.6,1460,14.4,8.5,68,8.17,186,10.5,300.5,324.9,302.0
856.2,1465,14.4,8.6,68,8.23,186,10.6,300.6,325.1,302.0
855.7,1470,14.3,8.8,69,8.31,185,10.7,300.5,325.3,302.1
855.2,1474,14.3,8.8,70,8.36,185,10.8,300.6,325.5,302.1
854.7,1479,14.2,8.9,70,8.39,185,10.9,300.5,325.5,302.1
854.3,1483,14.2,8.8,70,8.36,185,11.0,300.5,325.5,302.0
853.9,1488,14.1,8.7,70,8.32,185,11.1,300.5,325.3,302.0
853.5,1492,14.1,8.7,70,8.29,185,11.2,300.5,325.3,302.1
853.1,1496,14.1,8.7,70,8.28,185,11.2,300.6,325.3,302.1
852.7,1500,14.0,8.7,70,8.29,185,11.3,300.6,325.3,302.1
852.3,1503,14.0,8.7,71,8.33,185,11.4,300.6,325.4,302.1
851.9,1507,14.0,8.9,72,8.46,185,11.4,300.6,325.8,302.1
851.5,1511,13.9,9.2,73,8.63,186,11.4,300.6,326.3,302.1
851.1,1515,13.9,9.4,75,8.76,186,11.5,300.5,326.6,302.1
850.8,1519,13.8,9.5,75,8.79,186,11.5,300.5,326.7,302.1
850.4,1522,13.8,9.4,75,8.75,187,11.5,300.5,326.6,302.1
850.0,1526,13.8,9.3,74,8.68,187,11.5,300.5,326.4,302.1
849.6,1530,13.7,9.2,74,8.61,188,11.4,300.6,326.2,302.1
849.2,1534,13.7,9.1,73,8.57,188,11.4,300.6,326.1,302.2
848.7,1539,13.7,9.1,73,8.55,189,11.3,300.7,326.1,302.2
848.3,1543,13.7,9.0,73,8.53,190,11.3,300.7,326.1,302.2
847.8,1548,13.7,8.9,73,8.50,190,11.2,300.7,326.0,302.2
847.4,1552,13.7,8.9,73,8.47,191,11.1,300.7,326.0,302.3
846.9,1557,13.6,8.9,73,8.46,192,11.1,300.7,326.0,302.3
846.4,1562,13.6,8.9,73,8.46,192,11.0,300.8,326.0,302.3
845.9,1566,13.6,8.9,73,8.46,193,10.9,300.8,326.0,302.3
845.5,1571,13.5,8.8,73,8.46,194,10.8,300.8,326.0,302.3
845.0,1576,13.5,8.8,73,8.45,195,10.8,300.8,325.9,302.3
844.5,1581,13.4,8.7,73,8.42,196,10.7,300.8,325.9,302.3
844.0,1586,13.4,8.7,73,8.38,197,10.6,300.8,325.8,302.3
843.5,1590,13.4,8.6,73,8.32,197,10.6,300.8,325.6,302.3
843.1,1595,13.3,8.4,72,8.23,198,10.6,300.8,325.4,302.3
842.6,1600,13.3,8.2,71,8.11,199,10.5,300.8,325.0,302.3
842.2,1604,13.3,8.0,70,8.00,199,10.5,300.9,324.8,302.3
841.8,1608,13.3,7.9,70,7.96,200,10.5,300.9,324.7,302.3
841.4,1612,13.3,7.9,70,7.96,200,10.5,300.9,324.7,302.3
841.0,1616,13.2,7.9,70,7.96,201,10.5,300.9,324.7,302.4
840.5,1620,13.2,7.9,70,7.97,201,10.5,300.9,324.8,302.4
840.1,1625,13.2,7.9,70,7.99,202,10.6,300.9,324.8,302.4
839.7,1629,13.1,7.9,71,8.01,202,10.6,300.9,324.9,302.4
839.2,1634,13.1,8.0,71,8.03,202,10.7,301.0,325.0,302.4
838.8,1638,13.1,8.0,71,8.04,202,10.7,300.9,325.0,302.4
838.3,1643,13.0,8.0,72,8.07,202,10.8,300.9,325.1,302.4
837.8,1648,13.0,8.2,73,8.16,202,10.9,300.9,325.3,302.4
837.3,1652,12.9,8.4,74,8.32,202,11.0,300.9,325.8,302.4
836.9,1657,12.9,8.7,76,8.46,202,11.1,300.9,326.2,302.5
836.4,1662,12.8,8.8,77,8.55,202,11.2,300.9,326.4,302.5
836.0,1666,12.8,8.8,77,8.56,201,11.3,300.9,326.5,302.5
835.6,1670,12.7,8.8,77,8.54,201,11.4,300.9,326.4,302.5
835.2,1674,12.7,8.8,77,8.53,201,11.5,300.9,326.4,302.5
834.7,1679,12.6,8.8,77,8.55,201,11.5,300.9,326.4,302.5
834.3,1683,12.6,8.9,78,8.58,200,11.6,300.9,326.5,302.5
833.9,1687,12.6,8.9,78,8.61,200,11.7,300.9,326.6,302.5
833.4,1692,12.5,8.9,79,8.62,200,11.8,300.9,326.6,302.5
833.0,1697,12.5,8.9,79,8.61,199,11.9,300.9,326.6,302.5
832.5,1701,12.4,8.8,79,8.57,199,12.0,300.9,326.5,302.5
832.0,1706,12.4,8.7,79,8.53,199,12.0,300.9,326.4,302.5
831.6,1711,12.3,8.7,79,8.54,199,12.1,300.9,326.4,302.4
831.2,1715,12.3,8.7,79,8.55,198,12.2,300.9,326.4,302.4
830.7,1719,12.2,8.8,79,8.57,198,12.2,300.9,326.5,302.5
830.3,1723,12.2,8.8,80,8.60,198,12.3,300.9,326.6,302.5
829.9,1727,12.2,8.9,80,8.63,198,12.3,300.9,326.7,302.5
829.5,1732,12.1,8.9,80,8.63,197,12.3,300.9,326.7,302.5
