PRES,HGHT,TEMP,DWPT,RELH,MIXR,DRCT,SPED,THTA,THTE,THTV
1013.5,31,25.4,21.3,78,15.94,58,5.9,297.4,343.7,300.2
1012.9,35,25.5,21.3,77,15.93,60,3.2,297.6,343.9,300.4
1012.3,41,25.6,21.3,77,15.97,61,2.9,297.7,344.2,300.5
1011.6,47,25.6,21.2,77,15.87,61,3.0,297.7,343.9,300.6
1010.9,53,25.6,21.1,76,15.73,61,3.2,297.8,343.6,300.6
1010.3,59,25.6,20.9,76,15.62,61,3.5,297.8,343.3,300.6
1009.6,64,25.5,20.9,75,15.56,60,3.8,297.9,343.2,300.6
1009.0,70,25.5,20.8,75,15.53,60,4.0,297.9,343.1,300.6
1008.4,75,25.4,20.8,75,15.47,60,4.2,297.8,342.9,300.6
1007.8,81,25.4,20.6,75,15.37,60,4.4,297.9,342.6,300.6
1007.2,86,25.3,20.5,75,15.29,60,4.6,297.9,342.4,300.6
1006.6,91,25.3,20.5,75,15.28,60,4.8,297.9,342.4,300.6
1006.0,96,25.2,20.6,75,15.32,59,4.9,297.9,342.5,300.6
1005.4,101,25.2,20.6,76,15.38,59,5.1,297.9,342.7,300.6
1004.8,106,25.2,20.7,76,15.46,59,5.2,297.9,342.9,300.6
1004.2,112,25.1,20.8,77,15.54,58,5.3,297.9,343.2,300.7
1003.7,117,25.1,20.7,77,15.54,58,5.4,297.9,343.2,300.7
1003.1,122,25.0,20.6,77,15.42,58,5.5,297.9,342.8,300.6
1002.5,127,25.0,20.6,77,15.40,57,5.6,297.9,342.8,300.7
1001.9,132,24.9,20.7,77,15.48,57,5.7,297.9,343.0,300.7
1001.3,137,24.9,20.7,78,15.53,57,5.8,297.9,343.1,300.7
1000.7,142,24.8,20.7,78,15.57,57,5.8,297.9,343.3,300.7
1000.1,148,24.8,20.7,78,15.59,56,5.9,297.9,343.3,300.7
1000.0,149,24.8,20.7,78,15.60,56,5.9,297.9,343.3,300.7
999.5,153,24.7,20.7,79,15.60,56,5.9,297.9,343.4,300.7
998.9,158,24.7,20.8,79,15.64,56,6.0,297.9,343.5,300.7
998.3,164,24.6,20.9,80,15.76,56,6.1,297.9,343.9,300.7
997.7,169,24.6,20.9,80,15.81,55,6.1,297.9,344.0,300.7
997.1,175,24.5,20.9,80,15.75,55,6.2,297.9,343.8,300.7
996.5,180,24.4,20.8,80,15.67,55,6.2,297.9,343.5,300.7
995.9,185,24.4,20.7,80,15.66,55,6.3,297.9,343.5,300.7
995.3,190,24.4,20.8,80,15.71,55,6.4,297.9,343.7,300.7
994.7,195,24.3,20.8,81,15.74,55,6.4,297.9,343.8,300.7
994.1,200,24.2,20.7,81,15.68,54,6.5,297.9,343.6,300.7
993.6,206,24.2,20.7,81,15.61,54,6.6,297.9,343.3,300.7
993.0,211,24.1,20.6,81,15.56,54,6.7,297.9,343.2,300.6
992.4,216,24.1,20.6,81,15.53,54,6.8,297.9,343.1,300.6
991.8,221,24.0,20.5,81,15.50,54,6.9,297.9,343.0,300.6
991.2,226,24.0,20.5,81,15.45,54,7.0,297.9,342.9,300.6
990.6,232,23.9,20.4,81,15.44,54,7.1,297.9,342.9,300.6
990.0,237,23.9,20.4,81,15.46,54,7.2,297.9,342.9,300.6
989.4,242,23.8,20.4,81,15.44,54,7.3,297.9,342.9,300.6
988.8,248,23.8,20.3,81,15.37,53,7.4,297.9,342.7,300.6
988.2,253,23.7,20.3,81,15.32,53,7.5,297.9,342.5,300.6
987.6,258,23.7,20.2,81,15.25,53,7.6,297.9,342.3,300.6
987.0,263,23.6,20.1,81,15.20,53,7.6,297.9,342.2,300.6
986.5,268,23.6,20.1,81,15.20,53,7.7,297.9,342.1,300.6
985.9,273,23.5,20.1,81,15.24,53,7.8,297.9,342.3,300.6
985.4,278,23.5,20.2,82,15.28,53,7.8,297.9,342.4,300.6
984.9,282,23.5,20.2,82,15.31,53,7.9,297.9,342.5,300.6
984.4,287,23.4,20.2,82,15.30,52,7.9,297.9,342.5,300.6
983.9,292,23.4,20.2,82,15.29,52,8.0,297.9,342.4,300.6
983.3,296,23.3,20.1,82,15.26,52,8.0,297.9,342.3,300.6
982.8,301,23.3,20.1,82,15.23,52,8.0,297.9,342.2,300.6
982.3,306,23.2,20.1,83,15.24,52,8.0,297.9,342.3,300.6
981.7,311,23.2,20.1,83,15.27,52,8.0,297.9,342.4,300.6
981.2,315,23.1,20.1,83,15.30,52,8.0,297.9,342.5,300.6
980.7,320,23.1,20.1,84,15.32,52,8.0,297.9,342.5,300.6
980.1,325,23.0,20.2,84,15.35,52,8.0,297.9,342.6,300.6
979.6,330,23.0,20.2,84,15.35,52,8.0,297.9,342.6,300.6
979.0,335,22.9,20.1,84,15.34,52,8.0,297.9,342.6,300.6
978.4,340,22.9,20.1,84,15.32,52,8.0,297.9,342.5,300.6
977.9,345,22.8,20.1,84,15.29,52,7.9,297.9,342.4,300.6
977.3,350,22.8,20.0,85,15.28,52,7.9,297.9,342.4,300.6
976.7,355,22.7,20.0,85,15.27,52,7.9,297.9,342.3,300.6
976.1,360,22.7,20.0,85,15.28,52,7.9,297.9,342.4,300.6
975.6,366,22.6,20.0,85,15.29,52,7.9,297.9,342.4,300.6
974.9,371,22.6,20.0,86,15.31,52,7.9,297.9,342.5,300.6
974.3,377,22.5,20.0,86,15.32,52,7.9,297.9,342.5,300.6
973.7,382,22.5,20.0,86,15.31,52,7.9,297.9,342.5,300.6
973.1,388,22.4,20.0,86,15.28,52,7.9,297.9,342.4,300.6
972.5,393,22.4,19.9,86,15.25,52,7.9,297.9,342.3,300.6
971.9,399,22.3,19.9,86,15.25,52,7.9,297.9,342.3,300.6
971.3,404,22.3,20.0,87,15.28,52,7.9,297.9,342.4,300.6
970.7,410,22.2,20.0,87,15.30,52,8.0,297.9,342.4,300.6
970.1,415,22.2,19.9,87,15.27,52,8.0,297.9,342.4,300.6
969.5,420,22.1,19.9,87,15.26,52,8.0,297.9,342.3,300.6
968.9,426,22.1,19.9,87,15.26,52,8.0,297.9,342.3,300.6
968.3,431,22.0,19.9,88,15.27,52,8.1,297.9,342.4,300.6
967.7,436,22.0,19.9,88,15.27,52,8.1,297.9,342.4,300.6
967.2,441,21.9,19.9,88,15.29,52,8.1,297.9,342.4,300.6
966.6,446,21.9,19.9,89,15.31,51,8.2,297.9,342.5,300.6
966.0,451,21.8,19.9,89,15.32,51,8.2,297.9,342.5,300.6
965.4,457,21.8,19.9,89,15.35,51,8.2,297.9,342.6,300.6
964.9,462,21.7,19.9,90,15.37,51,8.2,297.9,342.6,300.6
964.3,467,21.7,19.9,90,15.33,50,8.2,297.9,342.5,300.6
963.7,472,21.6,19.8,90,15.29,50,8.3,297.9,342.4,300.6
963.2,477,21.6,19.8,90,15.26,50,8.3,297.9,342.3,300.6
962.6,482,21.5,19.8,90,15.25,49,8.3,297.9,342.3,300.6
962.1,487,21.5,19.8,90,15.25,49,8.3,297.9,342.3,300.6
961.6,492,21.4,19.8,90,15.28,49,8.3,297.9,342.4,300.6
961.0,497,21.4,19.8,91,15.29,48,8.3,297.9,342.4,300.6
960.5,501,21.3,19.8,91,15.28,48,8.3,297.9,342.4,300.6
960.0,506,21.3,19.8,91,15.28,48,8.3,297.9,342.4,300.6
959.5,510,21.3,19.7,91,15.27,47,8.2,297.9,342.4,300.6
959.0,515,21.2,19.7,91,15.19,47,8.2,297.9,342.2,300.6
958.5,519,21.2,19.5,90,15.02,47,8.2,297.9,341.7,300.6
958.1,523,21.2,19.3,89,14.85,46,8.2,298.0,341.2,300.6
957.6,527,21.2,19.2,88,14.78,46,8.2,298.0,341.1,300.6
957.2,531,21.2,19.2,89,14.80,46,8.1,298.0,341.2,300.7
956.7,536,21.1,19.3,89,14.87,46,8.1,298.0,341.4,300.7
956.3,540,21.1,19.3,90,14.92,46,8.1,298.0,341.5,300.7
955.8,544,21.1,19.4,90,14.96,46,8.1,298.0,341.6,300.7
955.3,549,21.0,19.4,90,14.97,46,8.1,298.0,341.7,300.7
954.7,554,21.0,19.2,90,14.82,46,8.0,298.0,341.2,300.7
954.1,559,21.0,18.9,88,14.57,46,8.0,298.1,340.6,300.7
953.5,565,21.0,18.7,87,14.35,46,8.0,298.1,340.0,300.7
952.9,570,21.0,18.5,86,14.23,46,8.0,298.2,339.7,300.7
952.3,576,20.9,18.5,86,14.22,46,8.0,298.2,339.7,300.7
951.7,581,20.9,18.6,87,14.28,47,8.0,298.2,339.9,300.8
951.1,587,20.8,18.6,87,14.37,47,8.0,298.2,340.1,300.8
950.5,592,20.7,18.7,88,14.39,48,8.0,298.2,340.2,300.7
949.9,597,20.7,18.5,88,14.29,48,8.1,298.1,339.8,300.7
949.4,602,20.6,18.3,87,14.09,49,8.1,298.2,339.3,300.7
948.9,607,20.6,18.2,86,14.00,49,8.1,298.2,339.1,300.7
948.3,612,20.6,18.2,86,14.01,50,8.2,298.3,339.2,300.8
947.8,617,20.6,18.2,86,14.01,50,8.2,298.3,339.2,300.8
947.3,622,20.6,18.1,86,13.95,51,8.3,298.3,339.0,300.8
946.7,627,20.5,18.0,85,13.86,51,8.3,298.3,338.8,300.8
946.2,632,20.5,17.9,85,13.78,52,8.4,298.4,338.6,300.8
945.6,637,20.5,17.9,85,13.75,52,8.4,298.4,338.5,300.8
945.1,642,20.5,17.9,85,13.74,53,8.5,298.4,338.5,300.8
944.6,647,20.4,17.9,85,13.76,53,8.5,298.4,338.6,300.8
944.0,652,20.4,17.8,86,13.75,54,8.6,298.4,338.5,300.8
943.5,657,20.3,17.8,85,13.71,54,8.6,298.4,338.4,300.8
942.9,661,20.3,17.8,85,13.69,55,8.7,298.4,338.4,300.8
942.4,666,20.2,17.8,86,13.70,55,8.7,298.4,338.4,300.9
941.9,671,20.2,17.8,86,13.71,56,8.8,298.4,338.5,300.9
941.3,676,20.2,17.7,86,13.65,56,8.8,298.4,338.3,300.9
940.8,682,20.1,17.5,85,13.53,56,8.9,298.4,338.0,300.9
940.2,687,20.1,17.5,85,13.47,57,8.9,298.5,337.9,300.9
939.6,692,20.1,17.5,85,13.48,57,8.9,298.5,337.9,300.9
939.0,698,20.0,17.5,85,13.50,57,9.0,298.5,338.0,300.9
938.4,703,20.0,17.5,85,13.49,57,9.0,298.5,337.9,300.9
937.8,709,19.9,17.4,85,13.46,57,9.0,298.5,337.9,300.9
937.2,714,19.9,17.4,85,13.44,58,9.0,298.5,337.8,300.9
936.6,720,19.8,17.4,86,13.43,58,9.0,298.5,337.8,300.9
936.0,726,19.8,17.3,86,13.42,58,9.0,298.5,337.8,300.9
935.4,731,19.7,17.3,86,13.37,58,9.0,298.5,337.6,300.9
934.8,737,19.7,17.2,86,13.35,58,9.0,298.5,337.6,300.9
934.2,742,19.6,17.2,86,13.37,58,9.0,298.5,337.6,300.9
933.6,748,19.6,17.3,87,13.40,58,9.0,298.5,337.7,300.9
933.0,754,19.5,17.3,87,13.44,58,9.0,298.5,337.8,300.9
932.3,759,19.5,17.3,87,13.47,58,8.9,298.5,337.9,300.9
931.7,765,19.4,17.3,88,13.47,58,8.9,298.5,337.9,300.9
931.1,771,19.3,17.3,88,13.47,58,8.9,298.5,337.9,300.9
930.5,776,19.3,17.3,88,13.47,58,8.9,298.5,337.9,300.9
929.9,782,19.2,17.3,88,13.47,58,8.9,298.5,337.9,300.9
929.3,787,19.2,17.3,89,13.48,59,8.8,298.5,337.9,300.9
928.7,793,19.1,17.2,89,13.45,59,8.8,298.5,337.8,300.9
928.1,798,19.1,17.2,89,13.43,59,8.8,298.5,337.8,300.9
927.5,804,19.0,17.2,89,13.42,59,8.8,298.5,337.8,300.9
927.0,809,19.0,17.1,89,13.39,59,8.8,298.5,337.7,300.9
926.4,815,19.0,17.1,89,13.37,59,8.8,298.6,337.7,300.9
925.8,820,18.9,17.1,89,13.36,59,8.8,298.6,337.7,301.0
925.2,825,18.9,17.1,89,13.37,59,8.8,298.6,337.7,301.0
925.0,827,18.9,17.1,89,13.37,59,8.8,298.6,337.7,301.0
924.6,831,18.8,17.1,90,13.37,59,8.8,298.6,337.7,301.0
924.0,836,18.8,17.1,90,13.38,59,8.8,298.6,337.7,301.0
923.4,842,18.7,17.1,90,13.40,59,8.8,298.6,337.8,301.0
922.8,848,18.7,17.1,90,13.41,59,8.8,298.6,337.9,301.0
922.2,854,18.7,17.1,91,13.42,59,8.9,298.7,337.9,301.1
921.5,860,18.6,17.1,91,13.43,59,8.9,298.7,337.9,301.1
920.9,866,18.6,17.1,91,13.42,59,8.9,298.7,337.9,301.1
920.2,872,18.5,17.0,91,13.40,59,9.0,298.7,337.9,301.1
919.6,878,18.4,17.0,91,13.39,59,9.0,298.6,337.8,301.0
919.0,883,18.4,17.0,92,13.38,59,9.0,298.6,337.8,301.0
918.5,888,18.3,17.0,92,13.37,59,9.1,298.6,337.8,301.0
917.9,894,18.3,17.0,92,13.36,59,9.1,298.7,337.7,301.0
917.4,899,18.2,16.9,92,13.33,59,9.2,298.7,337.7,301.0
916.9,904,18.2,16.9,92,13.30,59,9.2,298.7,337.6,301.1
916.3,909,18.2,16.8,92,13.29,59,9.2,298.7,337.6,301.1
915.8,914,18.1,16.8,92,13.30,58,9.3,298.7,337.6,301.1
915.3,919,18.1,16.8,92,13.28,58,9.3,298.7,337.6,301.1
914.7,924,18.1,16.8,92,13.26,58,9.4,298.7,337.5,301.1
914.2,928,18.0,16.8,92,13.24,58,9.4,298.7,337.5,301.1
913.7,933,18.0,16.7,92,13.22,58,9.5,298.7,337.4,301.1
913.2,938,17.9,16.7,93,13.21,58,9.5,298.7,337.4,301.1
912.7,943,17.9,16.7,93,13.22,58,9.5,298.7,337.4,301.1
912.2,947,17.9,16.7,93,13.24,58,9.6,298.8,337.5,301.1
911.7,952,17.8,16.7,93,13.24,59,9.6,298.8,337.5,301.1
911.3,956,17.8,16.7,93,13.22,59,9.6,298.8,337.5,301.1
910.8,961,17.8,16.7,93,13.22,59,9.6,298.8,337.5,301.1
910.3,965,17.7,16.7,94,13.23,59,9.6,298.8,337.5,301.2
909.8,970,17.7,16.7,94,13.25,60,9.6,298.8,337.6,301.2
909.3,975,17.7,16.7,94,13.25,60,9.6,298.8,337.6,301.2
908.8,979,17.6,16.6,94,13.22,60,9.6,298.8,337.5,301.2
908.3,984,17.6,16.6,94,13.20,61,9.6,298.8,337.5,301.2
907.8,989,17.6,16.6,94,13.21,61,9.6,298.9,337.5,301.2
907.3,993,17.5,16.6,94,13.19,62,9.6,298.9,337.5,301.2
906.8,998,17.5,16.5,94,13.13,62,9.5,298.9,337.3,301.2
906.4,1002,17.5,16.4,94,13.08,63,9.5,298.9,337.2,301.2
905.9,1006,17.4,16.4,94,13.08,63,9.5,298.9,337.2,301.3
905.5,1011,17.4,16.4,94,13.10,64,9.4,298.9,337.3,301.3
905.0,1015,17.4,16.5,94,13.13,64,9.4,299.0,337.4,301.3
904.5,1020,17.4,16.5,95,13.17,65,9.4,299.0,337.6,301.3
904.1,1024,17.3,16.5,95,13.19,65,9.3,299.0,337.6,301.3
903.6,1029,17.3,16.5,95,13.16,65,9.3,299.0,337.5,301.3
903.1,1033,17.2,16.4,95,13.11,66,9.2,299.0,337.4,301.3
902.7,1037,17.2,16.3,95,13.04,66,9.2,299.0,337.2,301.3
902.2,1041,17.2,16.3,95,13.02,66,9.1,299.0,337.1,301.3
901.8,1045,17.1,16.3,95,13.02,66,9.1,299.0,337.1,301.3
901.4,1050,17.1,16.2,95,12.99,66,9.0,299.0,337.0,301.3
900.9,1054,17.1,16.2,94,12.93,66,9.0,299.0,336.9,301.3
900.5,1058,17.1,16.1,94,12.91,66,9.0,299.0,336.9,301.3
900.0,1063,17.0,16.1,94,12.92,65,8.9,299.0,336.9,301.4
899.5,1068,17.0,16.1,94,12.87,65,8.9,299.0,336.8,301.4
899.0,1072,16.9,15.9,94,12.75,65,8.8,299.1,336.4,301.3
898.5,1077,16.9,15.8,93,12.65,64,8.8,299.1,336.1,301.3
898.0,1082,16.9,15.7,93,12.60,64,8.8,299.1,336.1,301.4
897.5,1087,16.9,15.7,93,12.59,63,8.8,299.1,336.0,301.4
897.0,1091,16.8,15.6,92,12.50,63,8.7,299.1,335.8,301.4
896.5,1096,16.8,15.3,91,12.30,63,8.7,299.2,335.3,301.4
896.0,1101,16.8,15.1,89,12.10,62,8.7,299.2,334.8,301.4
895.4,1106,16.9,14.9,88,11.96,62,8.7,299.3,334.5,301.5
894.9,1112,16.9,14.8,88,11.90,62,8.7,299.4,334.3,301.5
894.3,1117,16.8,14.8,88,11.90,61,8.7,299.4,334.4,301.5
893.8,1122,16.8,14.7,88,11.87,61,8.7,299.4,334.3,301.5
893.2,1128,16.8,14.6,87,11.80,61,8.7,299.4,334.1,301.5
892.6,1133,16.8,14.5,86,11.69,61,8.7,299.5,333.9,301.6
892.1,1138,16.7,14.3,86,11.57,61,8.7,299.5,333.5,301.6
891.5,1144,16.7,14.1,85,11.44,61,8.7,299.6,333.2,301.6
890.9,1149,16.7,14.0,84,11.37,61,8.7,299.6,333.1,301.7
890.4,1155,16.7,14.1,84,11.42,61,8.7,299.7,333.3,301.7
889.9,1160,16.7,14.2,85,11.51,62,8.7,299.7,333.6,301.7
889.4,1164,16.7,14.3,86,11.58,62,8.7,299.7,333.8,301.8
888.9,1169,16.6,14.4,87,11.65,62,8.7,299.7,334.0,301.8
888.4,1173,16.6,14.5,87,11.76,63,8.7,299.7,334.3,301.8
888.0,1177,16.6,14.6,88,11.85,63,8.6,299.7,334.6,301.8
887.6,1181,16.5,14.6,89,11.89,63,8.6,299.7,334.7,301.8
887.2,1185,16.5,14.6,89,11.88,64,8.6,299.7,334.7,301.9
886.8,1189,16.5,14.5,88,11.79,64,8.6,299.8,334.5,301.9
886.3,1193,16.5,14.3,87,11.64,65,8.5,299.8,334.1,301.9
885.9,1198,16.5,14.1,86,11.52,65,8.5,299.9,333.9,302.0
885.4,1203,16.5,14.0,85,11.44,65,8.5,299.9,333.7,302.0
884.8,1208,16.5,13.9,85,11.36,66,8.4,300.0,333.5,302.0
884.3,1213,16.5,13.8,84,11.26,66,8.4,300.0,333.2,302.0
883.7,1219,16.5,13.6,83,11.16,66,8.4,300.0,332.9,302.0
883.2,1224,16.4,13.4,82,11.04,67,8.3,300.0,332.6,302.0
882.6,1230,16.4,13.3,82,10.97,67,8.3,300.1,332.5,302.1
882.1,1235,16.4,13.3,82,10.95,67,8.2,300.1,332.4,302.1
881.5,1240,16.3,13.3,82,10.95,67,8.2,300.1,332.5,302.1
881.0,1245,16.3,13.3,82,10.96,67,8.2,300.1,332.5,302.1
880.5,1250,16.3,13.4,83,11.01,67,8.1,300.1,332.6,302.1
880.0,1255,16.2,13.5,84,11.09,68,8.1,300.1,332.9,302.1
879.5,1259,16.2,13.6,85,11.23,68,8.1,300.1,333.3,302.1
879.1,1264,16.1,13.8,86,11.35,68,8.0,300.1,333.6,302.1
878.6,1268,16.1,13.9,87,11.41,68,8.0,300.1,333.8,302.2
878.1,1273,16.1,13.9,87,11.41,68,8.0,300.2,333.8,302.2
877.7,1277,16.1,13.8,86,11.37,68,7.9,300.2,333.7,302.2
877.2,1282,16.0,13.7,86,11.33,68,7.9,300.2,333.7,302.2
876.7,1286,16.0,13.7,86,11.30,68,7.9,300.2,333.6,302.3
876.3,1291,16.0,13.6,86,11.27,68,7.9,300.2,333.5,302.3
875.8,1295,16.0,13.6,86,11.25,68,7.9,300.3,333.5,302.3
875.4,1300,15.9,13.6,86,11.24,68,7.9,300.3,333.5,302.3
874.9,1304,15.9,13.6,86,11.23,68,7.8,300.3,333.5,302.3
874.4,1309,15.9,13.5,86,11.22,68,7.8,300.3,333.4,302.3
873.9,1314,15.8,13.5,86,11.21,69,7.8,300.3,333.5,302.3
873.4,1319,15.8,13.5,86,11.20,69,7.8,300.3,333.4,302.4
872.9,1324,15.8,13.5,86,11.19,69,7.8,300.3,333.4,302.4
872.3,1329,15.7,13.5,87,11.20,69,7.9,300.3,333.5,302.4
871.8,1334,15.7,13.5,87,11.19,69,7.9,300.3,333.4,302.4
871.3,1339,15.6,13.4,87,11.17,69,7.9,300.3,333.4,302.4
870.8,1344,15.6,13.4,87,11.13,69,7.9,300.3,333.2,302.3
870.3,1349,15.5,13.3,87,11.12,69,7.9,300.3,333.2,302.4
869.9,1354,15.5,13.3,87,11.13,69,8.0,300.4,333.3,302.4
869.4,1358,15.4,13.4,87,11.16,69,8.0,300.4,333.3,302.4
869.0,1362,15.4,13.4,88,11.19,69,8.0,300.4,333.4,302.4
868.5,1366,15.4,13.4,88,11.23,69,8.1,300.4,333.6,302.4
868.1,1370,15.4,13.5,89,11.27,69,8.1,300.4,333.7,302.4
867.7,1375,15.3,13.5,89,11.30,69,8.2,300.4,333.8,302.5
867.3,1379,15.3,13.5,89,11.32,69,8.2,300.4,333.9,302.5
866.9,1383,15.3,13.5,89,11.30,69,8.2,300.4,333.8,302.5
866.4,1387,15.2,13.4,89,11.20,69,8.3,300.5,333.6,302.5
865.9,1392,15.2,13.2,88,11.06,69,8.4,300.5,333.2,302.5
865.5,1396,15.2,13.0,86,10.94,69,8.4,300.5,332.9,302.5
865.0,1401,15.2,12.8,86,10.83,69,8.5,300.6,332.6,302.5
864.5,1406,15.2,12.7,85,10.75,69,8.5,300.6,332.4,302.6
863.9,1412,15.2,12.6,85,10.69,68,8.6,300.6,332.3,302.6
863.4,1417,15.2,12.4,84,10.53,68,8.7,300.7,331.8,302.6
862.9,1422,15.1,11.9,81,10.22,68,8.7,300.7,331.0,302.5
862.3,1427,15.2,11.5,79,9.92,68,8.8,300.8,330.2,302.6
861.8,1432,15.2,11.2,77,9.72,68,8.8,300.8,329.7,302.6
861.3,1438,15.2,11.0,76,9.63,67,8.9,300.9,329.5,302.7
860.7,1443,15.2,10.9,76,9.58,67,9.0,301.0,329.5,302.7
860.2,1449,15.2,10.8,75,9.51,67,9.0,301.0,329.3,302.7
859.6,1454,15.2,10.7,74,9.41,67,9.1,301.1,329.1,302.8
859.0,1460,15.2,10.5,74,9.31,66,9.1,301.1,328.9,302.8
858.5,1465,15.2,10.3,72,9.19,66,9.2,301.2,328.6,302.9
857.9,1471,15.2,10.0,71,9.03,66,9.2,301.3,328.2,302.9
857.3,1477,15.3,9.7,70,8.86,66,9.3,301.4,327.8,303.0
856.8,1482,15.3,9.5,68,8.72,65,9.3,301.4,327.5,303.0
856.2,1488,15.3,9.3,68,8.63,65,9.4,301.5,327.3,303.1
855.6,1493,15.2,9.3,67,8.60,65,9.4,301.5,327.3,303.1
855.1,1499,15.2,9.3,68,8.62,65,9.5,301.5,327.3,303.1
854.5,1505,15.2,9.3,68,8.66,65,9.5,301.6,327.5,303.1
853.9,1511,15.1,9.4,69,8.69,64,9.6,301.5,327.5,303.1
853.3,1517,15.0,9.4,69,8.69,64,9.6,301.5,327.5,303.1
852.7,1522,15.0,9.3,69,8.65,64,9.6,301.5,327.4,303.1
852.2,1528,14.9,9.1,68,8.56,64,9.7,301.5,327.1,303.1
851.7,1533,14.9,9.0,68,8.48,64,9.7,301.5,326.9,303.1
851.2,1538,14.8,8.9,68,8.43,64,9.7,301.5,326.8,303.1
850.7,1542,14.8,8.8,67,8.41,64,9.8,301.6,326.7,303.1
850.3,1547,14.8,8.8,67,8.39,63,9.8,301.6,326.7,303.1
850.0,1549,14.8,8.8,68,8.39,63,9.8,301.6,326.7,303.1
849.8,1551,14.7,8.8,68,8.40,63,9.8,301.6,326.7,303.1
849.4,1555,14.7,8.8,68,8.39,63,9.9,301.6,326.7,303.1
849.0,1559,14.7,8.7,67,8.32,63,9.9,301.6,326.5,303.1
848.6,1564,14.7,8.4,66,8.20,63,9.9,301.6,326.2,303.1
848.1,1568,14.7,8.2,65,8.07,63,9.9,301.7,325.9,303.2
847.6,1573,14.7,8.1,64,8.01,63,9.9,301.8,325.8,303.2
847.1,1578,14.7,8.0,64,7.99,63,10.0,301.8,325.8,303.2
846.6,1584,14.6,8.0,64,7.97,63,10.0,301.8,325.7,303.3
846.0,1589,14.6,7.9,64,7.95,63,10.0,301.9,325.7,303.3
845.5,1595,14.6,7.8,64,7.87,63,10.0,301.9,325.6,303.3
844.9,1600,14.6,7.6,63,7.77,63,10.0,301.9,325.3,303.3
844.4,1606,14.6,7.5,63,7.72,63,10.0,302.0,325.2,303.4
843.8,1611,14.5,7.5,63,7.74,63,10.0,302.0,325.3,303.4
843.3,1616,14.5,7.7,63,7.82,63,10.0,302.0,325.5,303.4
842.8,1621,14.5,7.9,65,7.94,63,10.0,302.0,325.9,303.5
842.3,1626,14.4,8.1,66,8.09,64,10.0,302.0,326.3,303.5
841.9,1631,14.4,8.5,68,8.31,64,9.9,302.0,326.9,303.5
841.4,1636,14.3,8.9,70,8.52,64,9.9,302.0,327.5,303.5
840.9,1641,14.2,9.0,71,8.61,64,9.9,301.9,327.7,303.5
840.4,1645,14.1,9.1,72,8.69,64,9.9,301.9,327.9,303.5
840.0,1650,14.1,9.6,74,8.97,64,9.9,301.9,328.7,303.5
839.5,1655,14.0,10.3,78,9.42,65,9.8,301.9,330.0,303.6
839.1,1659,13.9,11.0,83,9.90,65,9.8,301.8,331.3,303.6
838.6,1664,13.8,11.4,85,10.15,65,9.8,301.8,332.0,303.6
838.1,1668,13.8,11.5,86,10.21,65,9.8,301.7,332.2,303.6
837.7,1673,13.7,11.6,87,10.32,65,9.8,301.7,332.4,303.6
837.2,1678,13.6,11.9,89,10.48,66,9.8,301.7,332.9,303.6
836.7,1683,13.6,12.0,90,10.62,66,9.8,301.7,333.3,303.6
836.3,1687,13.5,12.2,91,10.71,66,9.8,301.7,333.5,303.6
835.8,1692,13.5,12.2,92,10.76,66,9.8,301.7,333.7,303.7
835.3,1697,13.5,12.3,92,10.79,66,9.8,301.7,333.8,303.7
834.9,1701,13.4,12.3,93,10.83,66,9.8,301.8,334.0,303.7
834.4,1706,13.4,12.4,93,10.90,67,9.8,301.8,334.2,303.8
833.9,1711,13.4,12.4,94,10.94,67,9.8,301.8,334.4,303.8
833.4,1716,13.4,12.4,94,10.93,67,9.8,301.8,334.4,303.8
832.9,1721,13.4,12.3,93,10.85,67,9.8,301.9,334.2,303.9
832.4,1727,13.4,12.1,92,10.74,67,9.8,301.9,333.9,303.9
831.9,1732,13.3,12.0,92,10.67,67,9.8,302.0,333.7,303.9
831.3,1737,13.3,12.0,91,10.64,68,9.9,302.0,333.7,303.9
830.8,1743,13.3,11.9,91,10.63,68,9.9,302.1,333.7,304.0
830.3,1748,13.3,11.9,91,10.59,68,9.9,302.1,333.7,304.0
829.7,1753,13.3,11.8,91,10.54,68,9.9,302.2,333.6,304.1
829.2,1759,13.3,11.7,90,10.50,69,9.9,302.2,333.5,304.1
828.7,1764,13.3,11.7,90,10.49,69,9.9,302.2,333.5,304.1
828.1,1770,13.2,11.7,91,10.52,69,9.9,302.2,333.6,304.1
827.6,1775,13.2,11.7,91,10.53,70,9.9,302.2,333.6,304.1
827.0,1781,13.1,11.7,91,10.54,70,9.8,302.2,333.7,304.2
826.5,1787,13.1,11.7,92,10.53,71,9.8,302.2,333.6,304.1
825.9,1792,13.0,11.7,92,10.51,71,9.8,302.2,333.6,304.2
825.4,1798,13.0,11.7,92,10.54,72,9.8,302.3,333.7,304.2
824.8,1804,13.0,11.8,92,10.59,72,9.7,302.3,333.9,304.2
824.2,1810,12.9,11.8,93,10.62,73,9.7,302.3,334.0,304.2
823.6,1816,12.9,11.8,93,10.62,74,9.7,302.3,334.0,304.2
823.1,1821,12.8,11.7,93,10.55,74,9.6,302.3,333.8,304.2
822.5,1827,12.8,11.6,92,10.46,75,9.6,302.3,333.5,304.2
822.0,1832,12.7,11.4,92,10.36,75,9.6,302.3,333.3,304.2
821.5,1837,12.7,11.3,91,10.27,76,9.5,302.3,333.0,304.2
821.0,1842,12.7,11.2,91,10.20,76,9.5,302.4,332.8,304.2
820.6,1847,12.6,11.1,90,10.15,77,9.5,302.4,332.7,304.2
820.2,1851,12.6,11.0,90,10.12,77,9.5,302.4,332.6,304.2
819.7,1856,12.6,11.0,90,10.11,78,9.4,302.4,332.6,304.2
819.3,1860,12.5,11.0,90,10.09,78,9.4,302.4,332.6,304.2
