PRES,HGHT,TEMP,DWPT,RELH,MIXR,DRCT,SPED,THTA,THTE,THTV
1013.8,31,23.1,13.9,56,9.88,35,4.2,295.1,323.7,296.8
1013.4,34,22.9,13.9,57,9.91,27,4.0,294.9,323.6,296.6
1013.0,37,22.7,13.9,58,9.88,22,4.1,294.7,323.3,296.5
1012.1,45,22.3,13.6,58,9.68,21,4.4,294.4,322.4,296.1
1011.5,51,22.0,13.3,58,9.51,21,4.7,294.1,321.6,295.8
1011.1,54,21.6,12.9,58,9.29,21,5.0,293.8,320.7,295.5
1010.6,58,21.6,12.8,58,9.25,21,5.3,293.8,320.5,295.5
1010.0,64,21.5,12.7,57,9.17,21,5.5,293.8,320.3,295.4
1009.4,68,21.3,12.4,57,9.01,21,5.8,293.7,319.7,295.3
1008.8,73,21.2,12.3,57,8.93,21,6.1,293.6,319.4,295.2
1008.2,79,21.3,12.4,57,9.00,22,6.3,293.7,319.7,295.3
1007.6,84,21.2,12.2,57,8.92,22,6.5,293.7,319.5,295.3
1007.0,89,21.1,12.0,56,8.80,22,6.7,293.6,319.1,295.2
1006.4,94,21.0,12.0,57,8.78,22,6.9,293.6,318.9,295.1
1005.8,100,20.9,12.0,57,8.77,22,7.1,293.6,318.9,295.1
1005.2,105,20.9,11.9,57,8.75,22,7.3,293.6,318.9,295.1
1004.5,110,20.8,11.9,57,8.77,22,7.4,293.6,318.9,295.1
1003.9,115,20.8,12.0,57,8.79,22,7.5,293.6,319.0,295.1
1003.3,120,20.7,12.0,57,8.81,22,7.6,293.6,319.0,295.1
1002.7,126,20.7,12.0,58,8.81,22,7.7,293.6,319.0,295.1
1002.2,131,20.6,11.9,58,8.79,22,7.8,293.6,319.0,295.1
1001.6,136,20.6,11.9,57,8.75,22,7.9,293.6,318.9,295.1
1001.0,141,20.5,11.8,57,8.73,22,8.0,293.6,318.8,295.1
1000.4,145,20.5,11.8,58,8.74,22,8.1,293.6,318.8,295.1
1000.0,149,20.4,11.9,58,8.75,22,8.1,293.6,318.9,295.1
999.9,150,20.4,11.9,58,8.76,22,8.1,293.6,318.9,295.1
999.3,155,20.4,11.9,58,8.78,22,8.2,293.6,319.0,295.1
998.8,160,20.3,11.9,58,8.79,22,8.3,293.6,319.0,295.1
998.2,165,20.3,11.9,59,8.80,22,8.3,293.6,319.0,295.1
997.7,169,20.2,11.9,59,8.81,22,8.4,293.6,319.0,295.1
997.1,174,20.2,11.9,59,8.83,22,8.4,293.6,319.1,295.1
996.5,179,20.1,11.9,59,8.81,22,8.5,293.6,319.0,295.1
996.0,184,20.1,11.9,59,8.80,22,8.6,293.6,319.0,295.1
995.4,189,20.0,11.8,59,8.79,22,8.6,293.6,319.0,295.1
994.8,194,20.0,11.8,59,8.79,23,8.7,293.6,319.0,295.1
994.3,199,19.9,11.9,60,8.81,23,8.7,293.6,319.0,295.1
993.7,204,19.9,11.9,60,8.81,23,8.8,293.6,319.0,295.1
993.2,208,19.9,11.9,60,8.82,23,8.9,293.6,319.1,295.1
992.6,213,19.8,11.9,60,8.84,23,8.9,293.6,319.1,295.1
992.0,218,19.8,11.9,60,8.84,23,9.0,293.6,319.1,295.1
991.4,223,19.7,11.9,61,8.84,23,9.0,293.6,319.1,295.1
990.9,229,19.6,11.9,61,8.85,23,9.1,293.6,319.1,295.1
990.3,234,19.6,11.9,61,8.85,23,9.1,293.6,319.1,295.1
989.7,238,19.6,11.8,61,8.83,23,9.1,293.6,319.1,295.1
989.2,243,19.5,11.8,61,8.83,24,9.2,293.6,319.1,295.1
988.6,248,19.5,11.9,61,8.86,24,9.2,293.6,319.2,295.1
988.0,253,19.4,11.9,62,8.90,24,9.2,293.6,319.3,295.2
987.5,258,19.4,11.9,62,8.91,24,9.2,293.6,319.3,295.1
986.9,263,19.3,11.9,62,8.89,24,9.2,293.6,319.3,295.1
986.4,268,19.3,11.8,62,8.87,24,9.2,293.6,319.2,295.1
985.8,272,19.2,11.8,62,8.85,24,9.2,293.6,319.1,295.1
985.3,277,19.2,11.8,62,8.84,25,9.1,293.6,319.1,295.1
984.7,282,19.1,11.7,62,8.81,25,9.1,293.6,319.1,295.1
984.2,287,19.1,11.7,62,8.81,25,9.1,293.6,319.0,295.1
983.7,291,19.0,11.7,63,8.83,25,9.0,293.6,319.1,295.1
983.1,296,19.0,11.8,63,8.86,26,9.0,293.6,319.1,295.1
982.6,300,18.9,11.8,63,8.86,26,8.9,293.6,319.1,295.1
982.1,305,18.9,11.7,63,8.85,26,8.8,293.6,319.1,295.1
981.6,309,18.9,11.7,63,8.84,26,8.8,293.6,319.1,295.1
981.1,314,18.8,11.7,63,8.84,27,8.7,293.6,319.1,295.1
980.6,318,18.8,11.8,64,8.87,27,8.6,293.6,319.2,295.1
980.1,322,18.7,11.9,64,8.96,27,8.6,293.6,319.5,295.2
979.6,327,18.7,12.0,65,9.03,28,8.5,293.6,319.7,295.2
979.2,331,18.7,12.1,65,9.06,28,8.4,293.6,319.7,295.2
978.7,335,18.6,12.1,66,9.10,28,8.4,293.6,319.9,295.2
978.2,339,18.6,12.1,66,9.12,29,8.3,293.6,319.9,295.2
977.7,343,18.6,12.1,66,9.11,29,8.3,293.6,319.9,295.2
977.2,348,18.6,12.1,66,9.08,29,8.2,293.6,319.9,295.2
976.7,352,18.5,12.0,66,9.04,30,8.2,293.6,319.7,295.2
976.3,356,18.5,11.9,66,9.00,30,8.1,293.6,319.6,295.2
975.8,360,18.4,11.8,65,8.95,30,8.1,293.6,319.5,295.2
975.3,364,18.4,11.8,65,8.94,30,8.1,293.6,319.4,295.2
974.9,368,18.3,11.8,66,8.96,31,8.0,293.6,319.5,295.2
974.4,372,18.3,11.9,66,9.00,31,8.0,293.6,319.6,295.2
974.0,376,18.3,11.9,66,9.03,31,8.0,293.6,319.7,295.2
973.6,380,18.2,12.0,67,9.07,31,8.0,293.6,319.8,295.2
973.2,383,18.2,12.0,67,9.06,32,8.0,293.6,319.8,295.2
972.7,387,18.2,11.9,67,9.06,32,8.0,293.6,319.8,295.2
972.2,392,18.1,11.9,67,9.05,32,8.0,293.6,319.7,295.2
971.7,396,18.1,11.9,67,9.06,32,8.0,293.6,319.8,295.2
971.1,401,18.0,11.9,68,9.07,32,8.0,293.6,319.8,295.2
970.6,406,17.9,11.9,68,9.06,32,8.0,293.6,319.8,295.2
970.0,411,17.9,11.9,68,9.06,32,8.0,293.6,319.8,295.2
969.4,417,17.9,11.9,68,9.08,32,8.1,293.6,319.8,295.2
968.8,422,17.8,12.0,69,9.11,32,8.1,293.6,319.9,295.2
968.2,427,17.8,12.0,69,9.11,32,8.1,293.6,319.9,295.2
967.6,433,17.7,11.9,69,9.10,32,8.1,293.6,319.9,295.2
967.0,438,17.7,11.9,69,9.10,32,8.1,293.6,319.9,295.2
966.3,444,17.6,11.9,69,9.10,33,8.1,293.6,319.9,295.2
965.7,449,17.6,11.9,69,9.09,33,8.1,293.6,319.8,295.2
965.1,455,17.5,11.9,70,9.09,33,8.2,293.6,319.8,295.2
964.4,461,17.4,11.9,70,9.09,33,8.2,293.6,319.9,295.2
963.8,466,17.4,11.9,70,9.10,33,8.2,293.6,319.9,295.2
963.2,471,17.3,11.8,70,9.07,33,8.2,293.6,319.8,295.2
962.6,477,17.3,11.8,70,9.04,33,8.2,293.6,319.7,295.2
962.0,482,17.2,11.8,70,9.05,33,8.2,293.6,319.8,295.2
961.5,487,17.2,11.8,71,9.10,33,8.2,293.6,319.9,295.2
960.9,492,17.1,11.9,71,9.11,33,8.2,293.6,319.9,295.2
960.4,496,17.1,11.8,71,9.09,33,8.2,293.6,319.8,295.2
959.9,501,17.0,11.8,71,9.07,33,8.1,293.6,319.8,295.2
959.4,505,17.0,11.8,71,9.08,33,8.1,293.6,319.8,295.2
958.9,509,17.0,11.8,72,9.10,33,8.1,293.6,319.9,295.2
958.5,514,16.9,11.8,72,9.10,33,8.1,293.6,319.9,295.2
958.0,518,16.9,11.8,72,9.09,34,8.0,293.6,319.9,295.2
957.6,522,16.9,11.8,72,9.08,34,8.0,293.6,319.9,295.2
957.1,526,16.8,11.7,72,9.08,34,8.0,293.6,319.9,295.2
956.7,530,16.8,11.8,72,9.09,34,8.0,293.6,319.9,295.2
956.2,534,16.7,11.7,72,9.09,34,7.9,293.6,319.9,295.2
955.7,538,16.7,11.7,72,9.07,34,7.9,293.6,319.8,295.2
955.2,542,16.7,11.7,72,9.05,34,7.9,293.6,319.8,295.2
954.8,546,16.6,11.6,72,9.04,35,7.8,293.6,319.7,295.2
954.3,551,16.6,11.7,73,9.06,35,7.8,293.6,319.8,295.2
953.8,555,16.5,11.7,73,9.10,35,7.7,293.6,319.9,295.2
953.3,559,16.5,11.7,73,9.12,35,7.7,293.6,320.0,295.2
952.9,564,16.5,11.7,73,9.09,35,7.7,293.6,319.9,295.2
952.4,568,16.4,11.6,73,9.07,35,7.6,293.6,319.8,295.2
951.9,572,16.4,11.5,73,8.99,35,7.6,293.6,319.6,295.2
951.4,577,16.4,11.2,71,8.80,35,7.6,293.7,319.1,295.2
951.0,581,16.4,10.8,70,8.60,36,7.5,293.7,318.6,295.3
950.5,584,16.4,10.8,69,8.56,36,7.5,293.8,318.6,295.3
950.2,588,16.4,10.8,69,8.58,36,7.5,293.8,318.7,295.3
949.8,591,16.4,10.8,69,8.57,36,7.5,293.8,318.6,295.3
949.4,594,16.4,10.5,68,8.44,36,7.4,293.8,318.3,295.3
949.1,598,16.4,10.3,67,8.30,36,7.4,293.9,318.0,295.4
948.7,601,16.4,10.2,67,8.26,36,7.4,293.9,317.9,295.4
948.3,604,16.4,10.2,67,8.28,36,7.4,293.9,318.0,295.4
948.0,607,16.3,10.3,67,8.32,36,7.4,293.9,318.1,295.4
947.6,611,16.3,10.4,68,8.38,36,7.3,293.9,318.2,295.4
947.2,614,16.2,10.5,69,8.43,36,7.3,293.9,318.3,295.4
946.8,618,16.2,10.4,69,8.41,36,7.3,293.9,318.2,295.4
946.4,622,16.2,10.4,69,8.40,36,7.3,293.9,318.2,295.4
946.0,625,16.1,10.6,70,8.49,36,7.3,293.9,318.5,295.4
945.6,629,16.1,10.8,71,8.63,36,7.3,293.9,318.8,295.4
945.1,633,16.0,10.9,72,8.70,36,7.3,293.8,319.0,295.4
944.7,637,15.9,10.7,71,8.57,36,7.3,293.8,318.6,295.3
944.2,641,15.9,10.4,70,8.40,36,7.2,293.8,318.2,295.3
943.8,645,15.9,10.3,69,8.38,36,7.2,293.9,318.1,295.4
943.3,649,15.9,10.6,71,8.53,36,7.2,293.9,318.6,295.4
942.9,653,15.8,11.0,73,8.79,35,7.2,293.8,319.2,295.4
942.5,657,15.7,11.3,75,8.93,35,7.2,293.7,319.6,295.3
942.1,661,15.6,11.2,75,8.92,35,7.2,293.7,319.5,295.3
941.7,664,15.6,11.2,75,8.88,35,7.2,293.7,319.4,295.3
941.2,668,15.5,11.2,75,8.90,34,7.2,293.7,319.5,295.3
940.8,672,15.5,11.3,76,8.96,34,7.2,293.7,319.6,295.3
940.4,676,15.4,11.3,77,8.99,34,7.2,293.7,319.6,295.3
940.0,679,15.4,11.3,77,8.99,33,7.2,293.7,319.7,295.3
939.5,683,15.3,11.4,77,9.02,33,7.2,293.7,319.7,295.3
939.1,687,15.3,11.4,78,9.05,33,7.2,293.7,319.8,295.3
938.6,691,15.2,11.4,78,9.04,32,7.2,293.7,319.8,295.3
938.2,696,15.2,11.3,77,8.98,32,7.2,293.7,319.6,295.3
937.7,700,15.2,11.1,77,8.90,32,7.2,293.7,319.4,295.3
937.3,704,15.2,11.0,76,8.85,31,7.2,293.7,319.3,295.3
936.8,708,15.2,11.1,76,8.86,31,7.2,293.7,319.3,295.3
936.3,712,15.1,11.1,77,8.92,31,7.2,293.7,319.5,295.3
935.9,717,15.1,11.2,78,8.97,30,7.2,293.7,319.6,295.3
935.4,721,15.0,11.2,78,8.97,30,7.2,293.7,319.6,295.3
934.9,726,15.0,11.2,78,8.95,30,7.2,293.7,319.6,295.3
934.4,730,14.9,11.1,78,8.91,29,7.2,293.7,319.5,295.3
933.8,735,14.9,11.0,78,8.87,29,7.2,293.7,319.4,295.3
933.3,740,14.9,11.0,78,8.85,29,7.2,293.7,319.3,295.3
932.7,746,14.8,11.0,78,8.86,28,7.2,293.7,319.3,295.3
932.1,751,14.7,11.0,78,8.87,28,7.1,293.7,319.4,295.3
931.5,757,14.7,10.9,78,8.85,27,7.1,293.7,319.3,295.3
930.9,762,14.6,11.0,79,8.86,27,7.1,293.7,319.3,295.3
930.3,768,14.6,11.0,79,8.87,27,7.1,293.7,319.4,295.3
929.6,773,14.5,10.8,79,8.81,26,7.1,293.7,319.2,295.3
929.0,779,14.5,10.6,77,8.67,26,7.0,293.8,318.8,295.3
928.4,785,14.5,10.3,76,8.49,25,7.0,293.8,318.4,295.3
927.8,790,14.5,10.0,74,8.31,25,7.0,293.9,318.0,295.4
927.1,796,14.5,9.8,73,8.22,25,6.9,294.0,317.8,295.4
926.5,802,14.5,9.8,74,8.26,24,6.9,294.0,317.9,295.4
925.8,808,14.4,9.8,74,8.24,24,6.9,294.0,317.9,295.4
925.2,814,14.4,9.8,74,8.23,23,6.9,294.0,317.8,295.4
925.0,816,14.3,9.8,74,8.25,23,6.8,294.0,317.9,295.4
924.5,820,14.3,9.9,75,8.30,23,6.8,294.0,318.0,295.4
923.9,826,14.2,10.0,75,8.34,23,6.8,294.0,318.1,295.4
923.2,832,14.2,9.8,75,8.26,22,6.8,294.0,317.9,295.4
922.6,838,14.2,9.4,73,8.05,22,6.8,294.0,317.4,295.4
921.9,844,14.2,9.1,71,7.87,22,6.7,294.1,317.0,295.5
921.3,849,14.2,9.0,71,7.83,21,6.7,294.2,316.9,295.6
920.7,855,14.2,9.0,71,7.84,21,6.7,294.2,317.0,295.6
920.1,861,14.1,9.0,71,7.87,21,6.7,294.2,317.1,295.6
919.5,866,14.1,9.1,72,7.89,21,6.7,294.2,317.1,295.6
918.9,871,14.0,9.0,72,7.88,20,6.6,294.2,317.1,295.6
918.4,876,14.0,9.0,72,7.87,20,6.6,294.2,317.1,295.6
917.8,882,13.9,9.0,72,7.87,20,6.6,294.2,317.1,295.6
917.2,887,13.9,9.0,72,7.85,20,6.6,294.2,317.0,295.6
916.7,892,13.8,8.9,72,7.85,20,6.5,294.2,317.0,295.6
916.1,897,13.8,8.9,72,7.85,20,6.5,294.2,317.0,295.6
915.5,902,13.8,8.9,72,7.84,20,6.5,294.2,317.1,295.6
915.0,908,13.8,8.9,72,7.83,20,6.5,294.3,317.0,295.7
914.4,913,13.7,8.8,72,7.82,20,6.4,294.3,317.0,295.7
913.9,918,13.7,8.8,73,7.82,20,6.4,294.3,317.0,295.7
913.3,923,13.6,8.8,73,7.82,20,6.4,294.3,317.0,295.7
912.7,929,13.6,8.8,73,7.81,20,6.3,294.3,317.0,295.7
912.1,934,13.5,8.8,73,7.80,20,6.3,294.3,317.0,295.7
911.5,939,13.4,8.8,73,7.80,20,6.3,294.3,317.0,295.7
910.9,945,13.4,8.8,74,7.81,20,6.3,294.3,317.0,295.7
910.3,950,13.3,8.8,74,7.83,21,6.2,294.3,317.0,295.7
909.7,956,13.3,8.8,75,7.86,21,6.2,294.3,317.1,295.7
909.1,962,13.2,8.8,75,7.85,21,6.2,294.3,317.1,295.7
908.5,968,13.2,8.8,75,7.83,21,6.2,294.3,317.1,295.7
907.8,974,13.1,8.7,75,7.80,21,6.1,294.3,317.0,295.7
907.2,979,13.1,8.7,75,7.78,21,6.1,294.3,316.9,295.7
906.6,985,13.0,8.7,75,7.78,21,6.1,294.3,316.9,295.7
905.9,991,12.9,8.7,75,7.80,21,6.1,294.3,317.0,295.7
905.3,997,12.9,8.7,76,7.81,22,6.1,294.3,317.0,295.7
904.7,1003,12.8,8.7,76,7.81,22,6.1,294.3,317.0,295.7
904.1,1008,12.8,8.7,76,7.81,22,6.1,294.3,317.0,295.7
903.6,1013,12.7,8.7,76,7.81,22,6.1,294.3,317.0,295.7
903.0,1019,12.7,8.6,76,7.81,22,6.1,294.3,317.0,295.7
902.5,1023,12.7,8.7,77,7.82,22,6.1,294.3,317.1,295.7
902.0,1028,12.6,8.7,77,7.85,22,6.1,294.3,317.1,295.7
901.5,1033,12.6,8.7,77,7.87,22,6.2,294.3,317.2,295.7
901.0,1038,12.5,8.7,78,7.88,22,6.2,294.3,317.2,295.7
900.5,1042,12.5,8.7,78,7.86,23,6.2,294.3,317.2,295.7
900.0,1046,12.4,8.7,78,7.86,23,6.2,294.3,317.2,295.7
899.6,1051,12.4,8.7,78,7.85,23,6.2,294.3,317.1,295.7
899.1,1055,12.4,8.6,78,7.84,23,6.2,294.3,317.1,295.7
898.7,1059,12.3,8.6,78,7.83,23,6.3,294.3,317.1,295.7
898.2,1063,12.3,8.6,78,7.81,23,6.3,294.3,317.1,295.7
897.8,1067,12.2,8.6,78,7.81,23,6.3,294.3,317.0,295.7
897.3,1072,12.2,8.5,78,7.81,23,6.3,294.3,317.0,295.7
896.8,1076,12.2,8.6,79,7.82,23,6.3,294.3,317.1,295.7
896.4,1080,12.1,8.6,79,7.82,23,6.3,294.3,317.1,295.7
895.9,1085,12.1,8.6,79,7.83,23,6.3,294.3,317.1,295.7
895.5,1089,12.0,8.6,79,7.84,23,6.3,294.3,317.1,295.7
895.0,1093,12.0,8.6,80,7.84,23,6.3,294.3,317.1,295.7
894.5,1098,11.9,8.5,80,7.82,23,6.3,294.3,317.1,295.7
894.1,1102,11.9,8.5,80,7.81,23,6.3,294.3,317.0,295.7
893.6,1106,11.9,8.5,80,7.82,23,6.3,294.3,317.1,295.7
893.2,1110,11.8,8.5,80,7.83,23,6.3,294.3,317.1,295.7
892.7,1115,11.8,8.5,80,7.84,22,6.3,294.3,317.1,295.7
892.2,1119,11.8,8.5,81,7.85,22,6.3,294.3,317.2,295.7
891.8,1124,11.7,8.5,81,7.84,22,6.2,294.3,317.2,295.7
891.3,1128,11.7,8.5,81,7.84,22,6.2,294.3,317.1,295.7
890.8,1133,11.6,8.5,81,7.84,22,6.2,294.3,317.1,295.7
890.3,1138,11.6,8.5,81,7.83,21,6.2,294.3,317.1,295.7
889.7,1143,11.5,8.5,81,7.83,21,6.2,294.3,317.1,295.7
889.2,1147,11.5,8.4,82,7.82,21,6.1,294.3,317.1,295.7
888.7,1152,11.4,8.4,82,7.82,21,6.1,294.3,317.1,295.7
888.2,1157,11.4,8.4,82,7.82,20,6.1,294.3,317.1,295.7
887.7,1162,11.4,8.4,82,7.82,20,6.1,294.4,317.1,295.7
887.2,1166,11.3,8.4,82,7.81,20,6.1,294.4,317.1,295.8
886.7,1171,11.3,8.4,82,7.81,19,6.1,294.4,317.1,295.8
886.2,1176,11.2,8.4,83,7.84,19,6.0,294.4,317.1,295.7
885.7,1181,11.2,8.4,83,7.84,19,6.0,294.4,317.2,295.7
885.2,1186,11.1,8.4,83,7.83,18,6.0,294.3,317.1,295.7
884.6,1191,11.1,8.4,83,7.82,18,6.0,294.4,317.1,295.8
884.1,1196,11.0,8.3,83,7.81,18,6.0,294.4,317.1,295.7
883.6,1201,11.0,8.3,83,7.80,17,5.9,294.4,317.1,295.8
883.0,1206,11.0,8.3,84,7.79,17,5.9,294.4,317.1,295.8
882.5,1211,10.9,8.3,84,7.79,17,5.9,294.4,317.1,295.8
881.9,1217,10.9,8.3,84,7.81,16,5.9,294.4,317.1,295.8
881.3,1222,10.8,8.3,85,7.83,16,5.9,294.4,317.2,295.8
880.7,1228,10.7,8.3,85,7.84,16,5.9,294.4,317.2,295.8
880.1,1234,10.7,8.3,85,7.83,16,5.8,294.4,317.2,295.8
879.5,1240,10.6,8.3,85,7.82,16,5.8,294.4,317.1,295.8
878.9,1245,10.6,8.3,86,7.82,16,5.8,294.4,317.1,295.8
878.3,1251,10.5,8.3,86,7.84,16,5.8,294.4,317.2,295.8
877.7,1257,10.5,8.3,86,7.84,16,5.8,294.4,317.2,295.8
877.1,1262,10.4,8.3,87,7.85,16,5.8,294.4,317.2,295.8
876.5,1268,10.4,8.3,87,7.86,16,5.7,294.4,317.3,295.8
875.9,1274,10.3,8.3,87,7.87,16,5.7,294.4,317.3,295.8
875.3,1279,10.3,8.3,87,7.85,16,5.7,294.4,317.3,295.8
874.7,1285,10.2,8.2,87,7.82,16,5.7,294.4,317.2,295.8
874.2,1290,10.2,8.1,87,7.80,16,5.7,294.4,317.1,295.8
873.6,1296,10.2,8.1,87,7.78,16,5.6,294.5,317.1,295.8
873.0,1302,10.1,8.0,87,7.73,17,5.6,294.5,317.0,295.9
872.4,1307,10.2,7.8,85,7.65,17,5.6,294.6,316.9,295.9
871.8,1313,10.2,7.7,85,7.61,17,5.6,294.7,316.9,296.0
871.2,1318,10.2,7.7,84,7.59,17,5.5,294.7,316.9,296.1
870.7,1324,10.2,7.7,84,7.58,17,5.5,294.8,316.9,296.1
870.1,1329,10.2,7.6,84,7.57,18,5.5,294.8,316.9,296.1
869.5,1334,10.1,7.6,85,7.58,18,5.4,294.8,316.9,296.2
869.0,1340,10.1,7.6,85,7.57,18,5.4,294.8,316.9,296.1
868.4,1345,10.0,7.6,85,7.54,18,5.3,294.8,316.8,296.2
867.8,1351,10.0,7.5,84,7.50,18,5.3,294.9,316.8,296.2
867.3,1356,10.0,7.4,84,7.48,18,5.2,294.9,316.8,296.2
866.7,1362,10.0,7.4,84,7.48,18,5.2,294.9,316.8,296.3
866.1,1367,9.9,7.4,84,7.49,18,5.1,295.0,316.8,296.3
865.5,1373,9.9,7.4,85,7.50,17,5.0,295.0,316.9,296.3
864.9,1379,9.8,7.4,85,7.51,17,5.0,295.0,316.9,296.3
864.2,1385,9.8,7.4,85,7.50,17,4.9,295.0,316.9,296.3
863.6,1392,9.7,7.3,85,7.47,16,4.8,295.0,316.8,296.3
862.9,1398,9.7,7.3,85,7.46,16,4.7,295.0,316.8,296.3
862.2,1405,9.6,7.3,85,7.46,15,4.6,295.0,316.8,296.3
861.5,1411,9.6,7.3,86,7.46,14,4.5,295.0,316.8,296.3
860.8,1418,9.5,7.3,86,7.45,13,4.4,295.0,316.8,296.4
860.2,1425,9.5,7.2,86,7.43,12,4.3,295.0,316.7,296.3
859.5,1431,9.4,7.2,86,7.41,11,4.2,295.0,316.7,296.4
858.9,1437,9.4,7.1,86,7.39,9,4.1,295.0,316.6,296.4
858.3,1443,9.3,7.0,86,7.36,7,4.0,295.1,316.6,296.4
857.7,1449,9.3,6.9,85,7.31,6,3.9,295.1,316.5,296.4
857.1,1454,9.3,6.8,84,7.27,4,3.8,295.2,316.5,296.5
856.5,1460,9.3,6.8,84,7.26,2,3.7,295.2,316.5,296.5
856.0,1465,9.3,6.8,85,7.26,360,3.5,295.2,316.5,296.5
855.4,1471,9.2,6.8,85,7.26,357,3.4,295.2,316.5,296.5
854.8,1477,9.2,6.7,85,7.24,355,3.3,295.3,316.5,296.6
854.2,1482,9.1,6.7,85,7.24,352,3.2,295.3,316.5,296.6
853.6,1488,9.1,6.7,85,7.23,349,3.1,295.3,316.5,296.6
853.0,1494,9.1,6.6,85,7.20,345,3.0,295.3,316.4,296.6
852.5,1499,9.0,6.5,84,7.16,342,2.9,295.3,316.3,296.6
851.9,1505,9.0,6.5,84,7.12,338,2.8,295.4,316.3,296.7
851.4,1510,9.0,6.2,82,6.99,334,2.7,295.4,315.9,296.7
850.8,1515,9.1,5.6,78,6.70,330,2.6,295.6,315.3,296.8
850.3,1521,9.4,4.4,71,6.16,325,2.5,296.0,314.2,297.1
850.0,1523,9.6,3.7,67,5.90,320,2.4,296.2,313.7,297.3
849.7,1526,9.9,2.9,62,5.57,320,2.4,296.5,313.1,297.5
849.2,1532,10.3,1.8,56,5.13,315,2.3,297.0,312.3,297.9
848.6,1537,10.6,0.9,51,4.83,310,2.3,297.4,311.9,298.2
848.1,1542,10.8,0.4,49,4.65,305,2.3,297.6,311.6,298.4
847.6,1547,10.9,-0.1,47,4.50,299,2.2,297.8,311.4,298.6
847.1,1552,11.1,-0.7,44,4.29,294,2.2,298.0,311.0,298.8
846.6,1557,11.2,-1.2,42,4.14,288,2.2,298.2,310.8,299.0
846.1,1562,11.3,-1.6,41,4.04,283,2.2,298.4,310.6,299.1
845.6,1567,11.4,-2.2,39,3.85,278,2.3,298.5,310.3,299.2
845.0,1572,11.6,-3.5,35,3.49,273,2.3,298.8,309.5,299.4
844.5,1577,11.9,-5.6,29,2.99,269,2.3,299.1,308.4,299.7
843.9,1583,12.3,-8.0,23,2.48,265,2.4,299.6,307.4,300.1
843.4,1588,12.7,-10.5,19,2.04,261,2.4,300.1,306.5,300.4
842.8,1594,13.0,-12.7,15,1.71,257,2.5,300.4,305.9,300.7
842.3,1600,13.2,-14.8,13,1.44,253,2.5,300.7,305.4,301.0
841.7,1605,13.4,-16.9,11,1.21,250,2.5,301.0,305.0,301.2
841.2,1610,13.6,-19.0,9,1.01,246,2.6,301.3,304.7,301.5
840.6,1616,13.8,-20.4,8,0.90,243,2.6,301.5,304.6,301.7
840.1,1621,13.9,-20.7,7,0.88,240,2.6,301.7,304.6,301.8
839.5,1627,13.9,-20.6,8,0.89,237,2.7,301.8,304.7,301.9
838.9,1633,13.9,-20.7,7,0.88,234,2.7,301.8,304.8,302.0
838.4,1639,13.9,-20.9,7,0.86,231,2.7,301.9,304.8,302.0
837.8,1644,13.9,-21.2,7,0.84,228,2.7,301.9,304.8,302.1
837.2,1650,13.9,-21.6,7,0.81,225,2.7,302.0,304.8,302.2
836.7,1655,13.9,-22.0,7,0.79,222,2.8,302.1,304.7,302.2
836.2,1660,13.9,-22.1,7,0.78,219,2.8,302.1,304.8,302.3
835.7,1665,13.9,-21.7,7,0.81,217,2.8,302.2,304.9,302.3
835.2,1670,13.9,-21.1,7,0.85,214,2.8,302.2,305.1,302.4
834.8,1675,13.9,-20.5,8,0.90,211,2.9,302.3,305.3,302.4
834.3,1679,13.9,-20.1,8,0.93,209,2.9,302.3,305.5,302.5
833.9,1684,14.0,-19.8,8,0.96,207,2.9,302.4,305.6,302.6
833.4,1688,14.0,-19.5,8,0.98,205,3.0,302.5,305.7,302.7
832.9,1693,14.0,-19.3,8,0.99,203,3.0,302.5,305.8,302.7
832.5,1698,13.9,-19.2,8,1.01,201,3.1,302.5,305.9,302.7
832.0,1703,13.9,-19.2,9,1.01,199,3.1,302.5,305.9,302.7
831.4,1708,13.9,-19.1,9,1.01,198,3.2,302.6,305.9,302.8
830.9,1713,13.8,-19.2,9,1.01,197,3.2,302.6,305.9,302.8
830.4,1719,13.8,-19.4,8,0.99,196,3.3,302.6,305.9,302.8
829.9,1724,13.8,-19.9,8,0.96,196,3.3,302.6,305.8,302.8
829.4,1729,13.7,-20.3,8,0.92,195,3.3,302.6,305.7,302.8
829.0,1734,13.7,-20.2,8,0.93,195,3.4,302.6,305.7,302.8
828.5,1738,13.7,-19.9,8,0.96,195,3.4,302.7,305.9,302.8
828.0,1743,13.6,-19.8,8,0.96,195,3.4,302.7,305.9,302.9
827.6,1747,13.6,-20.1,8,0.94,196,3.4,302.7,305.8,302.9
827.2,1752,13.6,-20.7,8,0.89,196,3.4,302.7,305.7,302.9
826.7,1756,13.6,-21.3,7,0.85,197,3.4,302.7,305.6,302.9
826.2,1761,13.6,-21.8,7,0.81,198,3.4,302.8,305.5,302.9
825.8,1766,13.5,-22.1,7,0.79,199,3.4,302.8,305.5,302.9
825.3,1771,13.5,-22.1,7,0.79,200,3.4,302.8,305.5,302.9
824.8,1776,13.4,-22.1,7,0.79,201,3.4,302.8,305.5,302.9
824.3,1781,13.4,-22.0,7,0.80,202,3.4,302.8,305.5,303.0
823.8,1786,13.3,-22.0,7,0.80,203,3.3,302.8,305.5,303.0
823.3,1791,13.3,-21.9,7,0.80,205,3.3,302.8,305.5,303.0
822.8,1797,13.3,-21.9,7,0.81,206,3.3,302.8,305.5,303.0
822.3,1802,13.2,-21.9,7,0.81,207,3.2,302.8,305.5,303.0
821.8,1807,13.2,-21.9,7,0.81,208,3.2,302.8,305.6,303.0
821.2,1812,13.1,-21.9,7,0.81,209,3.2,302.8,305.6,303.0
820.7,1817,13.1,-21.9,7,0.81,210,3.1,302.8,305.6,303.0
820.2,1823,13.0,-21.9,7,0.81,211,3.1,302.8,305.6,303.0
819.6,1828,13.0,-21.9,7,0.81,212,3.1,302.8,305.6,303.0
819.1,1834,12.9,-21.9,7,0.81,212,3.0,302.8,305.6,303.0
818.5,1840,12.8,-22.0,7,0.80,213,3.0,302.8,305.5,303.0
817.9,1846,12.8,-22.1,7,0.80,213,2.9,302.8,305.5,303.0
817.3,1852,12.7,-22.1,7,0.80,214,2.9,302.9,305.6,303.0
816.7,1859,12.7,-22.1,7,0.80,214,2.9,302.9,305.6,303.0
816.1,1865,12.6,-22.0,7,0.81,214,2.9,302.9,305.6,303.0
