PRES,HGHT,TEMP,DWPT,RELH,MIXR,DRCT,SPED,THTA,THTE,THTV
1014.8,31,24.9,18.9,69,13.63,76,2.0,296.8,336.4,299.2
1014.7,32,24.8,19.6,73,14.32,87,1.3,296.7,338.2,299.2
1014.3,35,24.5,19.2,73,13.97,97,1.0,296.4,336.9,298.9
1013.6,41,24.1,19.1,73,13.83,102,1.0,296.1,336.1,298.6
1012.8,48,24.0,19.2,74,13.93,102,1.0,296.1,336.4,298.5
1012.3,52,23.9,19.1,74,13.89,101,1.1,296.0,336.2,298.5
1011.7,57,23.8,18.9,74,13.68,100,1.2,296.0,335.6,298.4
1011.0,64,23.8,18.6,73,13.44,99,1.3,296.0,334.9,298.4
1010.4,69,23.7,18.4,72,13.26,99,1.4,295.9,334.3,298.3
1009.8,74,23.6,18.2,72,13.14,98,1.5,295.9,333.9,298.2
1009.2,79,23.3,17.9,72,12.93,98,1.6,295.7,333.0,298.0
1008.6,84,23.2,17.9,72,12.93,98,1.6,295.6,333.0,297.9
1008.1,89,23.2,18.0,72,12.97,98,1.7,295.7,333.2,298.0
1007.6,93,23.2,17.9,72,12.95,97,1.8,295.7,333.1,298.0
1007.0,98,23.1,17.9,72,12.90,97,1.9,295.7,332.9,297.9
1006.5,102,23.1,17.8,72,12.85,97,2.0,295.7,332.8,297.9
1006.0,107,23.0,17.8,73,12.86,97,2.1,295.7,332.8,297.9
1005.5,111,23.0,17.8,73,12.86,96,2.2,295.7,332.8,297.9
1005.0,116,22.9,17.8,73,12.84,96,2.2,295.7,332.8,297.9
1004.5,120,22.9,17.8,73,12.84,96,2.3,295.7,332.8,297.9
1004.0,124,22.9,17.7,73,12.83,96,2.4,295.7,332.7,297.9
1003.5,128,22.8,17.7,73,12.81,96,2.5,295.7,332.7,297.9
1003.0,133,22.8,17.7,73,12.83,96,2.5,295.7,332.7,297.9
1002.5,137,22.7,17.7,73,12.84,95,2.6,295.7,332.8,298.0
1002.0,141,22.7,17.7,74,12.86,95,2.6,295.7,332.8,298.0
1001.5,146,22.6,17.7,74,12.85,95,2.7,295.7,332.8,297.9
1001.0,150,22.6,17.7,74,12.85,95,2.7,295.7,332.8,297.9
1000.5,155,22.6,17.7,74,12.84,95,2.8,295.7,332.8,297.9
1000.0,159,22.5,17.7,74,12.85,95,2.8,295.7,332.8,297.9
999.5,164,22.5,17.7,74,12.85,95,2.9,295.7,332.8,298.0
999.0,168,22.4,17.7,75,12.86,94,2.9,295.7,332.8,297.9
998.5,172,22.4,17.7,75,12.86,94,2.9,295.7,332.8,297.9
998.0,176,22.4,17.7,75,12.83,94,2.9,295.7,332.8,297.9
997.5,180,22.3,17.6,75,12.83,94,2.9,295.7,332.8,298.0
997.1,185,22.3,17.7,75,12.85,94,3.0,295.7,332.8,297.9
996.6,188,22.2,17.7,75,12.85,94,3.0,295.7,332.8,297.9
996.2,192,22.2,17.6,75,12.83,94,3.0,295.7,332.8,297.9
995.7,196,22.2,17.6,75,12.82,94,3.0,295.7,332.7,298.0
995.3,200,22.2,17.6,75,12.80,94,3.0,295.7,332.7,298.0
994.8,205,22.1,17.6,75,12.81,94,3.0,295.7,332.7,298.0
994.3,209,22.1,17.6,76,12.82,94,3.0,295.7,332.7,298.0
993.8,213,22.0,17.6,76,12.81,94,3.0,295.7,332.7,298.0
993.3,217,22.0,17.6,76,12.82,94,3.0,295.7,332.8,298.0
992.8,222,21.9,17.6,76,12.84,94,3.0,295.7,332.8,298.0
992.3,226,21.9,17.5,76,12.82,94,3.0,295.7,332.7,298.0
991.8,231,21.9,17.5,76,12.77,94,3.0,295.7,332.6,298.0
991.3,235,21.8,17.4,76,12.74,94,3.0,295.7,332.5,298.0
990.8,240,21.8,17.4,76,12.75,94,3.0,295.7,332.6,298.0
990.3,244,21.7,17.4,77,12.76,95,3.0,295.7,332.6,298.0
989.8,249,21.7,17.4,77,12.76,95,3.0,295.7,332.6,297.9
989.3,253,21.6,17.4,77,12.70,95,3.0,295.7,332.4,297.9
988.8,257,21.6,17.3,76,12.64,95,3.0,295.7,332.3,298.0
988.3,261,21.6,17.2,76,12.62,95,3.0,295.7,332.2,298.0
987.8,266,21.6,17.3,76,12.64,95,3.0,295.8,332.3,298.0
987.4,270,21.5,17.2,77,12.64,95,3.0,295.7,332.3,298.0
986.9,274,21.5,17.2,77,12.63,95,2.9,295.8,332.3,298.0
986.4,278,21.4,17.2,77,12.65,96,2.9,295.7,332.3,298.0
985.9,283,21.4,17.2,77,12.65,96,2.9,295.7,332.3,298.0
985.4,287,21.4,17.2,77,12.65,96,2.9,295.7,332.3,298.0
984.9,291,21.3,17.3,78,12.69,96,2.9,295.7,332.4,298.0
984.4,296,21.3,17.3,78,12.74,96,2.9,295.7,332.6,298.0
983.9,300,21.2,17.3,79,12.76,96,2.9,295.7,332.6,298.0
983.4,305,21.2,17.3,79,12.76,96,2.9,295.7,332.6,298.0
982.9,309,21.1,17.3,79,12.74,96,2.8,295.7,332.6,298.0
982.4,314,21.1,17.3,79,12.74,97,2.8,295.7,332.5,298.0
981.9,318,21.0,17.3,79,12.77,97,2.8,295.7,332.6,298.0
981.3,323,21.0,17.4,80,12.81,97,2.8,295.7,332.7,298.0
980.8,327,20.9,17.3,80,12.80,97,2.7,295.7,332.7,298.0
980.3,332,20.9,17.3,80,12.76,97,2.7,295.7,332.6,298.0
979.8,337,20.8,17.2,80,12.71,97,2.7,295.7,332.4,298.0
979.3,341,20.8,17.2,80,12.67,97,2.7,295.7,332.4,298.0
978.8,346,20.8,17.1,79,12.63,97,2.6,295.7,332.3,298.0
978.2,350,20.7,17.0,79,12.58,98,2.6,295.7,332.1,298.0
977.7,355,20.7,16.9,79,12.50,98,2.5,295.8,331.9,298.0
977.2,360,20.7,16.9,79,12.48,98,2.5,295.8,331.9,298.0
976.7,364,20.7,17.0,79,12.54,98,2.4,295.8,332.1,298.0
976.2,369,20.6,17.0,80,12.61,98,2.4,295.8,332.3,298.0
975.6,374,20.5,17.1,81,12.68,98,2.3,295.8,332.5,298.0
975.1,378,20.5,17.1,81,12.68,98,2.3,295.8,332.4,298.0
974.6,383,20.4,17.0,80,12.57,97,2.2,295.8,332.1,298.0
974.1,387,20.4,16.8,80,12.47,97,2.1,295.8,331.8,298.0
973.6,392,20.4,16.8,80,12.46,97,2.1,295.8,331.8,298.0
973.1,396,20.4,16.8,80,12.46,97,2.0,295.8,331.9,298.0
972.6,401,20.3,16.7,80,12.38,97,1.9,295.8,331.7,298.0
972.1,405,20.3,16.5,79,12.21,97,1.9,295.9,331.2,298.0
971.6,409,20.3,16.3,78,12.12,96,1.8,295.9,331.0,298.0
971.1,414,20.3,16.3,77,12.05,96,1.7,295.9,330.8,298.1
970.6,418,20.3,16.0,76,11.90,96,1.6,296.0,330.5,298.1
970.1,422,20.3,15.9,75,11.76,96,1.6,296.0,330.1,298.1
969.6,427,20.3,15.8,75,11.72,95,1.5,296.0,330.0,298.1
969.1,431,20.3,15.9,76,11.78,95,1.4,296.1,330.2,298.1
968.6,436,20.2,16.0,77,11.86,95,1.3,296.0,330.4,298.1
968.1,440,20.1,16.0,77,11.87,95,1.3,296.0,330.4,298.1
967.6,445,20.1,15.8,76,11.74,95,1.2,296.0,330.1,298.1
967.1,450,20.1,15.4,74,11.41,95,1.1,296.1,329.2,298.1
966.6,454,20.2,14.7,71,10.97,95,1.1,296.2,328.1,298.2
966.1,459,20.3,14.4,69,10.75,95,1.0,296.3,327.6,298.2
965.6,463,20.3,14.4,69,10.76,96,0.9,296.3,327.6,298.3
965.1,467,20.2,14.5,70,10.82,96,0.9,296.4,327.8,298.3
964.7,471,20.2,14.6,70,10.87,97,0.8,296.4,328.0,298.3
964.2,475,20.2,14.6,71,10.93,98,0.7,296.4,328.2,298.3
963.8,479,20.1,14.8,71,11.04,100,0.7,296.4,328.5,298.3
963.3,483,20.1,15.1,73,11.24,102,0.6,296.4,329.1,298.4
962.9,487,20.1,15.3,74,11.41,104,0.5,296.4,329.5,298.4
962.4,491,20.0,15.5,75,11.55,107,0.5,296.4,329.9,298.4
962.0,495,20.0,15.7,77,11.75,112,0.4,296.4,330.5,298.5
961.5,499,19.9,15.9,77,11.87,118,0.4,296.4,330.8,298.5
961.0,504,19.9,15.8,77,11.82,125,0.3,296.4,330.7,298.5
960.5,508,19.9,15.5,76,11.63,133,0.3,296.4,330.2,298.5
960.0,513,19.9,15.3,75,11.44,143,0.3,296.4,329.7,298.5
959.5,518,19.8,15.2,75,11.38,154,0.3,296.5,329.5,298.5
959.0,522,19.8,15.2,75,11.41,166,0.3,296.5,329.6,298.5
958.4,527,19.8,15.3,76,11.49,178,0.3,296.5,329.9,298.5
957.9,532,19.7,15.4,76,11.56,189,0.3,296.5,330.1,298.5
957.4,536,19.7,15.5,77,11.61,198,0.3,296.5,330.2,298.6
956.9,541,19.6,15.5,77,11.65,205,0.3,296.5,330.3,298.6
956.4,546,19.6,15.6,78,11.71,211,0.3,296.5,330.5,298.6
955.9,550,19.5,15.7,78,11.79,215,0.4,296.5,330.7,298.6
955.4,555,19.5,15.8,79,11.87,220,0.4,296.5,331.0,298.6
954.9,559,19.5,15.8,79,11.92,224,0.4,296.5,331.1,298.6
954.4,564,19.4,15.8,80,11.92,228,0.4,296.5,331.1,298.6
953.9,568,19.4,15.8,79,11.90,232,0.4,296.5,331.1,298.7
953.4,573,19.4,15.7,79,11.85,235,0.4,296.6,331.0,298.7
952.9,577,19.4,15.6,79,11.79,239,0.4,296.6,330.8,298.7
952.4,582,19.4,15.6,79,11.75,242,0.4,296.6,330.8,298.7
951.9,587,19.3,15.6,79,11.75,245,0.4,296.6,330.8,298.7
951.3,592,19.3,15.6,79,11.76,249,0.4,296.7,330.8,298.7
950.8,597,19.3,15.6,79,11.79,253,0.5,296.7,330.9,298.8
950.2,602,19.2,15.7,80,11.86,257,0.5,296.7,331.1,298.8
949.6,607,19.2,15.8,81,11.96,262,0.5,296.7,331.4,298.8
949.0,613,19.1,15.9,82,12.08,266,0.5,296.7,331.8,298.8
948.4,618,19.1,16.0,82,12.13,269,0.5,296.7,331.9,298.8
947.8,624,19.0,16.0,82,12.12,272,0.6,296.7,331.9,298.8
947.2,629,19.0,16.0,83,12.12,275,0.6,296.7,331.9,298.8
946.6,634,18.9,16.0,83,12.16,278,0.6,296.7,332.0,298.9
946.0,640,18.9,16.0,83,12.17,280,0.7,296.7,332.0,298.9
945.5,645,18.8,16.0,84,12.19,282,0.7,296.7,332.1,298.9
944.9,650,18.8,16.0,84,12.18,284,0.8,296.7,332.1,298.9
944.3,655,18.7,15.9,84,12.15,285,0.8,296.7,332.0,298.9
943.7,661,18.7,15.9,84,12.15,286,0.9,296.7,332.0,298.9
943.1,666,18.7,15.9,84,12.15,286,1.0,296.7,332.0,298.9
942.5,672,18.6,15.9,84,12.12,286,1.0,296.7,332.0,298.9
941.9,677,18.6,15.8,84,12.08,287,1.1,296.8,331.8,298.9
941.3,682,18.5,15.7,84,12.01,286,1.2,296.8,331.7,298.9
940.8,687,18.5,15.7,83,11.97,286,1.3,296.8,331.6,298.9
940.2,692,18.5,15.6,83,11.92,286,1.3,296.8,331.5,298.9
939.7,697,18.5,15.5,83,11.85,286,1.4,296.9,331.3,299.0
939.2,702,18.5,15.4,82,11.80,286,1.5,296.9,331.2,299.0
938.7,707,18.5,15.4,82,11.78,285,1.5,296.9,331.2,299.1
938.1,712,18.5,15.4,82,11.79,285,1.6,297.0,331.3,299.1
937.6,716,18.5,15.4,82,11.80,285,1.7,297.0,331.4,299.1
937.1,721,18.5,15.3,82,11.73,284,1.7,297.1,331.2,299.2
936.6,726,18.5,15.1,81,11.61,284,1.8,297.1,330.9,299.2
936.1,730,18.5,14.9,79,11.46,283,1.9,297.2,330.6,299.3
935.6,735,18.6,14.8,79,11.37,283,1.9,297.3,330.5,299.4
935.0,740,18.6,14.7,78,11.35,282,2.0,297.4,330.5,299.4
934.5,745,18.5,14.8,79,11.36,281,2.0,297.4,330.5,299.4
934.0,750,18.5,14.8,79,11.39,281,2.0,297.4,330.6,299.4
933.4,755,18.4,14.8,79,11.39,280,2.1,297.4,330.6,299.4
932.9,760,18.4,14.7,79,11.34,279,2.1,297.4,330.5,299.4
932.3,765,18.4,14.6,79,11.27,279,2.1,297.4,330.3,299.4
931.8,770,18.3,14.5,78,11.21,278,2.1,297.4,330.2,299.4
931.3,775,18.3,14.4,78,11.17,277,2.2,297.4,330.1,299.4
930.7,780,18.3,14.4,78,11.16,276,2.2,297.5,330.1,299.5
930.2,784,18.2,14.4,78,11.15,275,2.2,297.5,330.0,299.5
929.7,789,18.2,14.4,78,11.13,274,2.2,297.5,330.0,299.5
929.3,793,18.2,14.3,78,11.07,273,2.2,297.5,329.8,299.5
928.8,798,18.2,14.1,77,10.98,272,2.2,297.5,329.6,299.5
928.3,802,18.2,14.0,76,10.87,271,2.2,297.6,329.4,299.5
927.8,807,18.2,13.9,76,10.82,270,2.2,297.6,329.3,299.6
927.3,811,18.2,13.9,76,10.79,268,2.2,297.7,329.2,299.6
926.8,816,18.1,13.7,75,10.71,267,2.2,297.7,329.0,299.6
926.4,820,18.1,13.6,75,10.63,266,2.2,297.7,328.8,299.6
925.9,825,18.1,13.5,74,10.54,264,2.2,297.7,328.6,299.6
925.4,829,18.1,13.3,74,10.46,263,2.2,297.8,328.4,299.6
925.0,833,18.1,13.3,74,10.43,263,2.2,297.8,328.3,299.7
924.8,834,18.1,13.3,73,10.41,261,2.2,297.8,328.3,299.7
924.3,839,18.1,13.2,73,10.40,260,2.2,297.8,328.3,299.7
923.8,844,18.0,13.2,74,10.40,259,2.2,297.8,328.3,299.7
923.2,849,18.0,13.2,74,10.39,257,2.2,297.9,328.3,299.7
922.7,854,17.9,13.2,74,10.36,256,2.2,297.9,328.2,299.7
922.1,859,17.9,13.0,73,10.29,255,2.2,297.9,328.0,299.7
921.6,864,17.9,12.9,73,10.21,254,2.2,297.9,327.8,299.7
921.0,869,17.9,12.7,71,10.05,252,2.2,298.0,327.5,299.8
920.5,874,18.0,12.4,70,9.88,251,2.2,298.1,327.1,299.8
920.0,879,18.0,12.3,69,9.79,250,2.2,298.1,326.9,299.9
919.4,884,18.0,12.3,69,9.79,250,2.2,298.2,327.0,300.0
918.9,890,17.9,12.3,70,9.85,249,2.2,298.2,327.1,300.0
918.3,895,17.9,12.4,70,9.89,248,2.2,298.2,327.2,299.9
917.7,900,17.8,12.3,70,9.87,248,2.2,298.2,327.2,299.9
917.1,906,17.8,12.3,70,9.83,247,2.2,298.2,327.1,300.0
916.6,911,17.7,12.3,71,9.85,247,2.2,298.2,327.1,299.9
916.0,916,17.6,12.3,71,9.89,246,2.2,298.2,327.2,299.9
915.5,921,17.6,12.3,71,9.87,246,2.2,298.1,327.1,299.9
914.9,926,17.5,12.3,71,9.85,246,2.2,298.2,327.1,299.9
914.4,931,17.5,12.3,71,9.86,245,2.2,298.2,327.2,300.0
913.9,936,17.5,12.3,72,9.90,245,2.2,298.2,327.3,300.0
913.4,941,17.4,12.4,72,9.92,245,2.2,298.2,327.3,300.0
912.9,946,17.4,12.3,72,9.91,245,2.1,298.2,327.3,299.9
912.4,951,17.3,12.3,72,9.88,244,2.1,298.1,327.2,299.9
911.9,955,17.3,12.2,72,9.87,244,2.1,298.2,327.1,299.9
911.4,959,17.2,12.3,73,9.88,244,2.1,298.2,327.2,299.9
911.0,963,17.2,12.3,73,9.92,244,2.0,298.2,327.3,300.0
910.6,967,17.2,12.4,73,9.96,243,2.0,298.2,327.4,300.0
910.1,971,17.2,12.5,74,10.04,243,1.9,298.2,327.7,300.0
909.7,975,17.2,12.6,74,10.10,243,1.9,298.3,327.9,300.1
909.3,979,17.2,12.5,74,10.09,242,1.8,298.3,328.0,300.1
908.8,984,17.1,12.6,74,10.11,242,1.7,298.3,328.0,300.1
908.4,988,17.1,12.6,75,10.16,241,1.7,298.3,328.1,300.1
907.9,993,17.0,12.6,75,10.13,241,1.6,298.3,328.1,300.1
907.3,998,17.0,12.5,75,10.08,241,1.5,298.3,327.9,300.1
906.8,1003,17.0,12.5,75,10.06,240,1.5,298.3,327.9,300.1
906.2,1008,16.9,12.4,75,10.06,240,1.4,298.3,327.9,300.2
905.7,1014,16.9,12.5,75,10.08,240,1.3,298.3,328.0,300.2
905.1,1019,16.8,12.6,76,10.15,240,1.3,298.3,328.1,300.2
904.5,1025,16.7,12.6,77,10.18,240,1.2,298.3,328.2,300.1
903.9,1031,16.7,12.6,77,10.17,240,1.2,298.3,328.1,300.1
903.3,1036,16.6,12.5,77,10.12,241,1.1,298.3,328.0,300.1
902.7,1042,16.6,12.4,76,10.06,242,1.1,298.3,327.9,300.1
902.1,1047,16.5,12.4,76,10.05,243,1.1,298.3,327.8,300.1
901.6,1052,16.5,12.4,77,10.07,245,1.1,298.3,327.9,300.1
901.1,1056,16.5,12.4,77,10.10,246,1.1,298.4,328.0,300.2
900.7,1061,16.4,12.4,77,10.12,248,1.1,298.4,328.1,300.2
900.2,1065,16.4,12.5,78,10.14,249,1.2,298.4,328.2,300.2
899.7,1070,16.4,12.5,78,10.16,251,1.2,298.4,328.2,300.2
899.3,1074,16.3,12.5,78,10.15,253,1.3,298.4,328.2,300.2
898.8,1079,16.3,12.4,78,10.13,254,1.4,298.4,328.1,300.2
898.3,1084,16.2,12.4,78,10.10,256,1.4,298.4,328.1,300.2
897.8,1088,16.2,12.3,78,10.06,257,1.5,298.4,327.9,300.2
897.2,1093,16.1,12.2,78,10.02,258,1.6,298.4,327.8,300.2
896.7,1099,16.1,12.1,77,9.94,260,1.7,298.4,327.6,300.2
896.1,1104,16.1,11.8,76,9.74,261,1.8,298.5,327.1,300.2
895.6,1109,16.1,11.4,73,9.47,262,1.9,298.5,326.4,300.2
895.0,1115,16.2,11.0,71,9.24,263,2.0,298.6,325.9,300.3
894.4,1121,16.1,11.0,71,9.24,264,2.1,298.7,325.9,300.3
893.8,1126,16.1,11.2,73,9.38,265,2.2,298.7,326.3,300.3
893.1,1132,16.0,11.4,74,9.52,266,2.3,298.7,326.7,300.4
892.5,1138,16.0,11.3,74,9.48,268,2.4,298.7,326.6,300.4
891.9,1144,15.9,10.9,72,9.24,269,2.5,298.7,325.9,300.3
891.3,1150,15.9,10.4,70,8.93,270,2.5,298.7,325.1,300.3
890.7,1156,15.9,10.0,68,8.70,272,2.6,298.8,324.5,300.3
890.1,1161,15.9,9.9,68,8.65,273,2.7,298.8,324.4,300.4
889.6,1166,15.8,10.0,68,8.69,275,2.7,298.8,324.5,300.4
889.1,1171,15.8,10.1,69,8.73,276,2.8,298.8,324.6,300.4
888.6,1176,15.7,10.0,69,8.73,278,2.9,298.8,324.6,300.4
888.1,1180,15.7,9.9,68,8.66,280,2.9,298.8,324.4,300.4
887.6,1185,15.7,9.7,67,8.53,281,2.9,298.8,324.1,300.4
887.1,1190,15.7,9.4,66,8.38,283,3.0,298.9,323.7,300.4
886.7,1194,15.7,9.2,65,8.26,285,3.0,298.9,323.4,300.4
886.2,1198,15.7,9.1,65,8.22,287,3.1,299.0,323.4,300.5
885.8,1203,15.7,9.2,65,8.25,289,3.1,299.0,323.5,300.5
885.3,1207,15.6,9.3,66,8.34,291,3.1,299.0,323.7,300.5
884.9,1211,15.6,9.4,67,8.40,292,3.2,299.0,323.9,300.5
884.4,1215,15.5,9.4,67,8.41,294,3.2,299.0,323.9,300.5
884.0,1220,15.5,9.3,67,8.35,296,3.2,299.0,323.7,300.5
883.6,1224,15.5,9.1,66,8.26,298,3.2,299.0,323.5,300.5
883.2,1228,15.5,9.0,65,8.19,299,3.3,299.0,323.3,300.5
882.8,1231,15.5,8.9,65,8.13,301,3.3,299.1,323.2,300.6
882.4,1235,15.5,8.9,65,8.11,302,3.3,299.1,323.2,300.6
882.0,1239,15.4,8.8,65,8.09,304,3.3,299.1,323.1,300.6
881.6,1243,15.4,8.7,64,8.05,305,3.3,299.1,323.0,300.6
881.2,1247,15.4,8.6,64,7.96,307,3.2,299.1,322.8,300.6
880.8,1251,15.4,8.3,63,7.82,308,3.2,299.2,322.4,300.6
880.4,1255,15.4,8.0,61,7.65,310,3.2,299.3,322.0,300.6
879.9,1259,15.5,7.6,59,7.46,311,3.1,299.3,321.6,300.7
879.5,1263,15.5,7.4,59,7.39,313,3.1,299.4,321.4,300.8
879.1,1267,15.5,7.5,59,7.44,315,3.0,299.5,321.6,300.8
878.6,1272,15.5,7.5,59,7.44,317,2.9,299.5,321.7,300.8
878.2,1276,15.5,7.2,58,7.29,319,2.9,299.5,321.3,300.8
877.7,1280,15.5,6.4,55,6.88,321,2.8,299.6,320.2,300.9
877.3,1284,15.7,4.8,48,6.15,323,2.7,299.8,318.3,300.9
876.9,1288,15.9,2.8,41,5.34,326,2.6,300.1,316.3,301.1
876.5,1292,16.1,1.0,36,4.69,329,2.6,300.4,314.7,301.2
876.1,1296,16.3,-0.5,32,4.21,332,2.5,300.6,313.5,301.4
875.7,1300,16.5,-1.4,29,3.94,336,2.4,300.8,313.0,301.5
875.3,1303,16.6,-1.7,29,3.85,340,2.4,301.0,312.8,301.7
874.9,1307,16.6,-2.0,28,3.77,344,2.3,301.0,312.7,301.7
874.5,1311,16.6,-2.9,26,3.54,348,2.3,301.1,312.1,301.8
874.1,1316,16.8,-4.8,22,3.07,353,2.3,301.3,310.9,301.8
873.6,1320,17.0,-7.9,17,2.41,357,2.3,301.5,309.2,302.0
873.1,1325,17.3,-12.3,12,1.70,1,2.3,301.9,307.4,302.2
872.6,1330,17.5,-15.8,9,1.29,5,2.4,302.2,306.4,302.4
872.0,1336,17.7,-17.8,7,1.08,9,2.4,302.4,306.0,302.6
871.4,1341,17.8,-20.1,6,0.89,12,2.5,302.6,305.6,302.8
870.9,1347,17.9,-22.2,5,0.74,15,2.6,302.8,305.3,302.9
870.3,1353,18.0,-22.8,5,0.70,18,2.6,302.9,305.3,303.1
869.8,1358,18.0,-22.4,5,0.73,20,2.7,303.0,305.5,303.2
869.3,1363,18.0,-21.6,5,0.78,22,2.8,303.1,305.7,303.2
868.8,1367,18.0,-21.1,6,0.82,24,2.9,303.1,305.9,303.3
868.4,1371,18.0,-21.0,6,0.83,26,3.0,303.1,305.9,303.3
868.0,1375,18.0,-21.0,6,0.83,27,3.1,303.2,306.0,303.3
867.6,1379,18.0,-21.0,6,0.83,28,3.1,303.2,306.0,303.3
867.3,1382,18.0,-21.0,6,0.83,29,3.2,303.2,306.0,303.3
866.9,1386,17.9,-21.1,6,0.82,30,3.3,303.2,306.0,303.4
866.5,1390,17.9,-21.2,6,0.81,30,3.3,303.2,306.0,303.4
866.1,1394,17.9,-21.4,5,0.80,31,3.4,303.2,305.9,303.4
865.7,1398,17.8,-21.5,5,0.79,31,3.4,303.2,305.9,303.4
865.2,1402,17.8,-21.6,5,0.79,32,3.5,303.2,305.9,303.4
864.8,1407,17.8,-21.7,5,0.78,32,3.5,303.2,305.9,303.4
864.4,1411,17.7,-21.7,5,0.78,32,3.5,303.3,305.9,303.4
863.9,1415,17.7,-21.8,5,0.77,33,3.5,303.3,305.9,303.4
863.5,1419,17.7,-21.8,5,0.77,33,3.5,303.3,305.9,303.4
863.1,1423,17.7,-21.8,5,0.78,33,3.6,303.3,305.9,303.4
862.7,1427,17.6,-21.7,5,0.78,33,3.6,303.3,306.0,303.5
862.3,1431,17.6,-21.6,5,0.79,33,3.6,303.3,306.0,303.5
861.8,1436,17.6,-21.3,6,0.81,33,3.6,303.4,306.1,303.5
861.4,1440,17.6,-21.0,6,0.83,34,3.6,303.5,306.3,303.6
861.0,1444,17.7,-20.8,6,0.85,34,3.6,303.5,306.4,303.7
860.5,1449,17.7,-20.5,6,0.87,34,3.6,303.6,306.5,303.7
860.0,1454,17.7,-20.2,6,0.90,34,3.6,303.6,306.7,303.8
859.6,1458,17.7,-19.7,6,0.93,34,3.6,303.7,306.8,303.8
859.1,1463,17.7,-19.1,7,0.98,34,3.6,303.7,307.0,303.9
858.6,1468,17.7,-18.8,7,1.01,34,3.6,303.8,307.2,304.0
858.1,1473,17.7,-18.7,7,1.02,34,3.6,303.8,307.3,304.0
857.6,1478,17.7,-18.6,7,1.03,34,3.6,303.9,307.3,304.1
857.0,1483,17.7,-18.5,7,1.04,34,3.7,304.0,307.4,304.1
856.5,1488,17.7,-18.2,7,1.06,34,3.7,304.0,307.6,304.2
856.0,1493,17.7,-18.0,7,1.09,34,3.7,304.1,307.7,304.3
855.5,1498,17.7,-17.8,7,1.10,34,3.8,304.1,307.8,304.3
855.0,1503,17.7,-17.8,7,1.10,34,3.8,304.2,307.9,304.4
854.6,1508,17.7,-17.9,7,1.10,34,3.8,304.2,307.9,304.4
854.1,1512,17.7,-17.9,7,1.09,34,3.9,304.3,307.9,304.5
853.7,1516,17.7,-17.9,7,1.10,34,3.9,304.3,307.9,304.5
853.3,1520,17.7,-17.9,7,1.10,34,3.9,304.3,308.0,304.5
853.0,1524,17.7,-17.8,7,1.10,34,4.0,304.3,308.0,304.5
852.6,1528,17.6,-17.8,8,1.11,34,4.0,304.3,308.0,304.5
852.2,1531,17.6,-17.7,8,1.11,34,4.0,304.4,308.1,304.6
851.8,1535,17.6,-17.7,8,1.11,33,4.0,304.4,308.1,304.6
851.4,1539,17.6,-17.7,8,1.11,33,4.0,304.4,308.1,304.6
851.0,1544,17.6,-17.8,8,1.11,33,4.0,304.4,308.1,304.6
850.5,1548,17.5,-17.8,8,1.11,33,4.0,304.5,308.2,304.7
850.1,1553,17.5,-17.9,8,1.11,33,4.0,304.5,308.2,304.7
850.0,1554,17.5,-17.9,8,1.10,33,4.0,304.5,308.2,304.7
849.6,1558,17.5,-17.9,7,1.10,33,4.0,304.5,308.2,304.7
849.1,1563,17.5,-17.9,8,1.10,33,3.9,304.6,308.3,304.8
848.5,1568,17.5,-17.8,8,1.11,33,3.9,304.6,308.4,304.8
848.0,1574,17.5,-17.8,8,1.11,33,3.9,304.7,308.4,304.9
847.5,1579,17.5,-17.9,8,1.11,33,3.8,304.7,308.4,304.9
847.0,1584,17.5,-18.0,7,1.09,32,3.8,304.8,308.4,305.0
846.5,1589,17.5,-18.2,7,1.08,32,3.7,304.8,308.5,305.0
846.0,1593,17.5,-18.2,7,1.08,32,3.7,304.9,308.5,305.1
845.6,1598,17.5,-18.2,7,1.08,32,3.6,304.9,308.6,305.1
845.1,1603,17.5,-18.2,7,1.08,32,3.6,305.0,308.6,305.2
844.7,1607,17.5,-18.2,7,1.08,32,3.5,305.0,308.7,305.2
844.2,1612,17.5,-18.2,7,1.08,32,3.4,305.1,308.7,305.3
843.7,1617,17.5,-18.2,7,1.08,32,3.4,305.1,308.8,305.3
843.2,1622,17.5,-18.1,7,1.09,31,3.3,305.2,308.8,305.4
842.7,1627,17.5,-18.0,7,1.10,31,3.3,305.2,308.9,305.4
842.3,1631,17.5,-18.0,7,1.10,31,3.3,305.2,308.9,305.5
841.8,1636,17.5,-18.1,7,1.10,31,3.2,305.3,309.0,305.5
841.3,1641,17.5,-18.1,7,1.10,31,3.2,305.4,309.0,305.6
840.9,1645,17.5,-18.1,7,1.10,30,3.2,305.4,309.1,305.6
840.5,1649,17.5,-18.0,7,1.10,30,3.2,305.5,309.2,305.7
840.1,1654,17.6,-18.1,7,1.10,30,3.2,305.5,309.2,305.7
839.7,1658,17.6,-18.1,7,1.10,30,3.2,305.6,309.3,305.8
839.2,1662,17.6,-18.0,7,1.11,29,3.2,305.6,309.4,305.8
838.8,1666,17.6,-17.8,8,1.13,29,3.3,305.7,309.5,305.9
838.4,1670,17.6,-17.6,8,1.15,29,3.3,305.7,309.6,305.9
838.0,1675,17.5,-17.4,8,1.17,29,3.3,305.7,309.7,306.0
837.5,1679,17.5,-17.2,8,1.18,29,3.4,305.8,309.7,306.0
837.1,1684,17.5,-17.1,8,1.20,29,3.4,305.8,309.8,306.0
836.7,1688,17.5,-17.0,8,1.21,29,3.5,305.9,309.9,306.1
836.3,1692,17.5,-16.9,8,1.22,29,3.5,305.9,310.0,306.1
835.9,1696,17.5,-16.9,8,1.22,30,3.5,305.9,310.0,306.1
835.5,1700,17.5,-16.8,8,1.23,30,3.6,305.9,310.0,306.2
835.2,1703,17.5,-16.8,8,1.23,30,3.6,306.0,310.1,306.2
