PRES,HGHT,TEMP,DWPT,RELH,MIXR,DRCT,SPED,THTA,THTE,THTV
1011.0,31,24.8,20.5,77,15.20,41,3.6,297.0,341.1,299.7
1010.6,34,24.6,20.9,80,15.62,24,1.5,296.9,342.2,299.7
1010.0,39,24.3,20.8,81,15.49,13,1.1,296.6,341.5,299.4
1009.3,46,24.0,20.7,82,15.40,11,1.0,296.4,340.9,299.1
1008.5,52,23.8,20.5,82,15.27,16,1.1,296.2,340.4,299.0
1007.8,58,23.7,20.3,81,15.06,22,1.1,296.2,339.7,298.8
1007.3,63,23.5,20.0,81,14.81,27,1.2,296.1,338.9,298.7
1006.7,68,23.4,19.8,81,14.60,32,1.2,295.9,338.1,298.5
1006.2,73,23.2,19.7,80,14.48,37,1.3,295.8,337.7,298.4
1005.6,78,23.2,19.6,80,14.41,42,1.3,295.8,337.5,298.4
1005.0,83,23.1,19.5,80,14.36,47,1.4,295.9,337.4,298.4
1004.4,88,23.1,19.5,80,14.33,52,1.4,295.9,337.3,298.4
1003.8,93,23.0,19.5,80,14.32,58,1.5,295.8,337.2,298.4
1003.2,98,23.0,19.5,81,14.34,63,1.5,295.8,337.3,298.4
1002.6,104,22.9,19.5,81,14.39,68,1.6,295.8,337.4,298.4
1001.9,109,22.9,19.6,82,14.44,73,1.7,295.8,337.6,298.4
1001.3,115,22.8,19.6,82,14.48,77,1.8,295.9,337.7,298.4
1000.6,121,22.8,19.6,82,14.48,81,1.9,295.9,337.7,298.4
1000.0,126,22.7,19.6,82,14.48,81,1.9,295.9,337.7,298.4
999.9,127,22.7,19.6,82,14.48,85,2.0,295.9,337.7,298.4
999.3,133,22.7,19.6,83,14.47,89,2.0,295.9,337.7,298.4
998.6,138,22.6,19.5,83,14.44,92,2.1,295.9,337.6,298.4
998.0,144,22.6,19.5,83,14.42,96,2.2,295.9,337.5,298.4
997.4,149,22.5,19.5,83,14.43,98,2.3,295.9,337.6,298.4
996.7,155,22.5,19.5,83,14.44,101,2.4,295.9,337.6,298.5
996.1,160,22.5,19.5,83,14.47,104,2.5,296.0,337.8,298.6
995.5,166,22.5,19.5,83,14.47,106,2.6,296.0,337.9,298.6
994.9,171,22.5,19.5,83,14.47,108,2.7,296.1,337.9,298.6
994.3,176,22.4,19.5,84,14.47,110,2.7,296.0,337.9,298.6
993.7,181,22.3,19.5,84,14.46,112,2.8,296.0,337.8,298.6
993.2,186,22.3,19.5,84,14.48,113,2.9,296.0,337.8,298.5
992.6,191,22.2,19.5,85,14.53,115,2.9,296.0,338.0,298.6
992.1,195,22.2,19.5,85,14.53,116,3.0,296.0,338.0,298.6
991.6,200,22.1,19.4,85,14.47,117,3.0,296.0,337.8,298.5
991.1,204,22.1,19.4,85,14.44,119,3.0,296.0,337.7,298.5
990.6,208,22.0,19.4,85,14.46,120,3.1,295.9,337.7,298.5
990.1,213,22.0,19.4,86,14.49,121,3.1,296.0,337.8,298.5
989.6,217,21.9,19.4,86,14.47,121,3.1,295.9,337.8,298.5
989.1,222,21.9,19.4,86,14.44,122,3.1,295.9,337.6,298.5
988.6,227,21.8,19.4,86,14.47,123,3.1,295.9,337.7,298.5
988.0,231,21.7,19.4,87,14.48,124,3.1,295.9,337.7,298.4
987.5,236,21.7,19.3,87,14.45,124,3.1,295.9,337.6,298.4
987.0,241,21.6,19.3,86,14.40,125,3.1,295.9,337.5,298.4
986.5,245,21.6,19.2,86,14.35,125,3.1,295.9,337.4,298.5
986.0,250,21.6,19.2,86,14.30,125,3.1,296.0,337.3,298.5
985.5,254,21.7,19.1,85,14.27,125,3.1,296.0,337.3,298.6
985.0,258,21.6,19.1,86,14.27,125,3.1,296.0,337.3,298.6
984.5,263,21.6,19.1,86,14.28,125,3.1,296.0,337.3,298.6
984.0,267,21.6,19.1,86,14.27,125,3.1,296.1,337.3,298.6
983.4,272,21.5,19.1,86,14.31,125,3.1,296.1,337.5,298.6
982.9,277,21.5,19.1,86,14.33,124,3.1,296.1,337.6,298.7
982.3,282,21.5,19.1,86,14.31,124,3.1,296.1,337.5,298.7
981.6,288,21.5,19.0,86,14.27,123,3.1,296.2,337.4,298.7
981.0,293,21.4,19.0,86,14.23,123,3.1,296.2,337.4,298.7
980.4,299,21.4,19.0,86,14.25,122,3.1,296.2,337.4,298.7
979.7,305,21.3,19.0,87,14.29,122,3.1,296.2,337.5,298.7
979.1,311,21.3,19.0,87,14.29,121,3.2,296.2,337.5,298.7
978.4,316,21.2,19.0,87,14.23,121,3.2,296.2,337.4,298.7
977.8,322,21.2,18.9,87,14.16,120,3.2,296.2,337.2,298.7
977.2,327,21.1,18.8,86,14.09,119,3.2,296.2,337.0,298.7
976.7,332,21.1,18.7,86,14.05,119,3.3,296.2,336.9,298.7
976.1,337,21.1,18.7,87,14.08,119,3.3,296.3,337.0,298.8
975.6,341,21.0,18.8,87,14.14,118,3.3,296.3,337.2,298.8
975.1,346,21.0,18.8,87,14.17,118,3.4,296.3,337.3,298.8
974.6,350,21.0,18.8,88,14.18,118,3.4,296.3,337.3,298.8
974.1,355,20.9,18.8,88,14.16,118,3.4,296.3,337.3,298.8
973.7,359,20.9,18.8,88,14.15,118,3.5,296.3,337.2,298.8
973.2,363,20.8,18.8,88,14.14,118,3.5,296.3,337.2,298.8
972.7,367,20.8,18.7,88,14.08,118,3.6,296.3,337.0,298.8
972.2,372,20.8,18.6,87,13.97,118,3.6,296.3,336.7,298.8
971.7,376,20.7,18.4,86,13.79,118,3.6,296.3,336.2,298.8
971.2,381,20.7,18.2,85,13.63,119,3.7,296.4,335.8,298.8
970.7,385,20.7,18.1,85,13.56,119,3.7,296.4,335.7,298.8
970.2,389,20.7,18.1,85,13.56,120,3.8,296.4,335.7,298.8
969.8,393,20.7,18.1,85,13.60,121,3.8,296.4,335.8,298.8
969.3,398,20.6,18.2,86,13.66,121,3.9,296.4,336.0,298.8
968.8,402,20.6,18.2,86,13.72,122,3.9,296.4,336.1,298.8
968.4,406,20.5,18.2,87,13.73,123,3.9,296.4,336.2,298.8
967.9,410,20.5,18.2,87,13.70,123,4.0,296.4,336.1,298.8
967.5,414,20.5,18.1,86,13.64,124,4.0,296.4,335.9,298.8
967.0,418,20.5,18.0,86,13.56,125,4.0,296.4,335.7,298.9
966.5,423,20.5,17.9,85,13.48,126,4.0,296.5,335.6,298.9
966.1,427,20.5,17.8,85,13.43,126,4.1,296.5,335.4,298.9
965.6,431,20.4,17.8,85,13.40,127,4.1,296.5,335.4,298.9
965.1,435,20.4,17.8,85,13.37,128,4.1,296.5,335.3,298.9
964.6,440,20.4,17.7,85,13.31,129,4.1,296.5,335.1,298.9
964.1,444,20.3,17.5,84,13.20,129,4.1,296.6,334.8,298.9
963.7,448,20.3,17.4,83,13.06,130,4.1,296.6,334.5,298.9
963.2,452,20.3,17.2,82,12.95,130,4.1,296.6,334.2,298.9
962.7,457,20.3,17.1,82,12.83,131,4.1,296.7,333.9,299.0
962.3,461,20.3,16.9,81,12.72,132,4.0,296.7,333.6,299.0
961.8,465,20.3,16.8,81,12.65,132,4.0,296.7,333.5,299.0
961.3,469,20.3,16.8,80,12.59,133,4.0,296.7,333.3,299.0
960.8,474,20.3,16.7,80,12.55,133,3.9,296.8,333.2,299.0
960.4,478,20.2,16.7,80,12.55,134,3.9,296.8,333.2,299.0
959.9,482,20.2,16.7,80,12.56,135,3.9,296.8,333.3,299.0
959.5,486,20.1,16.7,81,12.57,135,3.8,296.8,333.3,299.0
959.0,490,20.1,16.7,81,12.59,136,3.8,296.8,333.3,299.0
958.6,494,20.1,16.7,81,12.58,136,3.7,296.8,333.3,299.0
958.1,498,20.0,16.6,81,12.53,137,3.7,296.8,333.2,299.0
957.6,503,20.0,16.6,81,12.51,138,3.6,296.8,333.1,299.0
957.1,507,20.0,16.6,81,12.51,138,3.6,296.8,333.2,299.0
956.6,511,19.9,16.6,81,12.52,139,3.5,296.8,333.2,299.1
956.1,516,19.9,16.6,81,12.51,140,3.5,296.8,333.2,299.0
955.6,521,19.8,16.6,81,12.49,140,3.4,296.8,333.1,299.0
955.1,525,19.8,16.5,81,12.48,141,3.4,296.8,333.1,299.0
954.6,530,19.8,16.5,82,12.47,142,3.3,296.8,333.1,299.0
954.1,534,19.7,16.5,82,12.48,143,3.3,296.8,333.1,299.1
953.6,539,19.7,16.5,82,12.50,144,3.2,296.9,333.2,299.1
953.1,544,19.7,16.5,82,12.52,144,3.2,296.9,333.3,299.1
952.6,548,19.7,16.5,82,12.53,145,3.1,296.9,333.3,299.2
952.1,553,19.7,16.5,82,12.52,146,3.1,296.9,333.3,299.2
951.6,557,19.7,16.5,82,12.47,147,3.0,297.0,333.3,299.2
951.1,562,19.7,16.4,81,12.42,148,3.0,297.0,333.2,299.2
950.5,567,19.7,16.3,81,12.38,149,3.0,297.1,333.1,299.3
950.0,571,19.6,16.3,81,12.36,149,2.9,297.1,333.1,299.3
949.5,576,19.6,16.3,81,12.35,150,2.9,297.1,333.0,299.3
949.1,580,19.6,16.3,81,12.35,151,2.9,297.1,333.1,299.3
948.6,584,19.5,16.3,82,12.38,152,2.8,297.1,333.2,299.3
948.2,588,19.5,16.3,82,12.42,153,2.8,297.1,333.3,299.3
947.7,592,19.5,16.4,82,12.45,153,2.8,297.1,333.4,299.4
947.3,596,19.4,16.4,83,12.48,154,2.8,297.2,333.5,299.4
946.9,600,19.4,16.4,83,12.50,155,2.8,297.2,333.5,299.4
946.5,603,19.4,16.4,83,12.51,155,2.8,297.2,333.6,299.4
946.1,607,19.3,16.4,83,12.53,155,2.7,297.1,333.6,299.4
945.7,611,19.3,16.4,84,12.54,156,2.7,297.1,333.6,299.4
945.3,615,19.2,16.4,84,12.53,156,2.7,297.1,333.6,299.4
944.8,619,19.2,16.4,84,12.50,156,2.7,297.1,333.5,299.4
944.4,623,19.2,16.3,84,12.47,157,2.7,297.1,333.4,299.4
944.0,627,19.2,16.3,84,12.46,157,2.7,297.2,333.4,299.4
943.5,630,19.1,16.3,84,12.45,157,2.7,297.2,333.4,299.4
943.1,634,19.1,16.3,84,12.45,157,2.7,297.2,333.4,299.4
942.7,638,19.1,16.3,84,12.44,157,2.7,297.2,333.4,299.4
942.2,643,19.1,16.3,84,12.43,157,2.7,297.2,333.4,299.5
941.8,647,19.0,16.2,84,12.41,157,2.7,297.2,333.4,299.5
941.3,651,19.0,16.2,84,12.40,157,2.6,297.3,333.4,299.5
940.8,655,19.0,16.2,84,12.39,157,2.6,297.3,333.3,299.5
940.3,660,18.9,16.2,84,12.39,157,2.6,297.3,333.3,299.5
939.9,664,18.9,16.2,84,12.38,157,2.6,297.3,333.3,299.5
939.4,669,18.9,16.2,84,12.39,157,2.6,297.3,333.3,299.5
938.9,673,18.8,16.2,85,12.39,157,2.6,297.3,333.3,299.5
938.4,678,18.8,16.1,85,12.39,157,2.5,297.3,333.4,299.5
937.9,682,18.7,16.1,85,12.39,157,2.5,297.3,333.4,299.5
937.5,686,18.7,16.1,85,12.40,157,2.5,297.3,333.4,299.5
937.0,691,18.7,16.1,85,12.40,156,2.5,297.3,333.4,299.5
936.5,695,18.6,16.1,85,12.41,156,2.4,297.3,333.4,299.5
936.1,699,18.6,16.1,85,12.38,156,2.4,297.3,333.3,299.5
935.6,703,18.5,16.1,85,12.36,156,2.4,297.3,333.3,299.5
935.2,707,18.5,16.0,86,12.36,156,2.3,297.3,333.3,299.5
934.7,711,18.5,16.1,86,12.37,156,2.3,297.3,333.3,299.5
934.3,715,18.4,16.1,86,12.38,155,2.3,297.3,333.3,299.5
933.9,719,18.4,16.0,86,12.36,155,2.3,297.3,333.3,299.5
933.5,723,18.4,16.0,86,12.35,155,2.2,297.3,333.2,299.5
933.0,727,18.3,16.0,86,12.34,155,2.2,297.3,333.2,299.5
932.6,731,18.3,16.0,86,12.35,155,2.2,297.3,333.3,299.5
932.2,735,18.3,16.0,87,12.35,155,2.1,297.3,333.3,299.5
931.7,739,18.2,16.0,87,12.34,156,2.1,297.3,333.2,299.5
931.3,743,18.2,15.9,87,12.32,156,2.1,297.3,333.2,299.5
930.8,747,18.2,15.9,87,12.29,156,2.1,297.3,333.1,299.5
930.3,752,18.1,15.8,86,12.24,157,2.0,297.4,333.0,299.6
929.9,756,18.1,15.8,86,12.23,157,2.0,297.4,333.0,299.6
929.4,761,18.1,15.8,86,12.22,158,2.0,297.4,333.0,299.6
928.9,765,18.1,15.8,86,12.21,159,1.9,297.5,333.0,299.6
928.5,769,18.1,15.7,86,12.20,159,1.9,297.5,333.1,299.7
928.0,773,18.1,15.7,86,12.19,160,1.9,297.5,333.0,299.7
927.5,778,18.1,15.7,86,12.16,161,1.8,297.5,333.0,299.7
927.1,782,18.0,15.6,86,12.12,162,1.8,297.6,332.9,299.7
926.6,786,18.0,15.6,85,12.08,163,1.8,297.6,332.8,299.7
926.2,790,18.0,15.5,85,12.07,164,1.7,297.6,332.8,299.8
925.7,795,18.0,15.6,86,12.10,165,1.7,297.6,332.9,299.8
925.2,800,18.0,15.6,86,12.15,166,1.7,297.6,333.1,299.8
925.0,801,17.9,15.6,86,12.16,167,1.6,297.6,333.1,299.8
924.7,804,17.9,15.7,87,12.18,167,1.6,297.6,333.2,299.8
924.1,809,17.9,15.7,87,12.19,168,1.6,297.6,333.2,299.8
923.6,814,17.8,15.6,87,12.18,168,1.6,297.6,333.2,299.8
923.0,819,17.8,15.6,87,12.14,169,1.5,297.6,333.1,299.8
922.5,824,17.7,15.5,87,12.10,170,1.5,297.7,333.0,299.8
922.0,829,17.7,15.5,87,12.09,170,1.5,297.7,332.9,299.8
921.4,834,17.7,15.5,87,12.07,171,1.4,297.7,332.9,299.9
920.9,839,17.7,15.4,87,12.05,171,1.4,297.7,332.9,299.9
920.4,844,17.7,15.4,86,12.02,171,1.4,297.8,332.9,299.9
919.9,848,17.7,15.3,86,12.00,171,1.3,297.8,332.8,300.0
919.4,853,17.6,15.3,86,12.01,170,1.3,297.8,332.9,300.0
918.9,858,17.6,15.4,87,12.06,169,1.3,297.9,333.1,300.0
918.4,862,17.6,15.4,87,12.10,169,1.3,297.9,333.2,300.1
917.9,867,17.6,15.4,87,12.08,168,1.3,297.9,333.2,300.1
917.4,872,17.5,15.3,87,12.03,167,1.3,297.9,333.1,300.1
916.9,877,17.5,15.3,87,11.98,166,1.3,297.9,332.9,300.1
916.4,881,17.5,15.2,87,11.96,165,1.3,297.9,332.9,300.1
915.9,886,17.4,15.2,87,11.95,164,1.3,298.0,332.9,300.1
915.3,891,17.4,15.2,87,11.95,163,1.3,298.0,332.9,300.1
914.8,896,17.3,15.2,87,11.98,162,1.3,298.0,333.0,300.1
914.3,901,17.3,15.3,88,12.02,162,1.3,298.0,333.1,300.1
913.8,905,17.3,15.3,88,12.03,161,1.4,298.0,333.1,300.1
913.3,910,17.2,15.3,88,12.06,161,1.4,298.0,333.2,300.2
912.8,915,17.2,15.3,89,12.07,161,1.4,298.0,333.3,300.1
912.3,919,17.1,15.3,89,12.06,161,1.5,298.0,333.2,300.2
911.8,924,17.1,15.2,89,12.00,161,1.5,298.0,333.1,300.1
911.3,929,17.1,15.1,88,11.92,162,1.6,298.0,332.9,300.1
910.8,934,17.0,15.0,88,11.85,162,1.6,298.0,332.7,300.2
910.3,938,17.0,14.9,87,11.80,163,1.7,298.1,332.5,300.2
909.8,943,17.0,14.8,87,11.75,164,1.7,298.1,332.4,300.2
909.3,948,17.0,14.8,87,11.70,165,1.7,298.1,332.3,300.2
908.8,953,17.0,14.7,87,11.65,165,1.8,298.1,332.2,300.2
908.3,957,16.9,14.6,86,11.60,166,1.8,298.2,332.1,300.2
907.7,962,16.9,14.6,86,11.56,167,1.9,298.2,332.0,300.3
907.2,968,16.9,14.5,86,11.53,168,1.9,298.2,331.9,300.3
906.7,973,16.8,14.5,86,11.50,169,2.0,298.2,331.9,300.3
906.1,978,16.8,14.4,86,11.44,170,2.0,298.2,331.8,300.3
905.6,983,16.8,14.3,85,11.39,170,2.1,298.3,331.6,300.3
905.0,988,16.8,14.2,85,11.35,171,2.1,298.3,331.6,300.4
904.5,993,16.8,14.2,85,11.33,172,2.1,298.4,331.5,300.4
904.0,998,16.8,14.2,85,11.32,172,2.2,298.4,331.6,300.4
903.5,1002,16.7,14.2,85,11.33,172,2.2,298.4,331.6,300.4
903.0,1007,16.7,14.2,85,11.33,172,2.2,298.4,331.6,300.4
902.6,1011,16.6,14.2,85,11.32,172,2.2,298.4,331.6,300.4
902.1,1016,16.6,14.2,86,11.35,172,2.2,298.4,331.7,300.4
901.7,1020,16.6,14.2,86,11.38,172,2.2,298.4,331.7,300.4
901.2,1024,16.5,14.2,86,11.40,172,2.2,298.4,331.8,300.5
900.8,1029,16.5,14.2,86,11.38,172,2.2,298.4,331.8,300.5
900.3,1033,16.5,14.1,86,11.32,171,2.2,298.5,331.6,300.5
899.8,1037,16.5,14.0,86,11.27,171,2.1,298.5,331.5,300.5
899.3,1042,16.4,14.0,85,11.24,170,2.1,298.5,331.4,300.5
898.8,1047,16.4,14.0,86,11.22,169,2.1,298.5,331.4,300.5
898.2,1052,16.3,13.9,86,11.19,169,2.0,298.5,331.3,300.5
897.7,1058,16.3,13.9,85,11.16,168,2.0,298.5,331.2,300.5
897.1,1063,16.2,13.8,86,11.14,167,1.9,298.5,331.2,300.5
896.6,1068,16.2,13.8,86,11.14,166,1.9,298.5,331.2,300.5
896.1,1073,16.2,13.8,86,11.15,165,1.8,298.5,331.2,300.5
895.5,1078,16.1,13.8,86,11.16,163,1.8,298.5,331.3,300.5
895.0,1083,16.1,13.8,86,11.16,162,1.7,298.6,331.3,300.6
894.5,1088,16.0,13.8,87,11.15,161,1.7,298.6,331.3,300.6
893.9,1093,16.0,13.8,87,11.13,160,1.6,298.6,331.2,300.6
893.4,1099,16.0,13.7,86,11.09,158,1.5,298.6,331.1,300.6
892.8,1104,16.0,13.6,86,11.03,157,1.5,298.6,331.0,300.6
892.2,1110,16.0,13.5,85,10.98,156,1.4,298.7,330.9,300.7
891.7,1115,16.0,13.4,85,10.91,155,1.3,298.7,330.8,300.7
891.1,1120,16.0,13.4,84,10.88,154,1.3,298.8,330.8,300.8
890.6,1126,16.0,13.4,84,10.88,153,1.2,298.8,330.8,300.8
890.0,1131,15.9,13.3,85,10.87,152,1.2,298.9,330.8,300.8
889.5,1136,15.9,13.3,85,10.86,152,1.1,298.9,330.8,300.8
889.0,1140,15.8,13.3,85,10.85,151,1.0,298.9,330.7,300.8
888.5,1145,15.8,13.3,85,10.84,152,1.0,298.9,330.7,300.8
888.0,1150,15.7,13.3,85,10.85,153,0.9,298.9,330.7,300.8
887.5,1155,15.7,13.3,85,10.85,154,0.8,298.9,330.8,300.8
887.0,1159,15.7,13.3,86,10.87,157,0.8,298.9,330.8,300.8
886.5,1164,15.6,13.3,86,10.89,160,0.7,298.9,330.9,300.8
886.1,1169,15.6,13.3,86,10.90,165,0.7,298.9,330.9,300.8
885.6,1173,15.6,13.3,87,10.92,170,0.7,298.9,331.0,300.9
885.1,1178,15.5,13.3,87,10.93,177,0.6,298.9,331.1,300.9
884.6,1183,15.5,13.3,87,10.93,185,0.6,299.0,331.1,300.9
884.1,1188,15.5,13.3,87,10.92,194,0.6,299.0,331.1,301.0
883.6,1193,15.5,13.3,86,10.90,202,0.7,299.1,331.1,301.0
883.1,1198,15.5,13.2,86,10.88,209,0.7,299.1,331.1,301.1
882.5,1203,15.5,13.2,86,10.86,216,0.8,299.2,331.1,301.1
882.0,1208,15.5,13.2,86,10.86,221,0.8,299.2,331.1,301.1
881.5,1213,15.5,13.2,86,10.87,226,0.9,299.2,331.2,301.2
880.9,1218,15.4,13.2,86,10.88,229,1.0,299.2,331.2,301.2
880.4,1223,15.4,13.2,87,10.89,232,1.1,299.2,331.3,301.2
879.8,1229,15.3,13.2,87,10.91,235,1.2,299.2,331.4,301.2
879.2,1235,15.3,13.2,87,10.93,237,1.3,299.3,331.4,301.2
878.6,1240,15.3,13.2,87,10.92,239,1.4,299.3,331.4,301.3
878.0,1246,15.3,13.2,87,10.90,240,1.5,299.3,331.4,301.3
877.4,1252,15.2,13.1,87,10.87,242,1.6,299.4,331.4,301.3
876.9,1257,15.2,13.1,87,10.84,243,1.6,299.4,331.3,301.3
876.3,1263,15.2,13.0,87,10.83,245,1.7,299.4,331.3,301.4
875.7,1269,15.2,13.0,87,10.82,246,1.8,299.5,331.3,301.4
875.1,1274,15.1,13.0,87,10.82,247,1.8,299.5,331.4,301.4
874.6,1280,15.1,13.0,87,10.83,249,1.9,299.5,331.4,301.4
874.0,1285,15.1,13.0,87,10.83,250,1.9,299.5,331.4,301.5
873.5,1290,15.1,13.0,87,10.83,251,2.0,299.6,331.5,301.5
872.9,1296,15.1,13.0,87,10.86,252,2.0,299.6,331.7,301.6
872.4,1301,15.1,13.1,88,10.90,254,2.1,299.7,331.8,301.6
871.9,1306,15.1,13.1,88,10.94,255,2.1,299.7,332.0,301.7
871.3,1311,15.0,13.1,89,10.96,256,2.1,299.7,332.0,301.7
870.8,1316,15.0,13.1,89,10.97,257,2.2,299.7,332.1,301.7
870.3,1322,14.9,13.1,89,10.97,259,2.2,299.7,332.1,301.7
869.7,1327,14.9,13.1,89,10.97,260,2.2,299.7,332.1,301.7
869.2,1332,14.8,13.1,89,10.97,260,2.3,299.7,332.1,301.7
868.6,1338,14.8,13.1,90,10.97,261,2.3,299.7,332.1,301.7
868.1,1343,14.7,13.1,90,10.97,262,2.3,299.7,332.1,301.7
867.5,1349,14.7,13.1,90,10.97,262,2.4,299.7,332.1,301.7
867.0,1354,14.6,13.1,90,10.97,262,2.4,299.7,332.1,301.7
866.4,1359,14.6,13.0,90,10.95,262,2.5,299.8,332.1,301.7
865.9,1365,14.5,13.0,90,10.92,262,2.5,299.8,332.0,301.7
865.3,1370,14.5,12.9,90,10.90,262,2.6,299.8,331.9,301.7
864.8,1375,14.4,12.9,90,10.87,261,2.6,299.8,331.8,301.7
864.2,1380,14.4,12.9,91,10.86,260,2.7,299.8,331.8,301.7
863.7,1386,14.3,12.9,91,10.88,259,2.7,299.8,331.9,301.7
863.2,1391,14.3,12.9,91,10.89,258,2.8,299.8,331.9,301.7
862.6,1396,14.2,12.9,92,10.91,257,2.9,299.8,332.0,301.8
862.1,1402,14.2,12.9,92,10.92,256,3.0,299.8,332.0,301.8
861.6,1407,14.2,12.9,92,10.90,255,3.0,299.8,331.9,301.8
861.0,1412,14.1,12.9,92,10.89,254,3.1,299.8,331.9,301.8
860.5,1417,14.0,12.9,93,10.90,253,3.2,299.8,331.9,301.8
860.0,1422,14.0,12.9,93,10.91,253,3.2,299.8,332.0,301.8
859.5,1427,14.0,12.9,93,10.91,252,3.3,299.8,332.0,301.8
859.1,1431,14.0,12.9,93,10.92,251,3.4,299.8,332.0,301.8
858.6,1436,14.0,12.8,93,10.91,250,3.4,299.9,332.1,301.9
858.2,1440,14.0,12.8,93,10.89,250,3.5,300.0,332.1,301.9
857.7,1444,14.0,12.8,92,10.87,249,3.6,300.0,332.1,302.0
857.3,1449,14.0,12.7,92,10.85,249,3.6,300.0,332.0,302.0
856.8,1453,13.9,12.7,92,10.83,249,3.7,300.0,332.0,302.0
856.4,1458,13.9,12.7,92,10.81,249,3.7,300.0,332.0,302.0
855.9,1463,13.9,12.6,92,10.80,249,3.7,300.1,332.0,302.0
855.3,1468,13.8,12.6,93,10.81,249,3.7,300.1,332.0,302.0
854.8,1473,13.7,12.7,93,10.84,249,3.8,300.0,332.0,302.0
854.3,1479,13.7,12.7,94,10.86,250,3.8,300.0,332.1,302.0
853.7,1484,13.7,12.7,94,10.86,250,3.8,300.1,332.1,302.0
853.2,1489,13.6,12.6,94,10.83,251,3.8,300.1,332.1,302.0
852.7,1495,13.6,12.6,94,10.82,251,3.8,300.1,332.0,302.0
852.1,1500,13.5,12.6,94,10.82,252,3.7,300.1,332.0,302.0
851.6,1505,13.5,12.6,94,10.83,253,3.7,300.1,332.1,302.0
851.1,1510,13.4,12.6,95,10.84,253,3.7,300.1,332.1,302.0
850.6,1515,13.4,12.6,95,10.85,254,3.7,300.1,332.2,302.1
850.1,1520,13.4,12.6,95,10.85,255,3.7,300.1,332.2,302.1
850.0,1521,13.4,12.6,95,10.85,255,3.7,300.1,332.2,302.1
849.5,1526,13.3,12.6,95,10.85,255,3.7,300.1,332.2,302.1
849.0,1531,13.3,12.6,95,10.84,256,3.7,300.1,332.2,302.1
848.5,1536,13.2,12.5,95,10.80,257,3.6,300.2,332.1,302.1
848.0,1541,13.2,12.4,95,10.75,257,3.6,300.2,331.9,302.1
847.5,1546,13.2,12.4,95,10.72,258,3.6,300.2,331.9,302.1
847.0,1551,13.1,12.4,95,10.72,258,3.6,300.2,331.9,302.1
846.5,1556,13.1,12.4,95,10.73,258,3.6,300.2,331.9,302.1
846.0,1561,13.0,12.4,96,10.75,259,3.6,300.2,332.0,302.1
845.5,1566,13.0,12.4,96,10.78,259,3.6,300.2,332.0,302.1
845.0,1571,12.9,12.4,97,10.78,259,3.6,300.2,332.0,302.1
844.5,1576,12.9,12.4,97,10.77,259,3.6,300.2,332.0,302.1
844.0,1581,12.8,12.3,97,10.74,258,3.6,300.2,331.9,302.1
843.5,1586,12.8,12.3,97,10.71,258,3.6,300.2,331.8,302.1
843.0,1591,12.8,12.2,97,10.69,258,3.6,300.2,331.8,302.1
842.5,1596,12.7,12.2,97,10.68,257,3.6,300.2,331.8,302.2
842.0,1601,12.7,12.2,97,10.64,257,3.7,300.2,331.7,302.2
841.4,1606,12.7,12.1,96,10.59,256,3.7,300.3,331.6,302.2
840.9,1612,12.7,12.0,96,10.54,256,3.8,300.3,331.5,302.3
840.3,1617,12.7,12.0,95,10.52,255,3.8,300.4,331.5,302.3
839.8,1623,12.7,12.0,96,10.52,255,3.9,300.4,331.6,302.3
839.3,1628,12.6,12.0,96,10.54,254,3.9,300.4,331.6,302.3
838.8,1633,12.6,12.0,97,10.60,253,4.0,300.4,331.8,302.3
838.3,1638,12.5,12.1,98,10.66,253,4.0,300.4,331.9,302.3
837.8,1643,12.4,12.1,98,10.68,252,4.1,300.4,332.0,302.3
837.3,1647,12.4,12.1,98,10.67,252,4.1,300.4,331.9,302.3
836.9,1652,12.3,12.1,98,10.66,251,4.2,300.4,331.9,302.3
836.5,1656,12.3,12.1,98,10.63,251,4.2,300.4,331.8,302.3
836.1,1660,12.3,12.0,98,10.61,250,4.3,300.4,331.8,302.3
835.7,1664,12.2,12.0,98,10.58,250,4.3,300.4,331.7,302.3
835.3,1668,12.2,11.9,98,10.55,250,4.4,300.4,331.6,302.3
834.9,1672,12.2,11.9,98,10.52,249,4.4,300.5,331.6,302.4
834.5,1676,12.2,11.8,97,10.48,249,4.4,300.5,331.5,302.4
834.1,1680,12.2,11.8,97,10.47,249,4.4,300.5,331.5,302.4
833.7,1684,12.2,11.7,97,10.45,249,4.5,300.5,331.5,302.4
833.3,1689,12.2,11.7,97,10.42,249,4.5,300.6,331.4,302.4
832.8,1693,12.1,11.6,96,10.36,249,4.4,300.6,331.3,302.5
832.4,1697,12.2,11.5,96,10.30,250,4.4,300.7,331.2,302.5
832.0,1702,12.2,11.5,96,10.28,250,4.4,300.7,331.2,302.6
831.5,1706,12.1,11.5,96,10.28,251,4.4,300.7,331.2,302.6
831.0,1711,12.1,11.5,96,10.28,251,4.3,300.7,331.2,302.6
830.5,1716,12.1,11.4,96,10.28,252,4.3,300.7,331.2,302.6
830.0,1721,12.0,11.4,96,10.26,253,4.2,300.8,331.2,302.6
829.5,1726,12.0,11.4,96,10.24,254,4.2,300.8,331.2,302.6
