PRES,HGHT,TEMP,DWPT,RELH,MIXR,DRCT,SPED,THTA,THTE,THTV
1013.9,31,22.6,20.9,90,15.51,301,1.3,294.6,339.1,297.3
1012.8,40,23.1,21.0,88,15.60,19,0.8,295.2,340.1,298.0
1012.1,46,23.5,21.0,86,15.68,41,1.1,295.6,340.8,298.4
1011.6,51,23.7,21.0,85,15.64,46,1.3,295.8,341.0,298.6
1011.1,55,23.8,20.8,84,15.52,48,1.5,296.0,340.8,298.7
1010.6,59,23.9,20.8,83,15.45,49,1.6,296.1,340.8,298.8
1010.0,64,23.9,20.7,82,15.40,50,1.7,296.2,340.8,298.9
1009.4,69,24.0,20.7,82,15.40,51,1.8,296.3,340.9,299.1
1008.8,75,24.0,20.7,82,15.41,52,2.0,296.4,341.0,299.2
1008.2,80,24.0,20.7,81,15.39,54,2.1,296.5,341.0,299.2
1007.6,85,24.1,20.6,81,15.32,55,2.3,296.6,340.9,299.3
1007.0,90,24.2,20.5,80,15.28,56,2.4,296.8,341.1,299.5
1006.4,96,24.4,20.5,79,15.30,57,2.6,297.0,341.5,299.8
1005.7,101,24.6,20.5,78,15.26,58,2.7,297.2,341.6,299.9
1005.1,107,24.6,20.4,78,15.22,59,2.9,297.3,341.6,300.0
1004.4,113,24.7,20.4,77,15.22,59,3.0,297.4,341.7,300.1
1003.8,119,24.7,20.4,77,15.22,60,3.2,297.5,341.7,300.2
1003.1,125,24.6,20.4,77,15.21,61,3.3,297.5,341.8,300.2
1002.4,131,24.6,20.4,77,15.24,61,3.4,297.6,341.9,300.3
1001.7,137,24.6,20.5,78,15.29,62,3.6,297.6,342.1,300.3
1001.0,143,24.5,20.5,78,15.31,62,3.7,297.6,342.1,300.3
1000.4,149,24.5,20.4,78,15.29,62,3.8,297.6,342.1,300.3
1000.0,152,24.5,20.4,78,15.26,62,3.8,297.6,342.0,300.3
999.7,155,24.4,20.4,78,15.25,63,3.9,297.6,342.0,300.3
999.0,161,24.4,20.4,78,15.23,63,4.0,297.6,341.9,300.3
998.3,167,24.3,20.3,78,15.23,63,4.0,297.6,341.9,300.3
997.7,172,24.3,20.3,79,15.24,64,4.1,297.6,342.0,300.3
997.0,178,24.2,20.3,79,15.24,64,4.2,297.6,342.0,300.3
996.3,184,24.2,20.3,79,15.26,64,4.2,297.6,342.0,300.4
995.7,190,24.1,20.4,80,15.29,64,4.3,297.6,342.1,300.4
995.1,195,24.1,20.4,80,15.32,64,4.3,297.6,342.2,300.4
994.5,200,24.0,20.3,80,15.29,64,4.4,297.6,342.1,300.4
993.9,206,24.0,20.3,80,15.25,64,4.4,297.6,342.0,300.3
993.3,210,23.9,20.2,80,15.22,64,4.4,297.6,341.9,300.4
992.8,215,23.9,20.2,80,15.15,64,4.4,297.6,341.7,300.3
992.3,220,23.8,20.1,80,15.07,64,4.4,297.6,341.5,300.3
991.7,225,23.8,20.0,79,14.99,64,4.4,297.6,341.3,300.3
991.2,230,23.8,20.0,79,14.97,64,4.4,297.7,341.2,300.3
990.6,235,23.7,20.0,80,15.05,64,4.4,297.7,341.5,300.3
990.0,240,23.7,20.1,80,15.13,64,4.4,297.7,341.7,300.4
989.4,245,23.6,20.1,81,15.12,64,4.3,297.7,341.7,300.4
988.8,251,23.6,20.0,80,15.05,64,4.3,297.7,341.4,300.3
988.2,256,23.5,19.9,80,15.00,63,4.3,297.7,341.3,300.3
987.6,261,23.4,19.9,81,14.99,63,4.3,297.6,341.3,300.3
987.0,267,23.4,19.9,81,14.99,63,4.3,297.7,341.3,300.3
986.3,272,23.3,19.9,81,15.01,63,4.3,297.7,341.3,300.3
985.7,278,23.3,19.9,81,15.02,63,4.2,297.7,341.4,300.3
985.1,283,23.2,19.9,82,15.01,63,4.2,297.7,341.3,300.3
984.5,289,23.2,19.9,82,14.99,62,4.2,297.6,341.3,300.3
983.8,295,23.1,19.9,82,14.99,62,4.2,297.7,341.3,300.3
983.2,301,23.1,19.9,82,15.01,62,4.2,297.7,341.3,300.3
982.5,307,23.0,19.9,82,15.04,62,4.1,297.7,341.4,300.3
981.8,313,23.0,19.9,83,15.06,62,4.1,297.7,341.5,300.4
981.1,319,22.9,19.9,83,15.06,62,4.1,297.7,341.5,300.4
980.4,325,22.8,19.9,83,15.07,62,4.1,297.7,341.5,300.3
979.7,332,22.8,19.9,84,15.09,62,4.1,297.6,341.6,300.3
979.0,338,22.7,19.9,84,15.08,62,4.1,297.6,341.5,300.3
978.3,344,22.6,19.8,84,15.07,63,4.0,297.6,341.5,300.3
977.7,350,22.6,19.8,84,15.05,63,4.0,297.6,341.4,300.3
977.0,355,22.5,19.8,85,15.04,63,4.0,297.7,341.4,300.3
976.4,361,22.5,19.8,85,15.08,63,4.0,297.7,341.5,300.3
975.8,366,22.4,19.9,85,15.13,63,4.0,297.7,341.7,300.4
975.2,372,22.4,19.9,86,15.14,63,4.0,297.7,341.7,300.4
974.5,378,22.3,19.8,86,15.13,64,4.0,297.7,341.7,300.4
973.9,383,22.3,19.8,86,15.06,64,4.0,297.7,341.5,300.3
973.3,389,22.2,19.7,86,14.98,64,4.0,297.7,341.3,300.3
972.7,394,22.2,19.6,86,14.96,64,4.0,297.7,341.2,300.3
972.1,399,22.1,19.7,86,14.99,64,4.0,297.7,341.3,300.3
971.6,404,22.1,19.7,86,15.02,64,4.0,297.7,341.4,300.3
971.0,409,22.0,19.7,87,15.03,64,4.0,297.7,341.4,300.3
970.4,414,22.0,19.7,87,15.01,64,4.1,297.7,341.4,300.4
969.9,419,21.9,19.7,87,15.02,64,4.1,297.7,341.4,300.3
969.3,424,21.9,19.7,87,15.07,64,4.1,297.7,341.5,300.4
968.8,430,21.8,19.7,88,15.12,64,4.2,297.7,341.7,300.3
968.2,435,21.8,19.8,88,15.14,64,4.2,297.6,341.7,300.3
967.6,440,21.7,19.7,89,15.12,64,4.3,297.6,341.6,300.3
967.1,445,21.7,19.7,89,15.09,64,4.4,297.6,341.5,300.3
966.5,450,21.6,19.7,89,15.07,64,4.4,297.6,341.5,300.3
966.0,455,21.6,19.7,89,15.08,65,4.5,297.6,341.5,300.3
965.4,459,21.5,19.7,89,15.11,65,4.6,297.6,341.6,300.3
964.9,464,21.5,19.7,90,15.14,65,4.7,297.7,341.7,300.4
964.4,469,21.4,19.7,90,15.14,65,4.8,297.6,341.7,300.3
963.9,474,21.4,19.7,90,15.13,65,4.9,297.6,341.7,300.3
963.4,478,21.3,19.6,90,15.10,66,5.0,297.6,341.6,300.3
962.9,482,21.3,19.6,90,15.08,66,5.1,297.6,341.5,300.3
962.4,487,21.3,19.6,90,15.09,66,5.2,297.6,341.5,300.3
962.0,491,21.2,19.6,91,15.12,67,5.3,297.6,341.6,300.3
961.5,495,21.2,19.6,91,15.12,67,5.4,297.7,341.7,300.3
961.0,500,21.1,19.6,91,15.13,68,5.5,297.7,341.7,300.4
960.5,504,21.1,19.6,91,15.14,68,5.6,297.6,341.7,300.3
960.0,509,21.1,19.6,92,15.16,69,5.7,297.7,341.8,300.4
959.5,513,21.0,19.6,92,15.18,69,5.7,297.6,341.8,300.3
958.9,518,20.9,19.7,92,15.19,70,5.8,297.6,341.8,300.3
958.4,523,20.9,19.6,93,15.19,70,5.8,297.6,341.8,300.3
958.0,527,20.9,19.6,93,15.19,71,5.9,297.6,341.8,300.3
957.5,531,20.8,19.6,93,15.21,71,5.9,297.6,341.9,300.3
957.0,535,20.8,19.7,93,15.24,72,5.9,297.6,342.0,300.4
956.6,539,20.8,19.7,94,15.28,73,5.9,297.6,342.1,300.4
956.1,543,20.7,19.7,94,15.30,73,5.8,297.7,342.2,300.4
955.7,548,20.7,19.7,94,15.30,74,5.8,297.7,342.2,300.4
955.2,552,20.7,19.7,94,15.27,75,5.8,297.7,342.1,300.4
954.7,556,20.6,19.7,94,15.26,76,5.7,297.7,342.1,300.4
954.2,561,20.6,19.6,94,15.23,76,5.6,297.7,342.0,300.4
953.7,566,20.5,19.5,94,15.17,77,5.5,297.7,341.8,300.4
953.1,571,20.5,19.4,93,15.05,78,5.4,297.7,341.5,300.4
952.5,577,20.5,19.2,92,14.87,79,5.3,297.8,341.0,300.4
951.8,583,20.5,19.0,91,14.73,80,5.2,297.8,340.7,300.5
951.2,588,20.5,19.1,92,14.75,80,5.1,297.9,340.8,300.5
950.6,594,20.4,19.2,93,14.86,81,5.0,297.8,341.1,300.5
950.0,600,20.3,19.2,93,14.92,82,4.9,297.8,341.2,300.4
949.4,605,20.2,19.2,94,14.89,83,4.7,297.8,341.1,300.4
948.8,610,20.2,19.1,94,14.84,84,4.6,297.8,341.0,300.4
948.3,615,20.1,19.1,94,14.80,84,4.5,297.8,340.9,300.4
947.8,619,20.1,18.9,93,14.70,85,4.4,297.8,340.6,300.4
947.3,624,20.1,18.7,92,14.50,85,4.3,297.8,340.1,300.4
946.9,628,20.2,18.6,91,14.35,86,4.2,297.9,339.7,300.5
946.4,632,20.1,18.5,90,14.31,86,4.0,297.9,339.6,300.5
945.9,637,20.1,18.5,90,14.31,86,4.0,297.9,339.6,300.5
945.4,641,20.1,18.5,90,14.29,86,3.9,298.0,339.6,300.5
944.9,646,20.1,18.4,90,14.28,86,3.8,298.0,339.6,300.5
944.5,650,20.0,18.5,91,14.30,86,3.7,298.0,339.6,300.5
944.0,655,19.9,18.5,91,14.30,85,3.6,297.9,339.6,300.5
943.5,659,19.9,18.4,91,14.24,84,3.6,297.9,339.4,300.5
943.0,663,19.8,18.3,91,14.19,84,3.6,297.9,339.3,300.5
942.5,668,19.8,18.3,91,14.15,82,3.5,297.9,339.2,300.5
942.1,672,19.8,18.2,91,14.11,81,3.5,298.0,339.1,300.5
941.6,676,19.8,18.2,90,14.07,80,3.5,298.0,339.0,300.5
941.2,680,19.7,18.1,90,14.04,79,3.5,298.0,339.0,300.5
940.8,684,19.7,18.1,90,14.02,77,3.5,298.0,338.9,300.5
940.3,688,19.7,18.1,90,14.00,76,3.5,298.0,338.9,300.5
939.9,692,19.6,18.0,90,13.92,74,3.5,298.0,338.6,300.5
939.4,696,19.6,17.8,89,13.77,72,3.6,298.0,338.2,300.5
939.0,700,19.6,17.6,88,13.60,71,3.6,298.1,337.7,300.5
938.5,704,19.6,17.4,87,13.47,70,3.6,298.1,337.4,300.5
938.1,709,19.6,17.3,87,13.39,68,3.7,298.1,337.2,300.5
937.6,713,19.5,17.3,87,13.33,67,3.7,298.1,337.0,300.5
937.2,717,19.5,17.2,86,13.27,66,3.8,298.2,336.9,300.5
936.7,721,19.5,17.1,86,13.21,64,3.8,298.2,336.8,300.5
936.3,726,19.5,17.0,86,13.14,63,3.9,298.2,336.6,300.5
935.8,730,19.5,17.0,85,13.11,62,3.9,298.2,336.5,300.6
935.2,735,19.5,17.0,86,13.13,62,4.0,298.3,336.6,300.6
934.7,740,19.4,17.0,86,13.17,61,4.0,298.2,336.7,300.6
934.1,745,19.3,17.0,86,13.17,60,4.0,298.2,336.7,300.6
933.6,750,19.3,16.9,86,13.11,59,4.1,298.2,336.5,300.6
933.1,755,19.2,16.8,86,13.02,59,4.1,298.2,336.3,300.6
932.5,760,19.2,16.7,85,12.94,58,4.1,298.3,336.1,300.6
932.0,765,19.2,16.7,85,12.90,58,4.1,298.3,336.0,300.6
931.5,770,19.2,16.6,85,12.87,57,4.1,298.4,336.0,300.7
931.0,774,19.2,16.5,84,12.81,57,4.1,298.4,335.9,300.7
930.4,779,19.2,16.4,84,12.74,57,4.1,298.4,335.7,300.7
929.9,784,19.2,16.4,84,12.69,57,4.1,298.5,335.6,300.7
929.4,789,19.2,16.4,84,12.70,56,4.1,298.5,335.6,300.8
928.9,794,19.1,16.4,84,12.73,56,4.1,298.5,335.7,300.8
928.3,799,19.1,16.5,85,12.79,56,4.0,298.5,335.9,300.8
927.7,804,19.0,16.5,85,12.84,56,4.0,298.5,336.1,300.8
927.2,810,19.0,16.5,86,12.85,56,4.0,298.5,336.1,300.8
926.6,815,18.9,16.5,86,12.83,57,4.0,298.5,336.0,300.8
926.0,820,18.9,16.4,86,12.81,57,4.0,298.5,336.0,300.8
925.4,826,18.8,16.4,86,12.82,57,4.0,298.5,336.0,300.8
925.0,830,18.8,16.5,86,12.83,57,4.0,298.5,336.0,300.8
924.9,831,18.8,16.5,86,12.84,57,4.0,298.5,336.1,300.8
924.3,836,18.7,16.5,87,12.87,58,4.0,298.5,336.1,300.8
923.8,841,18.7,16.5,87,12.90,58,4.0,298.5,336.2,300.8
923.3,845,18.6,16.5,88,12.93,59,4.0,298.5,336.3,300.8
922.8,850,18.6,16.6,88,12.96,59,4.0,298.5,336.4,300.8
922.3,855,18.5,16.6,89,13.01,60,4.1,298.5,336.5,300.8
921.8,860,18.5,16.7,89,13.05,61,4.1,298.5,336.7,300.9
921.2,865,18.5,16.7,89,13.06,61,4.1,298.5,336.8,300.9
920.7,870,18.5,16.6,89,13.04,62,4.2,298.6,336.7,300.9
920.1,876,18.4,16.6,89,13.02,62,4.3,298.6,336.6,300.9
919.5,881,18.3,16.5,89,12.99,63,4.3,298.6,336.5,300.9
918.9,886,18.3,16.5,89,12.95,64,4.4,298.5,336.4,300.9
918.4,891,18.2,16.4,89,12.90,64,4.5,298.6,336.3,300.9
917.9,896,18.2,16.4,89,12.88,65,4.5,298.6,336.3,300.9
917.4,901,18.2,16.4,89,12.92,65,4.6,298.6,336.4,300.9
916.9,906,18.2,16.5,90,12.97,66,4.7,298.6,336.6,300.9
916.4,910,18.1,16.5,90,13.01,66,4.8,298.6,336.7,301.0
915.9,915,18.1,16.5,91,13.04,66,4.8,298.6,336.8,301.0
915.4,920,18.1,16.6,91,13.05,67,4.9,298.6,336.8,301.0
914.8,925,18.0,16.5,91,13.05,67,4.9,298.7,336.9,301.0
914.3,930,18.0,16.5,91,12.99,67,5.0,298.7,336.7,301.0
913.7,935,18.0,16.4,90,12.91,68,5.0,298.7,336.5,301.0
913.2,940,18.0,16.3,90,12.83,68,5.0,298.8,336.3,301.1
912.6,946,18.0,16.2,90,12.81,68,5.0,298.8,336.3,301.1
912.0,951,17.9,16.2,90,12.83,68,5.0,298.9,336.4,301.2
911.5,956,17.9,16.2,90,12.82,69,5.0,298.9,336.5,301.2
911.0,961,17.9,16.1,90,12.77,69,5.0,298.9,336.3,301.2
910.5,966,17.8,16.1,89,12.71,69,5.0,298.9,336.1,301.1
910.0,970,17.8,16.0,89,12.67,69,4.9,298.9,336.0,301.1
909.5,975,17.8,16.0,90,12.69,70,4.9,298.9,336.1,301.2
909.1,979,17.7,16.1,90,12.73,70,4.8,298.9,336.2,301.2
908.7,983,17.7,16.1,90,12.76,70,4.8,298.9,336.3,301.2
908.2,987,17.7,16.1,91,12.79,70,4.7,298.9,336.4,301.2
907.8,991,17.6,16.1,91,12.78,71,4.7,298.9,336.4,301.2
907.4,995,17.6,16.0,91,12.74,71,4.6,298.9,336.3,301.2
906.9,999,17.6,16.0,90,12.71,71,4.5,299.0,336.2,301.3
906.5,1004,17.6,16.0,90,12.69,71,4.5,299.0,336.2,301.3
906.0,1008,17.5,15.9,90,12.66,71,4.4,299.0,336.1,301.3
905.6,1012,17.5,15.9,90,12.65,71,4.4,299.0,336.1,301.3
905.2,1016,17.5,15.9,90,12.65,71,4.4,299.0,336.1,301.3
904.8,1020,17.5,15.9,90,12.64,71,4.3,299.0,336.1,301.3
904.3,1024,17.5,15.9,90,12.63,71,4.3,299.1,336.1,301.3
903.9,1028,17.5,15.8,90,12.63,71,4.3,299.1,336.1,301.4
903.4,1032,17.4,15.9,90,12.64,71,4.3,299.1,336.2,301.4
903.0,1037,17.4,15.8,91,12.63,71,4.3,299.1,336.2,301.4
902.5,1042,17.4,15.8,90,12.60,70,4.3,299.2,336.1,301.4
902.0,1046,17.3,15.7,90,12.56,70,4.3,299.2,336.0,301.4
901.5,1051,17.3,15.7,90,12.51,70,4.4,299.2,335.9,301.4
901.0,1056,17.3,15.6,90,12.45,69,4.4,299.2,335.7,301.4
900.5,1061,17.2,15.5,90,12.40,69,4.4,299.2,335.6,301.4
900.0,1065,17.2,15.4,89,12.31,69,4.5,299.3,335.4,301.5
899.5,1070,17.3,15.2,88,12.19,68,4.5,299.3,335.1,301.5
899.0,1075,17.3,15.0,87,12.05,68,4.6,299.4,334.8,301.6
898.5,1079,17.3,14.8,85,11.88,67,4.6,299.5,334.4,301.6
898.0,1084,17.3,14.7,84,11.76,67,4.7,299.5,334.1,301.6
897.5,1088,17.3,14.6,84,11.69,67,4.7,299.6,334.0,301.7
897.1,1093,17.3,14.5,84,11.65,66,4.8,299.6,333.9,301.7
896.6,1097,17.2,14.5,84,11.63,66,4.8,299.6,333.8,301.7
896.2,1101,17.2,14.5,84,11.64,66,4.8,299.6,333.9,301.7
895.8,1105,17.2,14.5,84,11.69,65,4.9,299.6,334.0,301.7
895.3,1110,17.1,14.6,85,11.74,65,4.9,299.6,334.1,301.7
894.9,1114,17.1,14.6,85,11.78,65,4.9,299.6,334.3,301.7
894.4,1119,17.1,14.6,86,11.78,65,4.9,299.6,334.3,301.7
893.9,1123,17.0,14.6,86,11.77,65,4.9,299.6,334.2,301.7
893.4,1128,17.0,14.6,86,11.77,65,4.9,299.6,334.3,301.7
892.9,1133,16.9,14.6,86,11.76,65,4.9,299.6,334.2,301.7
892.3,1138,16.9,14.5,86,11.73,65,4.9,299.6,334.1,301.7
891.8,1144,16.8,14.4,86,11.67,65,4.9,299.6,334.0,301.7
891.2,1149,16.8,14.4,86,11.62,65,4.9,299.6,333.8,301.7
890.7,1154,16.7,14.3,86,11.60,65,4.8,299.6,333.8,301.7
890.2,1159,16.7,14.3,86,11.62,65,4.8,299.6,333.9,301.7
889.7,1164,16.7,14.4,86,11.66,65,4.8,299.7,334.0,301.8
889.2,1168,16.7,14.4,86,11.66,65,4.8,299.7,334.0,301.8
888.7,1173,16.6,14.3,86,11.63,65,4.7,299.7,334.0,301.8
888.3,1177,16.6,14.3,86,11.62,65,4.7,299.7,333.9,301.8
887.8,1181,16.6,14.4,87,11.67,65,4.7,299.7,334.1,301.8
887.4,1185,16.5,14.4,87,11.73,65,4.7,299.7,334.3,301.9
887.0,1189,16.5,14.5,88,11.77,65,4.6,299.8,334.4,301.9
886.6,1193,16.5,14.5,88,11.77,65,4.6,299.8,334.5,301.9
886.2,1197,16.5,14.4,88,11.75,65,4.6,299.8,334.4,301.9
885.8,1201,16.5,14.4,88,11.72,65,4.6,299.8,334.3,301.9
885.4,1205,16.4,14.3,87,11.69,65,4.5,299.8,334.2,301.9
885.0,1209,16.4,14.3,87,11.66,65,4.5,299.8,334.2,301.9
884.6,1213,16.4,14.3,87,11.64,65,4.5,299.9,334.2,302.0
884.2,1217,16.4,14.2,87,11.62,65,4.5,299.9,334.1,302.0
883.7,1221,16.4,14.2,87,11.61,65,4.5,299.9,334.1,302.0
883.3,1225,16.3,14.1,87,11.56,65,4.5,299.9,334.0,302.0
882.8,1230,16.3,14.0,86,11.48,65,4.5,300.0,333.8,302.0
882.4,1234,16.3,13.9,86,11.39,66,4.5,300.0,333.6,302.0
881.9,1239,16.3,13.8,85,11.33,66,4.5,300.0,333.5,302.1
881.4,1243,16.3,13.8,85,11.31,66,4.5,300.0,333.4,302.1
881.0,1248,16.2,13.8,85,11.32,66,4.6,300.1,333.5,302.1
880.5,1252,16.2,13.8,85,11.33,66,4.6,300.1,333.5,302.1
880.1,1256,16.2,13.8,86,11.35,67,4.6,300.1,333.6,302.2
879.6,1261,16.2,13.8,86,11.38,67,4.6,300.2,333.8,302.2
879.2,1265,16.2,13.9,86,11.44,67,4.7,300.2,334.0,302.2
878.7,1269,16.2,14.0,87,11.52,68,4.7,300.2,334.2,302.3
878.3,1274,16.1,14.1,88,11.59,68,4.7,300.2,334.4,302.3
877.9,1278,16.1,14.2,89,11.71,69,4.8,300.2,334.8,302.3
877.4,1282,16.1,14.5,90,11.89,69,4.8,300.2,335.3,302.4
877.0,1286,16.1,14.6,91,12.03,70,4.9,300.3,335.7,302.4
876.6,1290,16.1,14.6,91,11.99,70,4.9,300.3,335.7,302.5
876.2,1294,16.1,14.2,89,11.73,71,5.0,300.4,335.0,302.5
875.8,1298,16.1,13.9,86,11.46,71,5.0,300.5,334.3,302.5
875.4,1301,16.2,13.7,85,11.34,72,5.1,300.5,334.0,302.6
875.0,1305,16.1,13.7,86,11.35,72,5.2,300.5,334.1,302.6
874.6,1309,16.1,13.8,86,11.40,73,5.2,300.5,334.2,302.6
874.2,1314,16.1,13.8,86,11.39,73,5.3,300.6,334.2,302.6
873.7,1318,16.1,13.7,86,11.34,74,5.3,300.6,334.1,302.6
873.3,1322,16.0,13.6,85,11.28,74,5.4,300.6,334.0,302.6
872.9,1326,16.0,13.5,85,11.23,74,5.4,300.6,333.8,302.6
872.4,1331,16.0,13.5,85,11.23,75,5.4,300.6,333.8,302.6
872.0,1335,15.9,13.5,86,11.26,75,5.5,300.6,333.9,302.7
871.6,1339,15.9,13.6,86,11.32,75,5.5,300.6,334.1,302.7
871.1,1343,15.9,13.8,87,11.44,75,5.5,300.6,334.5,302.7
870.7,1348,15.8,14.0,89,11.63,75,5.5,300.6,335.0,302.7
870.3,1352,15.8,14.3,91,11.82,75,5.5,300.6,335.5,302.7
869.8,1356,15.7,14.3,91,11.89,76,5.4,300.6,335.7,302.8
869.4,1361,15.7,14.3,91,11.84,76,5.4,300.6,335.6,302.8
868.9,1365,15.7,14.2,91,11.79,75,5.4,300.6,335.5,302.8
868.5,1369,15.7,14.1,91,11.75,75,5.3,300.7,335.4,302.8
868.0,1374,15.7,14.1,90,11.74,75,5.3,300.7,335.4,302.8
867.6,1378,15.6,14.1,90,11.72,75,5.2,300.7,335.4,302.9
867.1,1382,15.6,14.0,90,11.70,75,5.1,300.8,335.4,302.9
866.7,1387,15.6,14.0,90,11.69,75,5.1,300.8,335.4,302.9
866.3,1391,15.6,14.0,90,11.68,74,5.0,300.8,335.3,302.9
865.9,1395,15.5,13.9,90,11.64,74,4.9,300.8,335.3,302.9
865.5,1399,15.5,13.9,90,11.60,74,4.8,300.8,335.2,302.9
865.0,1403,15.5,13.9,90,11.59,73,4.7,300.9,335.2,303.0
864.6,1408,15.5,13.8,90,11.58,73,4.7,300.9,335.2,303.0
864.1,1413,15.5,13.8,90,11.55,72,4.6,300.9,335.1,303.0
863.6,1418,15.5,13.7,89,11.51,72,4.5,301.0,335.1,303.1
863.0,1423,15.5,13.7,89,11.47,71,4.5,301.0,335.0,303.1
862.5,1429,15.4,13.6,89,11.43,71,4.4,301.0,334.9,303.1
861.9,1434,15.4,13.6,89,11.43,70,4.4,301.1,334.9,303.1
861.4,1439,15.4,13.6,89,11.47,70,4.3,301.1,335.1,303.2
860.9,1444,15.3,13.7,90,11.53,70,4.3,301.1,335.3,303.2
860.4,1449,15.3,13.8,91,11.63,69,4.3,301.1,335.5,303.2
859.9,1453,15.3,13.9,91,11.66,69,4.3,301.1,335.7,303.2
859.5,1458,15.2,13.8,91,11.64,69,4.3,301.1,335.6,303.2
859.1,1462,15.2,13.8,91,11.60,68,4.3,301.1,335.5,303.2
858.6,1467,15.2,13.7,91,11.58,68,4.3,301.2,335.5,303.3
858.2,1471,15.2,13.7,91,11.56,68,4.3,301.2,335.5,303.3
857.7,1476,15.2,13.6,90,11.51,68,4.3,301.3,335.4,303.4
857.2,1481,15.2,13.5,90,11.46,68,4.3,301.4,335.3,303.4
856.7,1486,15.2,13.5,89,11.42,68,4.4,301.4,335.3,303.5
856.2,1491,15.2,13.4,89,11.39,68,4.4,301.4,335.2,303.5
855.7,1495,15.2,13.4,89,11.35,67,4.4,301.4,335.1,303.5
855.3,1500,15.1,13.3,89,11.31,67,4.5,301.4,335.0,303.5
854.8,1504,15.1,13.3,89,11.29,67,4.5,301.4,335.0,303.5
854.4,1509,15.1,13.3,89,11.29,67,4.5,301.5,335.0,303.5
854.0,1513,15.1,13.3,89,11.29,67,4.5,301.5,335.0,303.5
853.5,1517,15.1,13.2,89,11.27,67,4.5,301.6,335.0,303.6
853.1,1522,15.1,13.2,88,11.23,66,4.6,301.6,335.0,303.7
852.6,1526,15.1,13.1,88,11.18,66,4.6,301.7,334.9,303.7
852.2,1531,15.1,13.0,87,11.10,66,4.6,301.7,334.7,303.7
851.7,1535,15.1,12.9,87,11.02,66,4.6,301.7,334.5,303.7
851.2,1540,15.0,12.8,87,10.98,65,4.6,301.7,334.4,303.7
850.7,1545,15.0,12.8,86,10.95,65,4.6,301.8,334.3,303.8
850.3,1549,15.0,12.7,87,10.94,65,4.5,301.8,334.3,303.7
850.0,1552,14.9,12.7,87,10.93,65,4.5,301.8,334.3,303.8
849.8,1554,14.9,12.7,87,10.93,64,4.5,301.8,334.3,303.8
849.4,1558,14.9,12.7,87,10.91,64,4.5,301.8,334.2,303.8
848.9,1563,14.9,12.6,86,10.88,64,4.5,301.8,334.2,303.8
848.5,1567,14.8,12.6,86,10.86,63,4.4,301.8,334.1,303.8
848.1,1571,14.8,12.6,86,10.84,63,4.4,301.8,334.1,303.8
847.7,1576,14.8,12.5,86,10.81,63,4.4,301.8,334.0,303.8
847.2,1580,14.7,12.4,86,10.77,62,4.3,301.9,333.9,303.8
846.8,1584,14.7,12.4,86,10.72,62,4.3,301.9,333.8,303.8
846.4,1588,14.7,12.3,85,10.66,62,4.3,301.9,333.6,303.8
846.0,1593,14.7,12.2,85,10.63,62,4.2,301.9,333.6,303.8
845.6,1597,14.6,12.2,85,10.65,62,4.2,301.9,333.6,303.8
845.1,1601,14.6,12.3,86,10.70,62,4.2,301.9,333.8,303.9
844.7,1605,14.6,12.4,87,10.76,62,4.1,301.9,334.0,303.9
844.3,1609,14.5,12.4,87,10.80,62,4.1,301.9,334.1,303.9
843.9,1614,14.5,12.5,87,10.82,62,4.1,302.0,334.2,303.9
843.4,1618,14.5,12.5,88,10.86,62,4.1,302.0,334.3,303.9
843.0,1623,14.5,12.6,88,10.91,62,4.0,302.0,334.5,304.0
842.5,1627,14.4,12.6,89,10.96,62,4.0,302.0,334.6,304.0
842.0,1632,14.4,12.6,89,10.99,62,4.0,302.0,334.7,304.0
841.6,1637,14.4,12.6,89,10.97,63,4.0,302.0,334.7,304.0
841.1,1641,14.4,12.5,89,10.93,63,4.0,302.1,334.7,304.1
840.6,1646,14.4,12.5,88,10.90,63,4.0,302.2,334.6,304.2
840.1,1651,14.4,12.5,88,10.90,63,4.0,302.2,334.7,304.2
839.6,1656,14.4,12.5,88,10.90,63,4.0,302.2,334.7,304.2
839.2,1661,14.3,12.4,88,10.86,63,4.0,302.2,334.6,304.2
838.7,1666,14.3,12.3,88,10.79,63,4.0,302.3,334.5,304.2
838.2,1671,14.3,12.2,87,10.73,63,4.0,302.3,334.3,304.3
837.7,1676,14.3,12.1,87,10.68,64,4.0,302.3,334.2,304.3
837.2,1681,14.3,12.1,87,10.62,64,4.0,302.4,334.1,304.3
836.8,1685,14.3,11.9,86,10.54,64,4.0,302.4,333.9,304.3
836.3,1690,14.3,11.8,85,10.48,64,4.0,302.5,333.8,304.4
835.8,1695,14.3,11.8,85,10.45,64,4.0,302.5,333.8,304.4
835.3,1700,14.2,11.8,85,10.44,64,4.0,302.6,333.7,304.5
834.8,1705,14.2,11.7,85,10.38,64,4.0,302.6,333.6,304.5
834.4,1710,14.2,11.6,84,10.32,64,4.0,302.6,333.4,304.5
833.9,1714,14.2,11.5,84,10.31,64,4.0,302.6,333.5,304.5
833.4,1719,14.2,11.7,85,10.39,65,4.1,302.7,333.8,304.6
833.0,1723,14.2,11.8,86,10.52,65,4.1,302.8,334.2,304.7
832.5,1728,14.2,12.0,87,10.66,65,4.1,302.8,334.6,304.7
832.1,1733,14.1,12.2,88,10.78,66,4.1,302.8,335.0,304.7
831.7,1737,14.1,12.3,89,10.87,67,4.2,302.8,335.2,304.7
831.2,1742,14.0,12.4,90,10.94,68,4.2,302.8,335.4,304.8
830.8,1746,14.0,12.5,90,11.00,68,4.2,302.8,335.6,304.8
830.3,1750,14.0,12.5,91,11.03,69,4.3,302.8,335.7,304.8
829.9,1755,13.9,12.5,91,11.06,71,4.3,302.8,335.8,304.8
