PRES,HGHT,TEMP,DWPT,RELH,MIXR,DRCT,SPED,THTA,THTE,THTV
1014.1,31,23.9,17.9,69,12.82,93,4.0,295.9,333.0,298.1
1013.3,37,24.2,17.7,67,12.64,89,3.2,296.2,332.8,298.4
1012.7,43,24.3,17.6,66,12.62,88,3.1,296.3,333.0,298.6
1012.1,48,24.4,17.6,66,12.58,89,3.2,296.5,333.0,298.7
1011.5,53,24.4,17.5,65,12.54,90,3.4,296.6,333.0,298.8
1010.8,59,24.3,17.5,66,12.55,91,3.6,296.6,333.0,298.8
1010.1,65,24.3,17.5,66,12.59,92,3.8,296.6,333.1,298.8
1009.5,71,24.2,17.5,66,12.59,94,3.9,296.6,333.1,298.8
1008.8,76,24.2,17.5,66,12.57,95,4.1,296.6,333.1,298.8
1008.2,82,24.1,17.5,66,12.56,96,4.2,296.6,333.0,298.8
1007.5,87,24.1,17.5,67,12.58,97,4.3,296.6,333.1,298.8
1006.9,93,24.0,17.5,67,12.60,98,4.4,296.6,333.2,298.8
1006.2,99,24.0,17.5,67,12.62,99,4.6,296.6,333.2,298.8
1005.6,105,23.9,17.5,67,12.64,100,4.7,296.6,333.3,298.8
1004.9,110,23.9,17.6,68,12.68,102,4.7,296.6,333.4,298.9
1004.3,116,23.8,17.6,68,12.69,103,4.8,296.6,333.5,298.9
1003.6,122,23.8,17.6,68,12.69,103,4.9,296.6,333.5,298.9
1003.0,127,23.7,17.6,68,12.70,104,5.0,296.6,333.5,298.9
1002.3,133,23.7,17.6,69,12.69,105,5.0,296.6,333.5,298.9
1001.6,139,23.6,17.5,69,12.67,106,5.1,296.6,333.4,298.9
1001.0,145,23.6,17.5,69,12.65,106,5.1,296.6,333.4,298.9
1000.3,151,23.5,17.4,69,12.60,107,5.2,296.6,333.2,298.9
1000.0,153,23.5,17.4,69,12.57,107,5.2,296.6,333.1,298.9
999.6,156,23.4,17.3,69,12.53,107,5.2,296.6,333.0,298.8
999.0,162,23.4,17.3,69,12.53,108,5.3,296.6,333.0,298.8
998.4,168,23.3,17.3,69,12.57,108,5.3,296.6,333.1,298.8
997.7,173,23.3,17.3,69,12.57,108,5.4,296.6,333.1,298.9
997.1,178,23.2,17.2,69,12.50,108,5.5,296.6,332.9,298.8
996.5,184,23.2,17.1,69,12.39,108,5.5,296.6,332.6,298.8
996.0,189,23.1,16.9,68,12.23,108,5.6,296.6,332.1,298.8
995.4,194,23.1,16.7,67,12.13,108,5.6,296.6,331.8,298.8
994.8,199,23.0,16.8,68,12.16,107,5.7,296.6,332.0,298.8
994.3,204,23.0,16.9,68,12.25,107,5.7,296.6,332.2,298.8
993.7,209,22.9,16.9,69,12.28,107,5.8,296.6,332.3,298.8
993.1,214,22.9,16.9,69,12.27,106,5.9,296.6,332.3,298.8
992.5,219,22.8,16.9,69,12.32,106,5.9,296.6,332.4,298.8
991.9,224,22.8,17.0,70,12.36,105,6.0,296.6,332.5,298.8
991.4,229,22.7,16.9,70,12.33,105,6.0,296.6,332.4,298.8
990.8,234,22.7,16.9,70,12.29,105,6.1,296.6,332.3,298.8
990.2,239,22.6,16.8,70,12.28,104,6.2,296.6,332.2,298.8
989.6,245,22.6,16.9,70,12.29,104,6.2,296.6,332.3,298.8
989.0,250,22.5,16.8,70,12.28,104,6.2,296.6,332.3,298.8
988.5,255,22.4,16.8,71,12.28,103,6.3,296.6,332.2,298.8
987.9,259,22.4,16.8,71,12.29,103,6.3,296.6,332.3,298.8
987.3,264,22.4,16.8,71,12.29,103,6.3,296.6,332.3,298.8
986.8,269,22.3,16.8,71,12.30,102,6.3,296.6,332.3,298.8
986.2,274,22.3,16.9,71,12.34,102,6.4,296.6,332.4,298.8
985.6,279,22.2,16.9,72,12.37,102,6.4,296.6,332.5,298.8
985.1,285,22.2,16.9,72,12.37,102,6.3,296.6,332.5,298.8
984.5,290,22.1,16.8,72,12.35,101,6.3,296.6,332.4,298.8
983.9,295,22.1,16.9,72,12.37,101,6.3,296.6,332.5,298.8
983.3,300,22.0,16.9,73,12.37,101,6.3,296.6,332.5,298.8
982.7,305,22.0,16.8,73,12.36,100,6.2,296.6,332.5,298.8
982.1,311,21.9,16.8,73,12.37,100,6.2,296.6,332.5,298.8
981.6,315,21.9,16.9,73,12.39,100,6.2,296.6,332.6,298.8
981.0,320,21.8,16.9,73,12.40,99,6.1,296.6,332.6,298.8
980.5,325,21.8,16.8,74,12.38,99,6.1,296.6,332.5,298.8
980.0,329,21.7,16.8,74,12.35,99,6.0,296.6,332.4,298.8
979.5,334,21.7,16.8,74,12.36,98,6.0,296.6,332.5,298.8
979.0,338,21.6,16.8,74,12.38,98,5.9,296.6,332.5,298.8
978.5,343,21.6,16.8,74,12.38,97,5.9,296.6,332.5,298.8
978.0,347,21.6,16.7,74,12.34,97,5.8,296.6,332.4,298.8
977.5,352,21.5,16.6,74,12.27,96,5.8,296.6,332.2,298.8
977.0,356,21.5,16.6,74,12.24,96,5.7,296.6,332.1,298.8
976.5,361,21.4,16.6,74,12.25,95,5.7,296.6,332.2,298.8
976.0,365,21.4,16.6,74,12.27,95,5.7,296.6,332.2,298.8
975.5,370,21.3,16.6,74,12.24,95,5.7,296.6,332.1,298.8
975.0,374,21.3,16.5,74,12.22,94,5.6,296.6,332.1,298.8
974.5,379,21.3,16.5,74,12.21,94,5.6,296.6,332.0,298.8
974.0,383,21.2,16.5,74,12.17,93,5.6,296.6,332.0,298.8
973.5,387,21.2,16.4,74,12.11,93,5.6,296.6,331.8,298.8
973.0,392,21.2,16.3,74,12.08,93,5.6,296.6,331.7,298.8
972.5,396,21.1,16.3,74,12.11,92,5.6,296.6,331.8,298.8
972.0,400,21.1,16.4,75,12.14,92,5.7,296.6,331.9,298.8
971.6,405,21.0,16.3,75,12.11,92,5.7,296.6,331.8,298.8
971.0,409,21.0,16.2,74,12.02,92,5.7,296.6,331.6,298.8
970.5,414,21.0,16.1,74,11.96,92,5.7,296.6,331.4,298.8
970.0,419,20.9,16.1,74,11.94,92,5.8,296.7,331.4,298.8
969.4,424,20.9,16.1,74,11.97,92,5.8,296.7,331.4,298.8
968.8,429,20.8,16.2,75,12.00,92,5.8,296.7,331.5,298.8
968.3,434,20.8,16.2,75,12.03,92,5.9,296.6,331.6,298.8
967.7,439,20.7,16.2,75,12.03,92,5.9,296.6,331.6,298.8
967.2,444,20.7,16.1,75,11.97,92,6.0,296.7,331.4,298.8
966.6,449,20.7,16.0,75,11.90,93,6.0,296.7,331.3,298.8
966.1,453,20.6,15.9,74,11.86,93,6.0,296.7,331.1,298.8
965.6,458,20.6,15.9,75,11.86,93,6.1,296.7,331.1,298.8
965.0,463,20.5,15.9,75,11.85,93,6.1,296.7,331.1,298.8
964.5,468,20.5,15.8,75,11.81,94,6.1,296.7,331.0,298.8
963.9,473,20.4,15.8,74,11.76,94,6.2,296.7,330.9,298.8
963.3,478,20.4,15.7,74,11.72,94,6.2,296.7,330.8,298.8
962.7,484,20.3,15.7,74,11.70,94,6.2,296.7,330.7,298.8
962.2,489,20.3,15.7,75,11.72,95,6.2,296.7,330.8,298.8
961.6,494,20.2,15.7,75,11.76,95,6.3,296.7,330.9,298.8
961.1,499,20.2,15.8,76,11.79,95,6.3,296.7,331.0,298.8
960.5,504,20.1,15.8,76,11.81,95,6.3,296.7,331.0,298.8
960.0,508,20.1,15.8,76,11.84,96,6.3,296.7,331.1,298.8
959.4,513,20.0,15.9,77,11.89,96,6.3,296.7,331.2,298.8
958.9,518,20.0,15.9,77,11.93,96,6.2,296.7,331.3,298.8
958.4,523,19.9,15.9,78,11.93,96,6.2,296.7,331.3,298.8
957.8,528,19.9,15.9,78,11.93,96,6.2,296.7,331.3,298.8
957.3,533,19.8,15.8,78,11.91,96,6.2,296.6,331.3,298.8
956.8,537,19.8,15.8,78,11.90,96,6.2,296.6,331.2,298.8
956.2,542,19.7,15.8,78,11.89,96,6.1,296.7,331.2,298.8
955.7,547,19.7,15.8,78,11.89,96,6.1,296.6,331.2,298.8
955.2,552,19.6,15.8,79,11.91,96,6.1,296.6,331.3,298.8
954.6,557,19.6,15.8,79,11.94,96,6.0,296.7,331.4,298.8
954.1,562,19.6,15.9,79,11.96,96,6.0,296.7,331.4,298.8
953.5,567,19.5,15.8,79,11.95,96,6.0,296.7,331.4,298.8
953.0,572,19.5,15.8,79,11.90,96,5.9,296.7,331.2,298.8
952.4,577,19.4,15.7,79,11.87,95,5.9,296.7,331.2,298.8
951.9,582,19.4,15.7,79,11.84,95,5.9,296.6,331.1,298.8
951.3,587,19.3,15.6,79,11.81,95,5.8,296.7,331.0,298.8
950.8,592,19.3,15.6,79,11.82,94,5.8,296.7,331.0,298.8
950.2,597,19.2,15.7,80,11.87,94,5.8,296.7,331.2,298.8
949.6,602,19.2,15.8,81,11.96,94,5.7,296.7,331.4,298.8
949.0,607,19.1,16.0,82,12.10,93,5.7,296.7,331.8,298.8
948.4,613,19.0,16.1,83,12.25,93,5.7,296.6,332.2,298.8
947.8,619,19.0,16.2,84,12.31,92,5.7,296.6,332.3,298.8
947.1,624,18.9,16.1,84,12.24,92,5.7,296.6,332.1,298.8
946.5,630,18.9,15.9,83,12.12,92,5.6,296.6,331.8,298.8
945.9,636,18.8,15.9,83,12.08,91,5.6,296.6,331.7,298.8
945.2,642,18.8,15.9,83,12.08,91,5.6,296.6,331.7,298.8
944.6,648,18.7,15.8,83,12.06,91,5.6,296.7,331.7,298.8
944.0,653,18.7,15.9,84,12.14,90,5.6,296.7,331.9,298.8
943.4,659,18.6,16.1,85,12.28,90,5.6,296.6,332.3,298.8
942.7,665,18.5,16.1,86,12.32,90,5.6,296.6,332.4,298.8
942.1,671,18.5,16.1,86,12.29,89,5.6,296.6,332.3,298.8
941.5,676,18.4,16.1,86,12.32,89,5.6,296.6,332.4,298.8
940.8,682,18.3,16.2,87,12.38,89,5.6,296.6,332.6,298.8
940.2,688,18.3,16.2,88,12.39,88,5.6,296.6,332.6,298.8
939.6,694,18.2,16.1,87,12.32,88,5.7,296.6,332.4,298.8
939.0,699,18.2,16.0,87,12.28,88,5.7,296.6,332.3,298.8
938.4,704,18.1,16.1,88,12.34,88,5.7,296.6,332.4,298.8
937.8,710,18.1,16.2,89,12.44,88,5.7,296.6,332.7,298.8
937.2,715,18.0,16.3,90,12.50,88,5.7,296.6,332.9,298.8
936.6,720,17.9,16.3,90,12.51,88,5.7,296.6,332.9,298.8
936.1,726,17.9,16.3,90,12.51,88,5.7,296.6,332.9,298.8
935.5,731,17.8,16.3,91,12.54,88,5.8,296.6,333.0,298.8
934.9,737,17.8,16.3,91,12.56,88,5.8,296.6,333.0,298.8
934.3,742,17.7,16.3,91,12.58,88,5.8,296.6,333.1,298.8
933.6,748,17.7,16.3,92,12.59,88,5.8,296.6,333.1,298.8
933.0,753,17.6,16.3,92,12.58,88,5.8,296.6,333.1,298.8
932.4,759,17.6,16.3,92,12.58,88,5.8,296.6,333.1,298.8
931.8,765,17.5,16.2,92,12.55,88,5.8,296.6,333.0,298.8
931.2,770,17.4,16.2,92,12.50,89,5.8,296.6,332.8,298.8
930.6,776,17.4,16.1,92,12.46,89,5.8,296.6,332.7,298.8
930.0,781,17.3,16.1,92,12.43,89,5.8,296.6,332.6,298.8
929.5,786,17.3,16.0,92,12.43,90,5.8,296.6,332.6,298.8
928.8,792,17.2,16.0,93,12.43,90,5.7,296.6,332.6,298.8
928.2,798,17.2,16.0,93,12.39,91,5.7,296.6,332.5,298.8
927.6,803,17.1,15.9,92,12.32,91,5.7,296.6,332.4,298.8
927.0,809,17.1,15.8,92,12.30,92,5.6,296.6,332.3,298.8
926.3,815,17.0,15.8,92,12.26,93,5.6,296.6,332.2,298.8
925.7,821,17.0,15.6,91,12.10,93,5.6,296.6,331.7,298.8
925.0,828,17.0,15.2,90,11.85,95,5.5,296.6,331.1,298.7
924.4,833,16.9,15.1,89,11.74,95,5.5,296.7,330.8,298.8
923.8,839,16.9,15.2,90,11.83,95,5.4,296.7,331.1,298.8
923.2,845,16.9,15.4,91,11.98,96,5.4,296.7,331.5,298.8
922.6,850,16.8,15.5,92,12.09,97,5.4,296.7,331.8,298.8
922.0,855,16.7,15.5,93,12.13,98,5.3,296.7,331.9,298.8
921.4,861,16.6,15.5,93,12.12,99,5.3,296.6,331.8,298.8
920.9,866,16.6,15.5,93,12.12,99,5.3,296.6,331.8,298.8
920.3,871,16.5,15.6,94,12.19,100,5.2,296.6,332.0,298.8
919.7,877,16.5,15.6,95,12.23,101,5.2,296.6,332.1,298.8
919.1,882,16.4,15.6,95,12.22,102,5.2,296.6,332.1,298.8
918.6,887,16.4,15.5,95,12.18,103,5.2,296.6,332.0,298.8
918.0,892,16.3,15.4,94,12.07,104,5.2,296.6,331.7,298.8
917.4,898,16.3,15.1,93,11.85,104,5.2,296.7,331.1,298.8
916.9,903,16.3,14.8,91,11.60,105,5.1,296.7,330.4,298.8
916.3,909,16.3,14.6,90,11.46,106,5.1,296.8,330.1,298.8
915.7,914,16.3,14.6,90,11.47,107,5.1,296.8,330.1,298.8
915.1,920,16.2,14.6,90,11.50,107,5.1,296.8,330.2,298.8
914.4,926,16.1,14.5,90,11.45,108,5.1,296.8,330.1,298.8
913.8,931,16.1,14.5,90,11.41,109,5.1,296.8,330.0,298.8
913.2,937,16.0,14.5,90,11.41,109,5.1,296.8,330.0,298.8
912.6,943,16.0,14.6,91,11.49,110,5.1,296.8,330.2,298.8
912.0,949,15.9,14.6,92,11.52,111,5.0,296.7,330.2,298.8
911.4,954,15.8,14.4,91,11.41,111,5.0,296.8,329.9,298.8
910.7,960,15.8,14.1,90,11.18,112,5.0,296.8,329.4,298.8
910.1,966,15.9,13.8,88,10.99,113,4.9,296.9,328.9,298.8
909.5,972,15.9,13.7,87,10.90,113,4.9,296.9,328.7,298.9
908.9,978,15.8,13.7,87,10.89,114,4.8,297.0,328.7,298.9
908.3,983,15.8,13.7,87,10.91,114,4.8,297.0,328.7,298.9
907.7,989,15.7,13.7,88,10.94,115,4.7,297.0,328.9,298.9
907.1,994,15.7,13.8,89,10.98,116,4.7,297.0,329.0,298.9
906.5,1000,15.6,13.8,89,10.97,116,4.6,297.0,328.9,298.9
906.0,1005,15.6,13.6,88,10.89,117,4.5,297.0,328.7,298.9
905.4,1010,15.5,13.5,87,10.77,117,4.5,297.0,328.4,298.9
904.9,1015,15.5,13.3,87,10.67,118,4.4,297.0,328.1,298.9
904.4,1020,15.5,13.2,86,10.58,118,4.3,297.1,328.0,299.0
903.9,1024,15.5,13.1,85,10.53,119,4.2,297.1,327.8,299.0
903.4,1029,15.5,13.0,85,10.50,119,4.2,297.1,327.8,299.0
902.9,1034,15.4,13.0,85,10.49,120,4.1,297.1,327.8,299.0
902.4,1039,15.4,13.0,86,10.49,120,4.0,297.2,327.8,299.0
901.9,1043,15.4,13.0,86,10.50,121,4.0,297.2,327.8,299.0
901.4,1048,15.3,13.0,86,10.50,121,3.9,297.2,327.8,299.0
900.9,1053,15.3,13.0,86,10.47,121,3.8,297.1,327.7,299.0
900.4,1057,15.2,12.9,86,10.42,121,3.8,297.2,327.6,299.0
899.9,1062,15.2,12.8,86,10.39,122,3.7,297.2,327.5,299.0
899.3,1067,15.1,12.8,86,10.37,122,3.7,297.2,327.4,299.0
898.8,1072,15.1,12.7,86,10.32,122,3.7,297.2,327.3,299.0
898.3,1077,15.1,12.6,85,10.27,122,3.6,297.2,327.2,299.0
897.7,1083,15.1,12.5,85,10.21,122,3.6,297.2,327.1,299.1
897.2,1088,15.1,12.3,84,10.10,121,3.6,297.3,326.8,299.1
896.6,1093,15.1,12.1,82,9.94,121,3.5,297.3,326.4,299.1
896.1,1098,15.1,11.9,81,9.80,121,3.5,297.4,326.1,299.2
895.5,1103,15.1,11.8,81,9.76,121,3.5,297.5,326.1,299.2
895.0,1108,15.1,11.8,81,9.78,120,3.5,297.5,326.1,299.2
894.4,1114,15.0,11.9,81,9.81,120,3.4,297.5,326.2,299.3
893.9,1119,15.0,11.9,82,9.83,120,3.4,297.5,326.3,299.3
893.3,1125,14.9,11.9,82,9.85,119,3.4,297.5,326.3,299.3
892.7,1130,14.9,11.9,82,9.84,119,3.3,297.5,326.3,299.3
892.1,1136,14.8,11.8,82,9.81,118,3.3,297.5,326.2,299.2
891.5,1142,14.7,11.8,82,9.78,118,3.3,297.5,326.1,299.2
890.9,1147,14.7,11.7,82,9.75,118,3.2,297.5,326.0,299.2
890.3,1153,14.6,11.7,82,9.73,117,3.2,297.5,326.0,299.2
889.8,1158,14.6,11.7,83,9.72,117,3.2,297.5,326.0,299.2
889.2,1163,14.5,11.7,83,9.74,116,3.1,297.5,326.0,299.2
888.7,1168,14.5,11.7,83,9.75,116,3.1,297.5,326.1,299.2
888.1,1173,14.4,11.7,84,9.77,115,3.0,297.5,326.1,299.3
887.6,1178,14.4,11.7,84,9.77,115,3.0,297.5,326.1,299.3
887.1,1183,14.3,11.7,84,9.77,114,2.9,297.5,326.1,299.2
886.6,1188,14.3,11.6,84,9.75,114,2.9,297.5,326.1,299.3
886.1,1193,14.3,11.6,84,9.70,113,2.8,297.5,326.0,299.3
885.7,1197,14.3,11.5,83,9.64,113,2.8,297.6,325.8,299.3
885.2,1202,14.3,11.4,83,9.59,113,2.7,297.6,325.7,299.3
884.7,1206,14.3,11.3,83,9.57,113,2.7,297.6,325.7,299.4
884.3,1211,14.2,11.3,83,9.58,113,2.6,297.7,325.8,299.4
883.8,1215,14.2,11.4,83,9.61,113,2.6,297.7,325.8,299.4
883.3,1220,14.2,11.4,83,9.62,113,2.5,297.7,325.9,299.4
882.8,1224,14.1,11.4,84,9.63,113,2.5,297.7,325.9,299.4
882.3,1229,14.1,11.4,84,9.64,114,2.5,297.7,326.0,299.4
881.8,1234,14.1,11.4,84,9.63,115,2.5,297.7,326.0,299.4
881.3,1239,14.0,11.3,84,9.60,116,2.4,297.7,325.9,299.4
880.8,1244,14.0,11.3,84,9.57,117,2.4,297.7,325.8,299.4
880.2,1249,13.9,11.2,84,9.54,118,2.4,297.8,325.7,299.5
879.6,1255,13.9,11.2,84,9.55,119,2.4,297.8,325.8,299.5
879.0,1261,13.9,11.3,84,9.59,121,2.5,297.8,325.9,299.5
878.4,1267,13.8,11.3,85,9.63,122,2.5,297.8,326.0,299.5
877.8,1273,13.7,11.3,85,9.64,124,2.5,297.8,326.1,299.5
877.1,1279,13.7,11.3,85,9.62,126,2.6,297.8,326.0,299.5
876.5,1285,13.6,11.2,85,9.56,128,2.7,297.8,325.8,299.5
875.9,1291,13.5,11.1,85,9.51,130,2.7,297.8,325.6,299.5
875.3,1297,13.5,11.0,85,9.48,132,2.8,297.8,325.6,299.5
874.7,1302,13.4,11.0,85,9.48,133,2.9,297.8,325.6,299.5
874.2,1307,13.4,11.0,86,9.50,135,3.0,297.8,325.6,299.5
873.7,1312,13.4,11.1,86,9.51,136,3.1,297.8,325.7,299.5
873.2,1317,13.3,11.0,86,9.50,138,3.2,297.8,325.7,299.5
872.6,1322,13.3,11.0,86,9.48,139,3.3,297.8,325.6,299.5
872.1,1328,13.2,11.0,86,9.47,141,3.5,297.8,325.6,299.5
871.6,1333,13.2,11.0,86,9.48,142,3.6,297.8,325.7,299.5
871.0,1338,13.2,11.0,87,9.50,143,3.7,297.8,325.7,299.5
870.4,1344,13.1,11.0,87,9.52,144,3.8,297.8,325.8,299.5
869.9,1349,13.1,11.0,87,9.52,145,4.0,297.8,325.8,299.5
869.3,1354,13.0,10.9,87,9.47,146,4.1,297.8,325.6,299.5
868.8,1359,13.0,10.8,87,9.40,146,4.2,297.8,325.4,299.5
868.3,1364,12.9,10.7,86,9.34,147,4.3,297.8,325.3,299.5
867.8,1369,12.9,10.6,86,9.30,148,4.5,297.9,325.2,299.5
867.3,1374,12.9,10.6,86,9.28,148,4.6,297.9,325.1,299.5
866.8,1379,12.8,10.5,86,9.26,149,4.7,297.9,325.1,299.6
866.3,1383,12.8,10.5,86,9.24,149,4.8,297.9,325.1,299.6
865.8,1388,12.8,10.4,86,9.21,150,4.8,297.9,325.0,299.6
865.3,1393,12.7,10.4,86,9.19,150,4.9,297.9,324.9,299.6
864.8,1398,12.7,10.4,86,9.19,150,5.0,297.9,324.9,299.6
864.3,1403,12.6,10.4,86,9.19,151,5.0,297.9,324.9,299.6
863.8,1408,12.6,10.4,86,9.18,151,5.1,297.9,324.9,299.6
863.3,1413,12.5,10.3,87,9.18,151,5.1,297.9,324.9,299.6
862.8,1418,12.5,10.3,87,9.18,151,5.2,297.9,324.9,299.6
862.3,1423,12.4,10.3,87,9.18,151,5.2,297.9,324.9,299.6
861.8,1427,12.4,10.3,87,9.14,151,5.2,298.0,324.8,299.6
861.4,1432,12.4,10.2,86,9.08,151,5.2,298.0,324.7,299.6
860.9,1436,12.4,10.0,85,8.99,151,5.3,298.0,324.5,299.6
860.4,1441,12.4,9.8,84,8.90,151,5.3,298.1,324.2,299.7
860.0,1445,12.4,9.7,84,8.80,151,5.3,298.1,324.0,299.7
859.5,1450,12.3,9.6,83,8.75,151,5.3,298.1,323.9,299.7
859.1,1454,12.3,9.5,83,8.69,150,5.3,298.1,323.7,299.7
858.6,1459,12.3,9.3,82,8.62,150,5.3,298.1,323.5,299.7
858.2,1463,12.3,9.2,82,8.55,150,5.3,298.2,323.4,299.7
857.7,1468,12.2,9.2,81,8.52,150,5.3,298.2,323.3,299.7
857.2,1472,12.2,9.2,82,8.53,150,5.3,298.2,323.3,299.7
856.8,1477,12.2,9.2,82,8.53,149,5.3,298.2,323.4,299.7
856.3,1481,12.1,9.2,82,8.57,149,5.3,298.2,323.5,299.7
855.9,1486,12.1,9.3,83,8.63,149,5.3,298.2,323.6,299.8
855.4,1490,12.1,9.4,83,8.66,149,5.3,298.2,323.8,299.8
854.9,1495,12.0,9.3,84,8.66,149,5.3,298.2,323.8,299.8
854.4,1500,12.0,9.3,84,8.63,149,5.3,298.2,323.7,299.8
853.8,1505,11.9,9.2,84,8.60,148,5.3,298.2,323.6,299.8
853.3,1511,11.9,9.2,84,8.58,148,5.3,298.2,323.5,299.8
852.8,1516,11.8,9.2,84,8.58,148,5.3,298.2,323.5,299.8
852.2,1521,11.8,9.1,84,8.56,148,5.3,298.3,323.5,299.8
851.7,1526,11.8,9.1,84,8.55,148,5.3,298.3,323.5,299.8
851.2,1532,11.7,9.1,84,8.54,148,5.3,298.3,323.5,299.8
850.7,1537,11.7,9.0,84,8.52,148,5.3,298.3,323.4,299.8
850.1,1542,11.6,9.0,84,8.49,148,5.3,298.3,323.4,299.8
850.0,1543,11.6,9.0,84,8.49,148,5.3,298.3,323.3,299.8
849.6,1547,11.6,8.9,84,8.47,148,5.3,298.3,323.3,299.8
849.1,1552,11.5,8.9,84,8.48,148,5.3,298.3,323.3,299.8
848.6,1557,11.5,9.0,84,8.50,148,5.3,298.3,323.4,299.8
848.1,1562,11.5,9.0,85,8.52,148,5.3,298.3,323.5,299.8
847.6,1567,11.4,9.0,85,8.52,148,5.3,298.3,323.5,299.9
847.2,1571,11.4,8.9,85,8.49,148,5.3,298.3,323.4,299.9
846.7,1576,11.3,8.8,85,8.45,148,5.3,298.3,323.3,299.9
846.2,1581,11.3,8.8,84,8.42,148,5.4,298.4,323.2,299.9
845.7,1585,11.3,8.7,84,8.39,148,5.4,298.4,323.2,299.9
845.3,1590,11.2,8.7,84,8.36,148,5.4,298.4,323.1,299.9
844.8,1594,11.2,8.5,84,8.29,148,5.4,298.4,322.9,299.9
844.4,1599,11.2,8.3,82,8.14,148,5.4,298.4,322.5,299.9
843.9,1603,11.2,7.9,80,7.97,148,5.5,298.4,322.0,299.9
843.5,1608,11.2,7.7,79,7.86,148,5.5,298.5,321.8,299.9
843.0,1612,11.2,7.7,79,7.83,148,5.6,298.5,321.7,299.9
842.5,1617,11.1,7.7,79,7.83,148,5.6,298.5,321.7,299.9
842.1,1622,11.1,7.7,80,7.84,148,5.7,298.5,321.7,299.9
841.6,1627,11.0,7.6,80,7.81,148,5.7,298.5,321.7,299.9
841.1,1631,11.0,7.5,79,7.77,148,5.8,298.5,321.5,299.9
840.6,1636,10.9,7.4,79,7.73,147,5.8,298.5,321.4,299.9
840.2,1641,10.9,7.4,79,7.70,147,5.9,298.5,321.3,299.9
839.7,1645,10.9,7.3,79,7.69,147,6.0,298.5,321.3,299.9
839.3,1649,10.8,7.3,79,7.69,147,6.1,298.5,321.3,299.9
838.8,1654,10.8,7.4,79,7.70,147,6.1,298.6,321.4,300.0
838.4,1658,10.8,7.3,79,7.69,147,6.2,298.6,321.3,299.9
838.0,1663,10.7,7.2,79,7.64,147,6.3,298.6,321.2,299.9
837.5,1667,10.7,7.0,78,7.53,147,6.3,298.6,320.9,299.9
837.0,1672,10.7,6.7,76,7.38,147,6.4,298.6,320.5,300.0
836.6,1677,10.7,6.5,75,7.26,147,6.4,298.7,320.2,300.0
836.1,1681,10.7,6.3,75,7.19,147,6.5,298.7,320.1,300.0
835.6,1686,10.6,6.2,74,7.14,147,6.5,298.7,319.9,300.0
835.1,1691,10.6,6.1,74,7.09,147,6.5,298.7,319.8,300.0
834.6,1696,10.6,6.0,74,7.07,147,6.5,298.7,319.8,300.0
834.1,1701,10.5,6.0,74,7.05,147,6.5,298.7,319.7,300.0
833.6,1706,10.5,5.9,73,7.01,147,6.5,298.8,319.6,300.0
833.2,1711,10.4,5.8,73,6.95,148,6.5,298.8,319.5,300.0
832.7,1715,10.4,5.7,72,6.91,148,6.4,298.8,319.4,300.0
832.2,1720,10.4,5.6,72,6.88,148,6.4,298.8,319.3,300.0
831.8,1724,10.4,5.5,72,6.83,149,6.3,298.8,319.2,300.0
831.3,1729,10.3,5.4,72,6.79,149,6.3,298.8,319.1,300.1
830.9,1733,10.3,5.3,71,6.75,150,6.2,298.9,319.0,300.1
830.4,1738,10.3,5.2,71,6.71,150,6.1,298.9,318.9,300.1
830.0,1742,10.3,5.2,71,6.69,151,6.1,298.9,318.9,300.1
829.5,1747,10.3,5.3,71,6.76,151,6.0,299.0,319.2,300.2
829.0,1752,10.3,5.8,74,6.99,152,5.9,299.0,319.8,300.3
828.6,1757,10.2,6.3,76,7.23,153,5.9,299.0,320.5,300.3
828.1,1761,10.2,6.5,78,7.36,154,5.8,299.0,320.9,300.3
827.6,1766,10.1,6.5,78,7.36,154,5.7,299.0,320.9,300.3
827.1,1771,10.1,6.4,78,7.32,155,5.7,299.0,320.8,300.3
826.7,1776,10.0,6.4,78,7.29,156,5.6,299.0,320.7,300.3
826.2,1780,10.0,6.4,78,7.29,156,5.6,299.0,320.7,300.3
825.8,1785,10.0,6.4,78,7.31,157,5.6,299.0,320.8,300.3
825.3,1789,9.9,6.3,78,7.29,157,5.6,299.1,320.7,300.4
824.9,1793,10.0,6.2,77,7.21,158,5.6,299.1,320.6,300.4
824.5,1797,10.0,5.8,75,7.02,158,5.6,299.2,320.2,300.5
824.1,1801,10.2,5.2,71,6.76,159,5.6,299.4,319.6,300.6
823.7,1806,10.3,4.8,69,6.56,159,5.6,299.6,319.3,300.8
823.3,1810,10.4,4.6,67,6.49,159,5.6,299.8,319.2,300.9
822.9,1814,10.4,4.6,67,6.48,159,5.6,299.8,319.3,301.0
822.5,1818,10.4,4.9,68,6.60,159,5.7,299.8,319.6,301.0
822.0,1822,10.3,5.5,72,6.91,159,5.7,299.8,320.4,301.0
821.7,1826,10.2,6.3,77,7.31,159,5.7,299.7,321.6,301.1
821.3,1830,10.2,6.6,79,7.48,158,5.8,299.7,322.0,301.1
820.9,1834,10.2,6.2,76,7.25,158,5.9,299.7,321.4,301.1
820.5,1838,10.1,5.4,72,6.86,158,5.9,299.7,320.3,301.0
820.1,1842,10.1,4.6,69,6.51,158,6.0,299.7,319.2,300.9
819.7,1846,10.1,3.9,66,6.20,157,6.0,299.8,318.4,300.9
819.3,1850,10.2,2.9,61,5.76,157,6.1,299.9,317.3,300.9
818.9,1854,10.3,1.6,55,5.23,157,6.2,300.1,316.0,301.1
818.5,1858,10.5,0.6,50,4.87,157,6.2,300.3,315.1,301.2
818.1,1863,10.5,0.3,49,4.80,157,6.3,300.4,315.0,301.2
