PRES,HGHT,TEMP,DWPT,RELH,MIXR,DRCT,SPED,THTA,THTE,THTV
1013.7,31,28.7,21.3,64,15.88,79,6.0,300.7,347.5,303.5
1012.7,39,27.3,21.1,69,15.73,66,4.2,299.3,345.5,302.2
1012.3,43,26.7,21.1,71,15.72,62,4.1,298.8,344.7,301.6
1011.6,49,26.5,21.1,72,15.74,61,4.2,298.7,344.7,301.5
1010.9,55,26.4,21.0,72,15.63,61,4.5,298.7,344.4,301.5
1010.3,60,26.3,20.7,71,15.41,61,4.7,298.6,343.7,301.4
1009.5,67,26.2,20.5,71,15.20,61,5.0,298.5,343.0,301.2
1008.8,74,26.1,20.5,71,15.19,61,5.2,298.5,342.9,301.2
1008.1,80,26.1,20.5,71,15.26,61,5.4,298.6,343.2,301.3
1007.3,86,26.1,20.5,71,15.27,61,5.6,298.6,343.3,301.4
1006.6,93,26.1,20.5,71,15.23,61,5.8,298.7,343.2,301.4
1005.9,99,26.0,20.4,71,15.18,61,6.0,298.7,343.1,301.4
1005.2,105,26.0,20.3,71,15.13,61,6.2,298.7,342.9,301.4
1004.5,112,25.9,20.3,71,15.08,61,6.3,298.7,342.8,301.4
1003.8,118,25.8,20.2,71,15.04,62,6.4,298.7,342.7,301.4
1003.1,124,25.8,20.2,71,15.02,62,6.5,298.7,342.6,301.4
1002.4,130,25.7,20.1,71,14.93,62,6.6,298.7,342.3,301.3
1001.7,136,25.5,19.9,71,14.79,62,6.7,298.5,341.7,301.2
1001.0,142,25.3,19.8,72,14.69,62,6.8,298.4,341.3,301.0
1000.3,148,25.2,19.8,72,14.64,62,6.8,298.3,341.1,300.9
1000.0,151,25.1,19.7,72,14.59,63,6.9,298.3,340.9,300.9
999.6,154,25.1,19.6,72,14.53,63,6.9,298.2,340.7,300.8
998.9,160,25.0,19.5,72,14.42,63,6.9,298.2,340.3,300.8
998.2,166,24.9,19.4,72,14.38,63,6.9,298.2,340.2,300.8
997.6,172,24.8,19.4,72,14.38,63,7.0,298.2,340.2,300.8
996.9,178,24.8,19.4,72,14.36,64,7.0,298.2,340.1,300.7
996.2,184,24.7,19.4,72,14.40,64,7.0,298.2,340.2,300.7
995.5,190,24.7,19.5,73,14.44,64,7.0,298.2,340.3,300.8
994.9,196,24.6,19.5,73,14.45,65,7.0,298.2,340.3,300.8
994.2,202,24.5,19.5,73,14.48,65,7.0,298.2,340.4,300.8
993.6,207,24.5,19.5,74,14.50,65,7.0,298.2,340.5,300.8
993.0,213,24.4,19.4,74,14.47,65,7.0,298.2,340.4,300.8
992.4,218,24.4,19.4,74,14.43,66,7.0,298.2,340.3,300.7
991.8,223,24.3,19.4,74,14.44,66,7.0,298.2,340.3,300.8
991.3,228,24.3,19.4,74,14.45,66,6.9,298.2,340.3,300.7
990.8,232,24.2,19.4,74,14.45,66,6.9,298.2,340.3,300.7
990.3,237,24.2,19.4,75,14.47,66,6.9,298.2,340.4,300.8
989.8,241,24.2,19.4,75,14.50,66,6.9,298.2,340.5,300.8
989.2,246,24.1,19.5,75,14.55,66,6.9,298.2,340.7,300.8
988.7,251,24.1,19.5,76,14.60,66,6.8,298.2,340.8,300.8
988.1,256,24.0,19.6,76,14.69,66,6.8,298.2,341.0,300.8
987.5,262,23.9,19.6,77,14.73,66,6.8,298.1,341.1,300.8
986.8,268,23.9,19.6,77,14.70,65,6.8,298.1,341.0,300.8
986.2,273,23.8,19.5,77,14.66,65,6.7,298.2,340.9,300.8
985.5,279,23.8,19.5,77,14.65,65,6.7,298.2,340.9,300.8
984.9,285,23.7,19.5,77,14.68,64,6.6,298.2,341.0,300.8
984.3,290,23.7,19.6,78,14.76,64,6.6,298.1,341.2,300.8
983.7,295,23.6,19.7,79,14.85,63,6.5,298.1,341.5,300.8
983.1,301,23.6,19.7,79,14.83,63,6.5,298.2,341.4,300.8
982.5,306,23.5,19.6,79,14.75,62,6.4,298.2,341.2,300.8
982.0,310,23.5,19.5,79,14.72,62,6.4,298.2,341.1,300.8
981.4,315,23.4,19.6,79,14.75,61,6.3,298.2,341.2,300.8
980.9,320,23.4,19.6,79,14.79,61,6.2,298.1,341.3,300.8
980.4,325,23.3,19.6,80,14.81,60,6.2,298.2,341.3,300.8
979.9,329,23.3,19.6,80,14.80,59,6.1,298.2,341.3,300.8
979.4,334,23.2,19.6,80,14.77,59,6.1,298.1,341.2,300.8
978.9,338,23.2,19.5,80,14.75,58,6.0,298.1,341.2,300.8
978.5,342,23.1,19.5,80,14.76,58,5.9,298.1,341.2,300.8
978.0,346,23.1,19.5,80,14.77,57,5.9,298.1,341.2,300.8
977.6,350,23.1,19.5,80,14.76,56,5.8,298.1,341.2,300.8
977.2,354,23.0,19.5,80,14.73,56,5.8,298.1,341.1,300.8
976.7,357,23.0,19.5,80,14.72,55,5.8,298.2,341.1,300.8
976.3,361,23.0,19.5,81,14.74,55,5.7,298.2,341.2,300.8
975.9,365,22.9,19.5,81,14.79,54,5.7,298.2,341.3,300.8
975.5,368,22.9,19.6,82,14.85,54,5.7,298.1,341.5,300.8
975.1,372,22.9,19.6,82,14.89,54,5.7,298.1,341.6,300.8
974.7,375,22.8,19.6,82,14.89,53,5.8,298.1,341.6,300.8
974.3,379,22.8,19.6,82,14.88,53,5.8,298.1,341.5,300.8
973.9,382,22.8,19.6,82,14.89,53,5.8,298.1,341.6,300.8
973.6,386,22.7,19.6,83,14.90,53,5.9,298.1,341.6,300.8
973.2,390,22.7,19.6,83,14.91,52,5.9,298.1,341.6,300.8
972.7,393,22.6,19.6,83,14.90,52,6.0,298.1,341.6,300.8
972.3,397,22.6,19.6,83,14.88,52,6.1,298.1,341.6,300.8
971.9,401,22.6,19.6,83,14.90,52,6.2,298.1,341.6,300.8
971.4,405,22.5,19.6,83,14.91,52,6.3,298.1,341.6,300.8
971.0,409,22.5,19.5,83,14.89,53,6.3,298.1,341.6,300.8
970.5,413,22.5,19.5,83,14.86,53,6.4,298.1,341.5,300.8
970.0,418,22.4,19.5,83,14.85,53,6.5,298.2,341.5,300.8
969.5,422,22.4,19.5,84,14.86,53,6.6,298.2,341.5,300.8
969.0,427,22.3,19.5,84,14.90,53,6.7,298.2,341.6,300.8
968.5,432,22.3,19.6,84,14.94,54,6.8,298.2,341.8,300.8
967.9,437,22.3,19.6,85,15.01,54,6.9,298.2,342.0,300.9
967.3,442,22.2,19.6,85,15.01,55,7.0,298.2,342.0,300.8
966.7,448,22.1,19.5,85,14.92,55,7.1,298.2,341.7,300.8
966.1,453,22.1,19.4,85,14.83,55,7.2,298.1,341.4,300.8
965.5,459,22.0,19.3,85,14.79,56,7.3,298.1,341.3,300.8
964.9,464,22.0,19.3,85,14.77,56,7.3,298.1,341.2,300.8
964.3,470,21.9,19.3,85,14.76,57,7.4,298.1,341.2,300.8
963.7,475,21.9,19.3,85,14.75,57,7.5,298.1,341.2,300.8
963.1,480,21.8,19.2,85,14.71,58,7.5,298.2,341.1,300.8
962.6,485,21.8,19.2,85,14.67,58,7.6,298.1,340.9,300.8
962.1,490,21.7,19.1,85,14.61,59,7.7,298.2,340.8,300.8
961.5,494,21.7,19.0,85,14.56,59,7.7,298.2,340.7,300.8
961.0,499,21.7,18.9,84,14.49,59,7.8,298.2,340.5,300.8
960.6,503,21.7,19.0,85,14.50,60,7.8,298.2,340.5,300.8
960.1,507,21.6,19.0,85,14.58,60,7.9,298.2,340.8,300.8
959.6,512,21.6,19.0,85,14.60,61,8.0,298.2,340.8,300.8
959.2,516,21.5,19.1,86,14.65,61,8.1,298.2,340.9,300.8
958.7,520,21.5,19.2,87,14.74,61,8.1,298.2,341.2,300.8
958.2,524,21.4,19.2,87,14.80,61,8.2,298.2,341.4,300.8
957.7,529,21.4,19.3,88,14.84,62,8.3,298.2,341.5,300.8
957.2,534,21.3,19.3,88,14.85,62,8.4,298.2,341.5,300.8
956.7,538,21.3,19.2,88,14.81,62,8.5,298.2,341.4,300.8
956.2,543,21.2,19.1,88,14.74,62,8.6,298.2,341.2,300.8
955.6,548,21.2,19.1,88,14.72,62,8.7,298.2,341.1,300.8
955.1,553,21.1,19.1,88,14.70,61,8.8,298.2,341.1,300.8
954.6,558,21.1,19.0,88,14.63,61,8.9,298.2,340.8,300.8
954.0,562,21.1,18.7,87,14.41,61,9.0,298.2,340.3,300.8
953.5,567,21.1,18.4,85,14.11,61,9.1,298.3,339.4,300.8
953.0,572,21.1,18.1,83,13.83,60,9.2,298.3,338.7,300.8
952.4,577,21.1,17.9,82,13.65,60,9.3,298.3,338.2,300.8
951.9,582,21.1,17.7,81,13.54,59,9.5,298.4,337.9,300.8
951.3,587,21.0,17.7,81,13.50,59,9.6,298.4,337.9,300.8
950.8,592,21.0,17.7,81,13.50,59,9.7,298.4,337.9,300.8
950.3,596,21.0,17.7,81,13.50,58,9.8,298.4,337.9,300.9
949.8,601,21.0,17.6,81,13.49,58,9.9,298.5,337.9,300.9
949.4,605,20.9,17.7,82,13.51,57,10.0,298.5,338.0,300.9
949.0,609,20.9,17.7,82,13.57,57,10.1,298.5,338.1,300.9
948.6,612,20.8,17.8,83,13.61,57,10.2,298.5,338.2,300.9
948.2,616,20.8,17.8,83,13.64,56,10.2,298.5,338.3,300.9
947.8,619,20.8,17.8,83,13.69,56,10.3,298.5,338.5,300.9
947.4,623,20.7,17.9,84,13.74,56,10.3,298.5,338.6,300.9
947.1,626,20.7,17.9,84,13.79,56,10.4,298.4,338.7,300.9
946.7,629,20.6,17.9,84,13.77,56,10.4,298.4,338.7,300.9
946.4,632,20.6,17.9,84,13.72,56,10.4,298.4,338.5,300.9
946.0,635,20.6,17.8,84,13.72,56,10.4,298.4,338.5,300.9
945.7,638,20.6,17.9,85,13.77,56,10.4,298.4,338.7,300.9
945.4,641,20.5,17.9,85,13.82,56,10.4,298.4,338.8,300.9
945.1,644,20.5,17.9,85,13.81,56,10.4,298.4,338.8,300.9
944.7,647,20.5,17.9,85,13.75,56,10.4,298.4,338.6,300.9
944.4,651,20.5,17.7,84,13.65,56,10.3,298.4,338.3,300.9
944.1,654,20.5,17.7,84,13.58,57,10.3,298.5,338.2,300.9
943.7,657,20.4,17.6,84,13.54,57,10.2,298.5,338.1,300.9
943.4,660,20.4,17.6,84,13.51,57,10.2,298.5,338.0,300.9
943.0,663,20.4,17.5,84,13.48,58,10.1,298.5,337.9,300.9
942.6,667,20.4,17.5,84,13.48,58,10.0,298.5,337.9,300.9
942.3,670,20.3,17.5,84,13.50,58,9.9,298.5,338.0,300.9
941.9,674,20.3,17.6,84,13.54,59,9.9,298.5,338.1,300.9
941.5,677,20.3,17.6,85,13.56,59,9.8,298.5,338.1,300.9
941.1,681,20.2,17.6,85,13.54,60,9.7,298.5,338.1,300.9
940.7,685,20.2,17.6,85,13.54,60,9.7,298.5,338.1,300.9
940.3,689,20.1,17.6,85,13.58,60,9.6,298.5,338.2,300.9
939.8,692,20.1,17.6,85,13.58,61,9.5,298.5,338.2,300.9
939.4,696,20.1,17.6,86,13.58,61,9.5,298.5,338.2,300.9
939.0,700,20.0,17.6,86,13.57,61,9.4,298.5,338.1,300.9
938.6,704,20.0,17.5,86,13.54,62,9.4,298.5,338.1,300.9
938.1,708,19.9,17.5,86,13.51,62,9.4,298.5,338.0,300.9
937.7,712,19.9,17.4,86,13.49,62,9.3,298.5,337.9,300.9
937.3,716,19.9,17.4,86,13.49,63,9.3,298.5,337.9,300.9
936.8,720,19.8,17.4,86,13.50,63,9.3,298.5,338.0,300.9
936.4,724,19.8,17.4,86,13.49,63,9.4,298.5,337.9,300.9
935.9,729,19.8,17.4,86,13.46,63,9.4,298.5,337.9,300.9
935.4,733,19.7,17.3,86,13.43,63,9.4,298.5,337.8,300.9
935.0,737,19.7,17.3,86,13.43,64,9.5,298.5,337.8,300.9
934.5,741,19.7,17.3,86,13.44,64,9.5,298.5,337.8,300.9
934.1,746,19.6,17.4,87,13.47,64,9.6,298.5,337.9,300.9
933.6,750,19.6,17.4,87,13.48,64,9.6,298.5,338.0,300.9
933.1,754,19.5,17.3,87,13.46,65,9.7,298.5,337.9,300.9
932.7,759,19.5,17.3,87,13.42,65,9.8,298.5,337.8,300.9
932.2,763,19.5,17.2,87,13.37,65,9.9,298.5,337.6,300.9
931.7,767,19.4,17.2,87,13.35,66,10.0,298.5,337.6,300.9
931.3,772,19.4,17.2,87,13.35,66,10.1,298.5,337.6,300.9
930.8,776,19.4,17.2,87,13.34,66,10.1,298.6,337.6,300.9
930.3,780,19.3,17.1,87,13.30,66,10.2,298.6,337.5,301.0
929.9,785,19.3,17.1,87,13.28,67,10.3,298.6,337.4,301.0
929.4,789,19.3,17.1,87,13.29,67,10.4,298.6,337.5,301.0
928.9,794,19.2,17.1,87,13.30,67,10.5,298.6,337.5,301.0
928.4,798,19.2,17.0,87,13.28,68,10.5,298.6,337.4,301.0
927.9,803,19.1,17.0,88,13.26,68,10.6,298.6,337.4,301.0
927.4,808,19.1,17.0,88,13.23,68,10.7,298.6,337.3,301.0
926.8,813,19.0,16.9,87,13.19,68,10.7,298.6,337.2,301.0
926.3,818,19.0,16.9,88,13.18,68,10.8,298.6,337.2,301.0
925.8,823,18.9,16.9,88,13.22,68,10.8,298.6,337.2,300.9
925.2,828,18.9,16.9,89,13.24,68,10.8,298.6,337.3,301.0
925.0,830,18.9,16.9,89,13.23,69,10.9,298.6,337.3,300.9
924.6,833,18.8,16.9,88,13.20,69,10.9,298.6,337.2,300.9
924.1,838,18.8,16.8,88,13.11,69,10.9,298.6,337.0,300.9
923.6,843,18.8,16.7,88,13.04,69,10.9,298.6,336.7,300.9
923.1,848,18.7,16.6,87,12.97,69,10.9,298.6,336.6,300.9
922.6,852,18.7,16.5,87,12.89,69,10.9,298.6,336.4,300.9
922.1,857,18.7,16.4,87,12.81,69,10.9,298.7,336.2,300.9
921.7,861,18.6,16.3,86,12.71,68,10.8,298.7,335.9,300.9
921.2,865,18.6,16.1,85,12.60,68,10.8,298.7,335.6,301.0
920.8,869,18.6,16.0,85,12.55,68,10.8,298.7,335.5,301.0
920.4,873,18.6,16.1,85,12.57,68,10.8,298.7,335.5,301.0
919.9,877,18.6,16.0,85,12.56,68,10.8,298.8,335.5,301.0
919.5,881,18.5,16.0,85,12.55,68,10.7,298.8,335.5,301.0
919.0,885,18.5,16.0,85,12.54,68,10.7,298.8,335.5,301.0
918.6,890,18.5,16.0,85,12.51,68,10.7,298.8,335.5,301.0
918.1,894,18.5,15.9,85,12.48,68,10.7,298.8,335.4,301.1
917.7,898,18.4,15.8,85,12.41,68,10.6,298.8,335.2,301.0
917.2,902,18.4,15.7,84,12.31,68,10.6,298.8,334.9,301.0
916.8,907,18.4,15.5,84,12.20,68,10.6,298.9,334.6,301.0
916.3,911,18.4,15.4,83,12.08,68,10.6,298.9,334.3,301.1
915.9,915,18.4,15.2,82,11.94,68,10.6,299.0,334.0,301.1
915.4,919,18.4,15.0,81,11.81,68,10.6,299.0,333.7,301.1
915.0,923,18.4,14.9,80,11.73,68,10.6,299.1,333.5,301.2
914.5,928,18.4,14.8,80,11.69,68,10.6,299.1,333.4,301.2
914.1,932,18.4,14.8,79,11.65,68,10.6,299.1,333.3,301.2
913.7,936,18.4,14.7,79,11.59,68,10.6,299.1,333.2,301.2
913.3,939,18.4,14.6,79,11.54,67,10.6,299.2,333.1,301.2
912.9,943,18.4,14.6,79,11.52,67,10.6,299.2,333.1,301.3
912.6,946,18.3,14.6,79,11.54,67,10.5,299.2,333.1,301.3
912.2,950,18.3,14.7,79,11.59,67,10.5,299.2,333.3,301.3
911.8,953,18.3,14.7,80,11.61,67,10.5,299.2,333.4,301.3
911.5,957,18.3,14.7,80,11.61,67,10.5,299.2,333.4,301.3
911.1,960,18.2,14.7,80,11.61,67,10.5,299.2,333.4,301.3
910.7,964,18.2,14.7,80,11.61,67,10.5,299.2,333.4,301.3
910.3,968,18.2,14.7,80,11.61,67,10.5,299.2,333.4,301.3
909.8,972,18.1,14.7,80,11.63,67,10.5,299.3,333.5,301.3
909.4,976,18.1,14.7,81,11.65,67,10.5,299.3,333.5,301.4
909.0,980,18.1,14.7,81,11.63,67,10.4,299.3,333.4,301.3
908.6,984,18.0,14.6,80,11.57,67,10.4,299.3,333.3,301.3
908.1,988,18.0,14.5,80,11.50,67,10.4,299.3,333.1,301.4
907.7,992,18.0,14.4,79,11.41,67,10.3,299.3,332.9,301.4
907.3,996,18.0,14.1,78,11.21,67,10.3,299.3,332.3,301.4
906.9,1000,18.0,13.8,77,11.03,67,10.3,299.4,331.8,301.4
906.5,1004,18.0,13.7,76,10.92,67,10.3,299.4,331.6,301.4
906.1,1008,18.0,13.6,75,10.85,67,10.2,299.4,331.4,301.4
905.7,1011,18.0,13.5,75,10.81,67,10.2,299.5,331.3,301.4
905.3,1015,18.0,13.5,75,10.82,68,10.2,299.5,331.4,301.5
904.9,1018,18.0,13.5,75,10.84,68,10.2,299.6,331.5,301.5
904.6,1022,18.0,13.5,75,10.83,68,10.1,299.6,331.5,301.5
904.1,1026,18.0,13.5,75,10.82,68,10.1,299.6,331.5,301.6
903.7,1030,18.0,13.5,75,10.80,68,10.1,299.7,331.5,301.6
903.2,1034,17.9,13.4,75,10.78,68,10.1,299.7,331.5,301.6
902.7,1039,17.9,13.4,75,10.73,68,10.1,299.7,331.4,301.6
902.2,1044,17.9,13.3,74,10.68,68,10.1,299.7,331.3,301.7
901.7,1049,17.9,13.3,75,10.72,69,10.2,299.8,331.4,301.7
901.1,1055,17.9,13.5,75,10.82,69,10.2,299.8,331.7,301.7
900.5,1060,17.8,13.6,76,10.95,69,10.2,299.8,332.1,301.8
899.9,1066,17.7,13.7,77,11.04,69,10.2,299.8,332.3,301.8
899.4,1071,17.7,13.7,78,11.05,69,10.3,299.8,332.4,301.8
898.8,1076,17.6,13.7,78,11.03,69,10.3,299.8,332.3,301.8
898.3,1081,17.6,13.7,78,11.03,69,10.3,299.8,332.3,301.8
897.8,1086,17.6,13.8,78,11.08,69,10.4,299.8,332.5,301.8
897.3,1091,17.5,13.8,79,11.15,68,10.4,299.8,332.7,301.8
896.9,1095,17.5,13.9,80,11.23,68,10.4,299.8,332.9,301.8
896.4,1099,17.5,14.1,80,11.32,68,10.5,299.8,333.2,301.9
896.0,1103,17.4,14.1,81,11.38,68,10.5,299.8,333.4,301.9
895.6,1107,17.4,14.1,81,11.34,68,10.5,299.8,333.3,301.9
895.2,1111,17.4,13.9,80,11.20,67,10.6,299.8,332.9,301.9
894.7,1115,17.4,13.5,78,10.95,67,10.6,299.9,332.2,301.9
894.3,1119,17.4,13.2,76,10.69,67,10.6,299.9,331.5,301.9
893.9,1123,17.4,12.8,75,10.47,66,10.6,300.0,330.9,301.9
893.5,1127,17.4,12.5,73,10.23,66,10.6,300.0,330.3,301.9
893.0,1132,17.4,12.2,72,10.07,66,10.6,300.1,329.9,301.9
892.6,1136,17.4,12.1,71,9.99,66,10.6,300.1,329.7,301.9
892.2,1140,17.4,12.0,71,9.93,65,10.6,300.2,329.6,302.0
891.7,1144,17.4,11.9,70,9.85,65,10.6,300.2,329.4,302.0
891.3,1148,17.4,11.8,70,9.81,65,10.6,300.3,329.4,302.1
890.8,1153,17.4,11.8,70,9.80,65,10.6,300.3,329.4,302.1
890.4,1157,17.4,11.7,69,9.77,64,10.6,300.3,329.3,302.1
889.9,1162,17.4,11.7,69,9.73,64,10.5,300.4,329.3,302.1
889.4,1167,17.4,11.6,69,9.71,64,10.5,300.4,329.2,302.2
888.9,1171,17.3,11.6,69,9.70,64,10.4,300.4,329.2,302.2
888.4,1176,17.3,11.6,69,9.71,64,10.4,300.4,329.2,302.2
887.9,1181,17.3,11.6,69,9.70,64,10.3,300.5,329.3,302.2
887.4,1186,17.2,11.6,69,9.69,64,10.3,300.5,329.2,302.2
886.9,1190,17.2,11.5,69,9.68,64,10.3,300.5,329.2,302.2
886.4,1195,17.2,11.6,70,9.71,64,10.2,300.5,329.3,302.2
885.9,1201,17.1,11.7,70,9.78,64,10.2,300.5,329.5,302.3
885.3,1206,17.1,11.8,71,9.88,64,10.1,300.5,329.8,302.3
884.8,1211,17.0,11.9,72,9.93,64,10.1,300.5,330.0,302.3
884.2,1216,17.0,11.9,72,9.93,64,10.0,300.5,330.0,302.3
883.7,1222,17.0,11.8,72,9.91,64,10.0,300.5,329.9,302.3
883.1,1227,16.9,11.8,72,9.92,64,10.0,300.5,330.0,302.3
882.6,1233,16.9,11.9,72,9.95,64,9.9,300.5,330.0,302.3
882.0,1238,16.8,11.9,73,9.96,64,9.9,300.5,330.1,302.3
881.5,1243,16.8,11.8,73,9.94,64,9.9,300.5,330.0,302.3
881.1,1247,16.7,11.8,73,9.93,64,9.9,300.6,330.0,302.4
880.6,1252,16.7,11.8,73,9.94,64,9.9,300.6,330.1,302.4
880.2,1256,16.7,11.9,73,10.00,64,9.9,300.6,330.2,302.4
879.7,1260,16.6,12.0,74,10.07,64,9.9,300.6,330.5,302.4
879.3,1264,16.6,12.1,75,10.13,64,9.9,300.6,330.6,302.4
878.9,1268,16.6,12.1,75,10.17,64,9.9,300.6,330.8,302.5
878.5,1272,16.6,12.1,75,10.16,64,9.9,300.6,330.8,302.5
878.0,1276,16.6,12.1,75,10.14,63,9.9,300.7,330.8,302.5
877.6,1281,16.6,12.1,75,10.15,63,10.0,300.7,330.8,302.5
877.1,1285,16.5,12.1,75,10.19,63,10.0,300.7,331.0,302.6
876.7,1290,16.5,12.2,75,10.21,63,10.0,300.7,331.0,302.6
876.2,1294,16.5,12.1,75,10.19,63,10.0,300.8,331.0,302.6
875.8,1298,16.4,12.0,75,10.10,62,10.1,300.8,330.7,302.6
875.3,1303,16.4,11.9,74,10.02,62,10.1,300.8,330.5,302.6
874.9,1307,16.4,11.8,74,9.97,62,10.2,300.8,330.4,302.6
874.5,1311,16.4,11.7,74,9.95,62,10.2,300.8,330.4,302.6
874.0,1315,16.3,11.7,74,9.90,62,10.3,300.8,330.3,302.6
873.6,1320,16.4,11.5,73,9.81,61,10.3,300.9,330.1,302.7
873.2,1324,16.4,11.5,73,9.78,61,10.3,300.9,330.0,302.7
872.7,1328,16.4,11.5,73,9.82,61,10.4,301.0,330.2,302.8
872.2,1333,16.3,11.6,73,9.88,61,10.4,301.0,330.4,302.8
871.8,1338,16.3,11.6,74,9.91,61,10.5,301.0,330.5,302.8
871.3,1342,16.3,11.6,74,9.87,61,10.5,301.0,330.4,302.8
870.8,1347,16.3,11.4,73,9.77,61,10.6,301.1,330.2,302.9
870.4,1351,16.3,11.2,72,9.67,61,10.6,301.1,329.9,302.9
869.9,1355,16.3,11.2,72,9.62,61,10.7,301.2,329.8,302.9
869.5,1360,16.3,11.1,72,9.60,62,10.7,301.2,329.8,303.0
869.1,1364,16.2,11.1,72,9.60,62,10.7,301.2,329.8,303.0
868.7,1368,16.2,11.1,72,9.59,62,10.8,301.2,329.8,303.0
868.3,1371,16.2,11.0,72,9.57,62,10.8,301.3,329.7,303.0
867.9,1375,16.2,11.0,72,9.56,62,10.9,301.3,329.8,303.0
867.6,1379,16.1,11.1,72,9.58,63,10.9,301.3,329.8,303.0
867.2,1382,16.1,11.1,72,9.61,63,11.0,301.3,329.9,303.0
866.8,1386,16.1,11.1,72,9.62,63,11.0,301.3,329.9,303.0
866.4,1390,16.0,11.1,72,9.62,64,11.1,301.3,329.9,303.0
866.0,1394,16.0,11.1,73,9.62,64,11.1,301.3,329.9,303.0
865.6,1398,16.0,11.1,73,9.60,64,11.1,301.3,329.9,303.0
865.2,1402,15.9,11.0,72,9.58,65,11.2,301.3,329.8,303.0
864.8,1406,15.9,11.0,72,9.55,65,11.2,301.3,329.8,303.1
864.4,1410,15.9,11.0,73,9.57,66,11.2,301.3,329.9,303.1
863.9,1415,15.9,11.1,73,9.62,66,11.2,301.4,330.0,303.1
863.5,1419,15.8,11.1,73,9.66,66,11.2,301.4,330.1,303.1
863.0,1423,15.8,11.1,74,9.66,67,11.3,301.4,330.2,303.1
862.6,1428,15.8,11.0,73,9.60,67,11.2,301.4,330.0,303.1
862.1,1433,15.8,10.8,72,9.49,68,11.2,301.4,329.7,303.2
861.6,1437,15.8,10.7,72,9.40,68,11.2,301.5,329.5,303.2
861.2,1441,15.7,10.6,71,9.36,69,11.2,301.5,329.4,303.2
860.8,1445,15.7,10.6,72,9.37,69,11.2,301.5,329.5,303.2
860.4,1449,15.7,10.7,72,9.42,70,11.2,301.5,329.6,303.2
860.0,1453,15.7,10.8,73,9.48,70,11.1,301.5,329.8,303.2
859.6,1457,15.6,10.9,73,9.55,71,11.1,301.5,330.0,303.3
859.2,1461,15.6,10.9,73,9.56,71,11.0,301.5,330.0,303.3
858.8,1465,15.6,10.8,73,9.49,71,11.0,301.6,329.9,303.3
858.4,1469,15.6,10.7,73,9.43,72,10.9,301.6,329.7,303.3
858.1,1472,15.5,10.7,73,9.47,72,10.9,301.6,329.8,303.3
857.7,1476,15.5,10.9,74,9.58,72,10.8,301.6,330.2,303.3
857.3,1480,15.5,11.1,75,9.72,73,10.8,301.6,330.6,303.4
856.9,1484,15.4,11.2,76,9.83,73,10.7,301.6,330.9,303.4
856.6,1487,15.4,11.3,77,9.90,73,10.7,301.6,331.1,303.4
856.2,1491,15.4,11.4,77,9.96,73,10.6,301.6,331.3,303.4
855.8,1495,15.4,11.5,78,9.99,73,10.6,301.6,331.4,303.4
855.4,1499,15.3,11.5,78,10.00,73,10.5,301.6,331.4,303.4
855.0,1503,15.3,11.4,78,9.98,73,10.5,301.7,331.4,303.5
854.6,1507,15.3,11.4,77,9.95,73,10.4,301.7,331.3,303.5
854.2,1511,15.3,11.3,77,9.89,73,10.4,301.7,331.2,303.5
853.8,1515,15.3,11.2,77,9.84,73,10.4,301.8,331.1,303.6
853.3,1519,15.3,11.1,76,9.80,72,10.3,301.8,331.0,303.6
852.9,1524,15.3,11.1,76,9.75,72,10.3,301.8,330.9,303.6
852.4,1528,15.3,11.0,76,9.71,72,10.3,301.9,330.9,303.6
852.0,1533,15.2,10.9,76,9.68,71,10.2,301.9,330.8,303.6
851.5,1538,15.2,10.9,76,9.66,71,10.2,301.9,330.7,303.6
851.0,1542,15.1,10.8,76,9.63,71,10.2,301.9,330.6,303.6
850.6,1547,15.1,10.8,75,9.60,70,10.2,301.9,330.6,303.6
850.1,1551,15.1,10.8,76,9.61,70,10.2,301.9,330.6,303.6
850.0,1553,15.0,10.8,76,9.63,70,10.2,301.9,330.6,303.6
849.7,1556,15.0,10.9,76,9.67,70,10.2,301.9,330.8,303.6
849.2,1560,15.0,11.0,77,9.75,69,10.2,301.9,331.0,303.7
848.8,1565,14.9,11.0,78,9.79,69,10.2,301.9,331.1,303.7
848.3,1569,14.9,11.1,78,9.81,69,10.2,301.9,331.2,303.7
847.9,1574,14.8,11.1,78,9.85,69,10.2,301.9,331.3,303.7
847.4,1579,14.8,11.2,79,9.88,68,10.2,301.9,331.3,303.7
846.9,1584,14.7,11.1,79,9.88,68,10.2,301.9,331.3,303.7
846.3,1589,14.7,11.1,79,9.85,68,10.3,301.9,331.3,303.7
845.8,1594,14.6,11.0,79,9.79,68,10.3,301.9,331.1,303.7
845.3,1600,14.6,10.9,79,9.74,68,10.3,301.9,331.0,303.7
844.7,1605,14.6,10.8,78,9.71,68,10.3,301.9,330.9,303.7
844.2,1611,14.5,10.8,78,9.67,68,10.4,301.9,330.8,303.7
843.7,1616,14.5,10.7,78,9.60,68,10.4,301.9,330.6,303.7
843.2,1621,14.4,10.5,77,9.53,68,10.4,302.0,330.4,303.7
842.7,1626,14.4,10.4,77,9.46,68,10.5,302.0,330.2,303.7
842.2,1631,14.4,10.3,77,9.41,68,10.5,302.0,330.1,303.7
841.7,1636,14.4,10.3,76,9.38,69,10.5,302.0,330.1,303.7
841.2,1641,14.4,10.3,76,9.37,69,10.5,302.1,330.1,303.8
840.7,1646,14.3,10.2,76,9.36,69,10.5,302.1,330.1,303.8
