PRES,HGHT,TEMP,DWPT,RELH,MIXR,DRCT,SPED,THTA,THTE,THTV
1013.3,31,23.1,20.3,84,14.93,75,6.2,295.1,338.1,297.8
1012.6,36,23.1,20.4,85,15.04,79,5.5,295.2,338.5,297.8
1012.0,42,23.1,20.4,85,15.06,82,5.5,295.2,338.6,297.9
1011.2,49,23.1,20.4,85,15.08,83,5.7,295.3,338.7,298.0
1010.5,54,23.1,20.4,85,15.05,83,6.1,295.4,338.7,298.0
1010.0,59,23.1,20.3,84,15.00,83,6.5,295.4,338.6,298.0
1009.1,67,23.0,20.2,84,14.94,83,7.0,295.4,338.5,298.1
1008.3,74,23.0,20.2,84,14.90,83,7.4,295.4,338.4,298.1
1007.5,81,22.9,20.1,84,14.90,83,7.8,295.4,338.4,298.1
1006.7,88,22.9,20.1,84,14.88,83,8.1,295.4,338.4,298.1
1005.8,95,22.8,20.1,85,14.84,83,8.5,295.5,338.2,298.1
1005.0,102,22.7,20.0,85,14.84,83,8.8,295.5,338.3,298.1
1004.2,110,22.7,20.0,85,14.84,83,9.2,295.5,338.2,298.1
1003.3,117,22.6,20.0,85,14.81,83,9.5,295.5,338.2,298.1
1002.5,124,22.5,19.9,85,14.76,83,9.8,295.5,338.0,298.1
1001.7,131,22.5,19.9,85,14.73,83,10.0,295.5,337.9,298.1
1000.9,138,22.4,19.9,85,14.73,83,10.2,295.5,337.9,298.1
1000.1,145,22.3,19.8,86,14.71,83,10.5,295.5,337.9,298.1
1000.0,146,22.3,19.8,86,14.69,83,10.7,295.5,337.8,298.1
999.4,152,22.3,19.8,86,14.66,83,10.7,295.5,337.7,298.0
998.6,158,22.2,19.7,86,14.59,83,10.8,295.4,337.5,298.0
997.8,165,22.1,19.6,86,14.56,83,11.0,295.4,337.4,298.0
997.0,172,22.0,19.6,86,14.52,83,11.1,295.4,337.3,298.0
996.2,179,22.0,19.5,86,14.51,83,11.3,295.5,337.3,298.0
995.4,186,21.9,19.6,87,14.56,83,11.4,295.4,337.4,298.0
994.6,194,21.8,19.6,87,14.61,83,11.5,295.4,337.6,298.0
993.8,201,21.8,19.6,88,14.64,84,11.5,295.4,337.6,298.0
993.0,207,21.7,19.6,88,14.59,84,11.6,295.4,337.5,298.0
992.2,214,21.6,19.5,88,14.53,84,11.7,295.4,337.3,298.0
991.4,221,21.6,19.5,88,14.54,84,11.7,295.4,337.4,298.0
990.7,228,21.5,19.5,88,14.55,84,11.8,295.4,337.4,298.0
989.9,235,21.4,19.5,88,14.53,85,11.8,295.4,337.3,298.0
989.1,241,21.4,19.5,89,14.53,85,11.9,295.4,337.3,298.0
988.4,248,21.3,19.5,89,14.58,85,11.9,295.4,337.5,298.0
987.6,255,21.2,19.5,90,14.59,86,11.9,295.4,337.5,298.0
986.8,261,21.2,19.4,90,14.56,86,11.9,295.4,337.4,298.0
986.1,268,21.1,19.4,90,14.51,87,12.0,295.4,337.3,298.0
985.3,275,21.1,19.4,90,14.50,87,12.0,295.5,337.3,298.0
984.5,282,21.0,19.3,90,14.50,88,12.0,295.5,337.3,298.0
983.8,288,20.9,19.3,91,14.51,88,12.1,295.5,337.3,298.0
983.0,295,20.9,19.3,91,14.51,89,12.1,295.5,337.3,298.0
982.3,302,20.8,19.3,91,14.46,89,12.1,295.5,337.1,298.0
981.5,308,20.8,19.1,90,14.33,90,12.2,295.5,336.8,298.0
980.8,315,20.8,18.9,89,14.17,90,12.2,295.6,336.5,298.1
980.0,322,20.8,18.7,88,14.01,91,12.3,295.6,336.1,298.1
979.2,328,20.7,18.7,88,13.96,91,12.3,295.7,336.0,298.1
978.5,335,20.7,18.7,89,14.03,92,12.4,295.7,336.2,298.2
977.7,342,20.6,18.8,89,14.12,92,12.4,295.6,336.4,298.2
976.9,349,20.5,18.8,90,14.11,93,12.5,295.6,336.3,298.1
976.2,356,20.4,18.7,90,14.06,93,12.5,295.6,336.2,298.1
975.4,363,20.4,18.7,90,14.04,94,12.6,295.6,336.1,298.1
974.6,369,20.3,18.7,91,14.09,94,12.7,295.6,336.3,298.1
973.8,376,20.2,18.8,92,14.19,95,12.8,295.6,336.5,298.1
973.1,383,20.1,18.9,92,14.22,95,12.9,295.6,336.6,298.1
972.3,390,20.0,18.8,93,14.20,96,12.9,295.6,336.5,298.1
971.6,397,20.0,18.7,93,14.14,96,13.0,295.6,336.3,298.1
970.8,403,19.9,18.7,92,14.09,96,13.1,295.6,336.2,298.1
970.1,409,19.9,18.7,93,14.11,97,13.2,295.6,336.3,298.1
969.5,415,19.8,18.7,93,14.13,97,13.3,295.6,336.3,298.1
968.8,422,19.8,18.7,93,14.11,97,13.4,295.6,336.3,298.1
968.1,428,19.7,18.6,94,14.10,97,13.5,295.6,336.2,298.1
967.4,434,19.6,18.6,94,14.05,97,13.6,295.6,336.1,298.1
966.7,440,19.6,18.6,94,14.05,98,13.7,295.6,336.1,298.1
966.0,446,19.5,18.6,94,14.08,98,13.8,295.6,336.2,298.1
965.3,452,19.5,18.6,95,14.09,98,13.9,295.6,336.3,298.1
964.6,459,19.5,18.5,94,14.07,98,14.0,295.6,336.2,298.1
963.9,465,19.4,18.5,94,14.03,98,14.1,295.6,336.1,298.1
963.2,472,19.4,18.5,94,14.01,98,14.2,295.7,336.1,298.2
962.4,478,19.3,18.4,94,13.98,98,14.3,295.7,336.1,298.2
961.7,485,19.3,18.4,95,13.94,98,14.4,295.7,335.9,298.2
960.9,492,19.2,18.3,95,13.89,98,14.5,295.7,335.8,298.1
960.2,498,19.1,18.2,94,13.81,98,14.6,295.7,335.6,298.1
959.5,505,19.1,18.1,94,13.79,99,14.7,295.7,335.5,298.2
958.7,511,19.1,18.2,94,13.81,99,14.7,295.8,335.6,298.2
958.0,518,19.0,18.2,95,13.84,99,14.8,295.8,335.7,298.2
957.3,525,19.0,18.2,96,13.89,99,14.9,295.8,335.9,298.2
956.5,531,18.9,18.2,96,13.90,99,14.9,295.7,335.9,298.2
955.8,538,18.8,18.2,96,13.86,99,15.0,295.7,335.7,298.2
955.0,545,18.8,18.1,96,13.78,99,15.0,295.8,335.6,298.2
954.3,551,18.7,18.0,95,13.70,99,15.1,295.8,335.4,298.2
953.6,558,18.7,17.9,95,13.66,99,15.1,295.8,335.3,298.3
952.9,564,18.7,17.9,95,13.66,100,15.1,295.9,335.3,298.3
952.2,571,18.6,17.9,96,13.69,100,15.2,295.9,335.4,298.3
951.5,577,18.6,17.9,96,13.69,100,15.2,295.9,335.4,298.3
950.9,583,18.5,17.9,96,13.68,100,15.2,295.9,335.4,298.3
950.2,588,18.4,17.9,97,13.69,100,15.2,295.9,335.4,298.3
949.6,594,18.4,17.9,97,13.71,100,15.2,295.9,335.5,298.3
949.0,599,18.3,17.9,98,13.74,100,15.2,295.8,335.5,298.3
948.4,605,18.2,17.9,98,13.74,100,15.2,295.8,335.5,298.3
947.8,610,18.2,17.9,98,13.72,100,15.1,295.8,335.5,298.3
947.3,615,18.2,17.9,98,13.71,100,15.1,295.9,335.5,298.3
946.7,620,18.1,17.8,98,13.69,100,15.1,295.9,335.4,298.3
946.1,626,18.1,17.8,98,13.67,100,15.1,295.9,335.4,298.3
945.5,631,18.1,17.7,98,13.62,101,15.0,295.9,335.3,298.3
944.9,636,18.0,17.6,98,13.54,101,15.0,295.9,335.1,298.3
944.3,642,18.0,17.6,97,13.49,101,15.0,296.0,335.0,298.4
943.7,647,18.0,17.6,97,13.50,101,15.0,296.0,335.0,298.4
943.1,653,17.9,17.6,98,13.53,101,14.9,296.0,335.1,298.4
942.5,659,17.9,17.6,98,13.52,101,14.9,296.0,335.1,298.4
941.8,665,17.8,17.5,98,13.50,101,14.9,296.0,335.0,298.4
941.2,671,17.8,17.5,98,13.51,101,14.9,296.0,335.1,298.4
940.5,677,17.7,17.5,99,13.52,101,14.8,296.0,335.1,298.4
939.8,683,17.7,17.5,99,13.53,101,14.8,296.0,335.1,298.4
939.2,689,17.6,17.5,99,13.52,101,14.8,296.0,335.1,298.4
938.5,695,17.6,17.5,99,13.49,102,14.8,296.0,335.0,298.4
937.8,701,17.5,17.4,99,13.43,102,14.8,296.1,334.9,298.4
937.2,707,17.5,17.3,99,13.41,102,14.8,296.1,334.9,298.5
936.5,714,17.5,17.4,99,13.44,102,14.8,296.1,335.0,298.5
935.8,720,17.4,17.3,99,13.42,102,14.8,296.1,334.9,298.5
935.1,726,17.4,17.2,99,13.33,103,14.7,296.1,334.7,298.5
934.4,733,17.3,17.1,98,13.23,103,14.7,296.2,334.5,298.5
933.7,739,17.3,17.0,98,13.13,103,14.7,296.2,334.2,298.5
933.0,745,17.3,16.9,97,13.06,103,14.7,296.2,334.1,298.6
932.3,751,17.2,16.8,97,13.00,104,14.6,296.3,333.9,298.6
931.7,757,17.2,16.7,97,12.92,104,14.6,296.3,333.7,298.6
931.1,763,17.2,16.6,96,12.85,104,14.5,296.4,333.6,298.6
930.4,769,17.2,16.5,96,12.80,104,14.5,296.4,333.5,298.7
929.8,775,17.2,16.5,96,12.81,105,14.4,296.5,333.6,298.7
929.2,781,17.2,16.5,96,12.81,105,14.3,296.5,333.6,298.8
928.5,786,17.2,16.4,96,12.77,105,14.2,296.5,333.5,298.8
927.9,792,17.1,16.4,95,12.73,105,14.1,296.6,333.5,298.8
927.3,798,17.1,16.3,95,12.68,105,14.0,296.6,333.4,298.8
926.7,803,17.1,16.2,95,12.63,106,13.9,296.6,333.3,298.9
926.1,809,17.1,16.2,94,12.59,106,13.8,296.7,333.2,298.9
925.5,815,17.1,16.2,94,12.59,106,13.7,296.7,333.3,299.0
925.0,819,17.0,16.2,95,12.59,106,13.7,296.7,333.3,299.0
924.9,820,17.0,16.2,95,12.59,106,13.5,296.7,333.3,299.0
924.2,826,17.0,16.1,95,12.58,106,13.4,296.8,333.3,299.0
923.6,832,17.0,16.1,94,12.54,106,13.2,296.8,333.2,299.1
923.0,837,17.1,16.1,94,12.53,107,13.1,296.9,333.4,299.2
922.4,843,17.0,16.0,94,12.49,107,12.9,296.9,333.2,299.1
921.9,848,16.9,16.0,94,12.47,107,12.7,296.8,333.1,299.1
921.3,854,16.8,15.9,95,12.46,107,12.6,296.8,333.0,299.0
920.7,859,16.7,15.9,95,12.44,108,12.4,296.8,332.9,299.0
920.0,865,16.7,15.9,95,12.42,108,12.2,296.9,332.9,299.1
919.4,871,16.7,15.8,94,12.40,108,12.0,296.9,333.0,299.1
918.7,877,16.8,15.8,94,12.42,108,11.9,297.0,333.1,299.2
918.0,884,16.7,15.9,95,12.45,109,11.7,297.0,333.2,299.3
917.4,890,16.7,15.9,95,12.45,109,11.5,297.0,333.2,299.2
916.7,896,16.6,15.8,95,12.41,109,11.3,297.0,333.1,299.2
916.0,903,16.5,15.7,95,12.35,110,11.1,297.0,333.0,299.2
915.3,909,16.5,15.6,95,12.30,110,11.0,297.1,332.9,299.3
914.7,915,16.5,15.6,95,12.30,111,10.8,297.1,332.9,299.3
914.0,921,16.4,15.6,95,12.31,111,10.6,297.1,332.9,299.3
913.3,928,16.4,15.6,95,12.31,111,10.4,297.2,333.0,299.4
912.7,934,16.4,15.6,95,12.31,112,10.3,297.2,333.0,299.4
912.0,940,16.3,15.6,95,12.28,112,10.1,297.2,332.9,299.4
911.3,947,16.3,15.5,95,12.21,112,9.9,297.2,332.8,299.4
910.6,953,16.3,15.4,95,12.16,113,9.8,297.2,332.6,299.4
909.9,959,16.2,15.4,95,12.15,113,9.6,297.3,332.7,299.5
909.3,966,16.2,15.3,95,12.15,113,9.5,297.3,332.7,299.5
908.6,972,16.2,15.3,95,12.12,113,9.3,297.3,332.6,299.5
907.9,978,16.1,15.3,95,12.10,113,9.2,297.4,332.6,299.5
907.3,985,16.1,15.2,95,12.08,113,9.0,297.4,332.6,299.5
906.6,991,16.0,15.2,95,12.05,113,8.9,297.4,332.5,299.5
906.0,997,16.0,15.1,95,12.03,112,8.8,297.4,332.4,299.5
905.4,1003,15.9,15.1,95,12.03,112,8.6,297.4,332.5,299.6
904.7,1008,15.9,15.1,95,12.05,112,8.5,297.4,332.5,299.6
904.1,1014,15.8,15.1,96,12.06,112,8.4,297.4,332.5,299.6
903.5,1020,15.8,15.1,96,12.03,111,8.3,297.4,332.4,299.5
902.9,1026,15.7,15.1,96,12.00,111,8.2,297.4,332.4,299.5
902.2,1032,15.7,15.0,96,12.00,110,8.1,297.4,332.4,299.6
901.6,1038,15.6,15.0,96,12.00,110,8.0,297.4,332.4,299.6
900.9,1044,15.5,15.0,97,11.98,109,7.9,297.4,332.3,299.5
900.3,1051,15.5,14.9,96,11.93,109,7.8,297.4,332.2,299.5
899.6,1057,15.5,14.9,96,11.89,108,7.7,297.5,332.2,299.6
898.9,1063,15.5,14.8,96,11.88,108,7.6,297.6,332.2,299.7
898.3,1069,15.5,14.8,96,11.89,107,7.5,297.6,332.3,299.7
897.6,1075,15.4,14.8,96,11.86,107,7.4,297.6,332.2,299.7
897.0,1081,15.4,14.7,96,11.80,106,7.3,297.6,332.1,299.8
896.3,1088,15.4,14.6,95,11.73,106,7.2,297.7,331.9,299.8
895.7,1094,15.4,14.4,94,11.63,105,7.1,297.7,331.7,299.8
895.1,1100,15.4,14.3,93,11.56,105,7.0,297.8,331.6,299.9
894.4,1106,15.4,14.3,93,11.52,104,6.9,297.9,331.6,300.0
893.8,1112,15.4,14.3,93,11.51,104,6.8,298.0,331.6,300.1
893.1,1118,15.4,14.2,93,11.49,104,6.7,298.0,331.6,300.1
892.5,1124,15.4,14.2,93,11.46,103,6.5,298.0,331.6,300.1
891.8,1130,15.4,14.1,92,11.42,103,6.4,298.1,331.5,300.2
891.2,1137,15.4,14.1,92,11.42,103,6.3,298.2,331.6,300.2
890.5,1143,15.3,14.1,93,11.44,103,6.2,298.2,331.6,300.2
889.8,1150,15.2,14.1,93,11.44,102,6.1,298.2,331.6,300.2
889.2,1156,15.1,14.1,93,11.42,102,5.9,298.1,331.5,300.2
888.5,1162,15.1,14.0,93,11.40,102,5.8,298.2,331.5,300.2
887.8,1169,15.1,14.0,93,11.37,102,5.7,298.2,331.5,300.2
887.2,1175,15.1,13.9,93,11.34,102,5.6,298.2,331.4,300.3
886.6,1180,15.1,13.9,92,11.30,102,5.5,298.3,331.4,300.3
886.1,1186,15.0,13.8,92,11.24,102,5.4,298.3,331.2,300.3
885.5,1191,15.0,13.7,92,11.19,102,5.3,298.3,331.1,300.3
884.9,1197,15.0,13.6,92,11.15,101,5.2,298.4,331.0,300.4
884.3,1203,15.0,13.6,91,11.12,101,5.1,298.4,331.0,300.4
883.7,1209,15.0,13.5,91,11.09,101,5.1,298.5,331.0,300.5
883.0,1215,14.9,13.4,91,11.03,101,5.0,298.5,330.8,300.5
882.4,1221,14.9,13.3,90,10.97,101,5.0,298.6,330.7,300.5
881.7,1228,14.9,13.2,90,10.90,102,4.9,298.6,330.6,300.6
880.9,1235,14.9,13.1,89,10.83,102,4.9,298.7,330.5,300.6
880.2,1242,14.9,13.0,88,10.75,102,4.9,298.7,330.3,300.7
879.5,1249,14.9,12.8,87,10.64,102,4.9,298.8,330.1,300.7
878.7,1256,15.0,12.7,86,10.53,102,4.9,299.0,329.9,300.9
878.0,1263,15.0,12.5,85,10.44,102,4.9,299.1,329.8,301.0
877.3,1270,15.0,12.4,84,10.38,102,5.0,299.2,329.7,301.0
876.6,1277,15.0,12.3,84,10.33,103,5.0,299.2,329.7,301.1
875.9,1284,15.0,12.3,84,10.31,103,5.0,299.3,329.7,301.1
875.2,1290,15.0,12.3,84,10.31,103,5.1,299.3,329.7,301.2
874.5,1297,14.9,12.3,84,10.30,103,5.1,299.3,329.7,301.2
873.9,1303,14.9,12.2,84,10.27,103,5.2,299.3,329.6,301.2
873.2,1310,14.8,12.1,84,10.23,103,5.2,299.4,329.5,301.2
872.5,1317,14.8,12.1,84,10.20,103,5.3,299.4,329.5,301.2
871.8,1323,14.8,12.0,84,10.19,103,5.4,299.4,329.5,301.2
871.1,1330,14.7,12.0,84,10.18,103,5.4,299.4,329.5,301.3
870.4,1337,14.7,12.0,84,10.14,103,5.5,299.5,329.4,301.3
869.8,1343,14.7,11.8,83,10.08,103,5.6,299.5,329.3,301.3
869.1,1350,14.7,11.8,83,10.02,103,5.6,299.6,329.2,301.4
868.5,1356,14.6,11.7,82,9.98,103,5.7,299.6,329.1,301.4
867.9,1362,14.6,11.6,82,9.95,103,5.7,299.6,329.1,301.4
867.3,1368,14.6,11.6,82,9.94,103,5.8,299.7,329.1,301.5
866.7,1373,14.6,11.6,82,9.93,102,5.8,299.7,329.1,301.5
866.1,1379,14.5,11.5,82,9.92,102,5.9,299.7,329.1,301.5
865.5,1385,14.5,11.5,82,9.88,102,5.9,299.8,329.0,301.6
865.0,1390,14.5,11.4,82,9.84,102,5.9,299.8,328.9,301.6
864.4,1395,14.5,11.3,81,9.80,101,6.0,299.9,328.9,301.6
863.9,1400,14.5,11.3,81,9.78,101,6.0,299.9,328.9,301.7
863.4,1405,14.5,11.3,81,9.78,101,6.0,299.9,328.9,301.7
862.9,1410,14.4,11.3,81,9.80,100,6.0,300.0,329.0,301.7
862.4,1415,14.4,11.3,82,9.80,100,6.0,300.0,329.0,301.7
861.9,1420,14.3,11.3,82,9.80,100,6.0,300.0,329.0,301.7
861.4,1425,14.3,11.3,82,9.79,99,6.0,300.0,328.9,301.7
860.9,1430,14.2,11.3,82,9.81,99,6.0,300.0,329.0,301.7
860.3,1436,14.2,11.3,83,9.82,98,6.0,300.0,329.0,301.7
859.7,1442,14.2,11.3,83,9.83,98,6.0,300.0,329.1,301.8
859.1,1447,14.1,11.3,83,9.83,97,6.0,300.0,329.1,301.8
858.5,1453,14.1,11.3,83,9.82,97,5.9,300.0,329.1,301.8
858.0,1459,14.0,11.2,83,9.79,96,5.9,300.0,329.0,301.8
857.4,1464,14.0,11.2,83,9.78,96,5.9,300.0,329.0,301.8
856.9,1470,13.9,11.2,83,9.79,95,5.9,300.0,329.0,301.8
856.3,1475,13.9,11.2,84,9.80,95,5.9,300.0,329.1,301.8
855.8,1480,13.8,11.2,84,9.79,94,5.9,300.0,329.0,301.8
855.3,1485,13.8,11.1,84,9.75,93,5.9,300.0,328.9,301.8
854.8,1491,13.7,11.0,84,9.71,93,5.8,300.0,328.8,301.8
854.3,1496,13.7,11.0,84,9.71,92,5.8,300.1,328.8,301.8
853.7,1501,13.7,11.1,84,9.75,92,5.8,300.1,328.9,301.8
853.2,1506,13.6,11.1,85,9.80,91,5.8,300.1,329.1,301.8
852.7,1511,13.6,11.2,85,9.84,90,5.8,300.1,329.2,301.9
852.2,1516,13.5,11.2,86,9.82,90,5.8,300.1,329.1,301.8
851.6,1522,13.5,11.1,86,9.79,89,5.8,300.1,329.1,301.8
851.1,1527,13.4,11.1,86,9.77,89,5.8,300.1,329.0,301.8
850.6,1532,13.4,11.0,86,9.76,89,5.7,300.1,328.9,301.8
850.0,1538,13.3,11.0,86,9.76,88,5.7,300.1,329.0,301.8
849.5,1543,13.3,11.0,86,9.77,88,5.7,300.1,329.0,301.8
849.0,1548,13.2,11.0,87,9.78,88,5.7,300.1,329.0,301.8
848.4,1553,13.2,11.0,87,9.77,87,5.7,300.1,329.0,301.8
847.9,1559,13.1,11.0,87,9.75,87,5.6,300.1,329.0,301.8
847.4,1564,13.1,10.9,87,9.73,87,5.6,300.1,328.9,301.8
846.8,1569,13.0,10.9,87,9.73,87,5.6,300.1,328.9,301.9
846.3,1574,13.0,10.9,87,9.75,87,5.5,300.1,329.0,301.9
845.8,1579,12.9,10.9,88,9.74,87,5.5,300.1,328.9,301.9
845.3,1585,12.9,10.9,88,9.74,87,5.5,300.1,329.0,301.9
844.7,1590,12.8,10.9,88,9.76,88,5.4,300.1,329.0,301.9
844.2,1596,12.8,10.9,89,9.77,88,5.4,300.1,329.0,301.9
843.6,1601,12.7,10.9,89,9.74,88,5.4,300.1,329.0,301.9
843.0,1607,12.7,10.8,89,9.73,89,5.3,300.1,328.9,301.9
842.4,1613,12.6,10.8,89,9.72,89,5.3,300.1,328.9,301.9
841.8,1619,12.6,10.8,89,9.71,89,5.2,300.1,328.9,301.9
841.2,1625,12.5,10.8,89,9.71,90,5.2,300.2,328.9,301.9
840.6,1631,12.5,10.8,89,9.69,90,5.2,300.2,328.9,301.9
840.0,1637,12.4,10.7,89,9.64,91,5.2,300.2,328.7,301.9
839.4,1643,12.4,10.6,89,9.61,91,5.1,300.2,328.7,302.0
838.8,1649,12.4,10.6,89,9.61,92,5.1,300.2,328.7,301.9
838.2,1655,12.3,10.6,89,9.61,92,5.1,300.2,328.6,301.9
837.6,1661,12.2,10.5,89,9.59,93,5.1,300.2,328.6,301.9
837.0,1667,12.2,10.5,89,9.57,93,5.1,300.2,328.6,302.0
836.4,1673,12.2,10.5,89,9.55,94,5.1,300.3,328.6,302.0
835.8,1679,12.1,10.4,89,9.52,94,5.1,300.3,328.5,302.0
835.2,1685,12.1,10.3,89,9.48,95,5.2,300.3,328.4,302.0
834.6,1691,12.1,10.3,89,9.47,95,5.2,300.4,328.4,302.1
834.0,1697,12.1,10.3,89,9.49,96,5.2,300.4,328.6,302.1
833.4,1704,12.0,10.3,89,9.49,96,5.2,300.4,328.6,302.1
832.8,1710,12.0,10.3,90,9.51,97,5.3,300.5,328.7,302.2
832.2,1716,12.0,10.4,90,9.53,97,5.3,300.5,328.8,302.2
831.6,1722,12.0,10.4,90,9.55,98,5.4,300.5,328.9,302.3
831.0,1728,11.9,10.4,90,9.55,98,5.5,300.5,328.9,302.2
830.4,1734,11.8,10.4,91,9.56,99,5.5,300.5,328.9,302.2
829.8,1740,11.8,10.3,91,9.53,99,5.6,300.5,328.8,302.2
829.2,1746,11.7,10.3,91,9.51,100,5.7,300.5,328.7,302.2
828.6,1753,11.7,10.3,91,9.52,100,5.8,300.5,328.8,302.2
827.9,1759,11.6,10.3,91,9.53,101,5.9,300.5,328.8,302.3
827.3,1765,11.6,10.3,92,9.54,101,6.0,300.5,328.9,302.3
826.7,1771,11.5,10.3,92,9.54,102,6.1,300.6,328.9,302.3
826.1,1777,11.5,10.2,92,9.53,102,6.2,300.6,328.9,302.3
825.5,1783,11.4,10.2,92,9.52,103,6.3,300.6,328.8,302.3
824.9,1790,11.4,10.2,93,9.53,103,6.4,300.6,328.9,302.3
824.3,1796,11.3,10.2,93,9.52,104,6.5,300.6,328.9,302.3
823.7,1802,11.2,10.2,93,9.53,104,6.6,300.6,328.9,302.3
823.0,1809,11.2,10.2,94,9.54,105,6.7,300.6,328.9,302.3
822.4,1815,11.1,10.2,94,9.56,105,6.9,300.6,329.0,302.3
821.7,1822,11.1,10.2,94,9.56,105,7.0,300.6,329.0,302.3
821.1,1829,11.0,10.2,95,9.57,105,7.1,300.6,329.0,302.3
820.4,1835,10.9,10.2,95,9.55,106,7.2,300.6,328.9,302.3
819.7,1842,10.9,10.1,95,9.53,106,7.4,300.6,328.9,302.3
819.1,1849,10.8,10.1,95,9.50,106,7.5,300.6,328.8,302.3
818.5,1855,10.8,10.1,95,9.50,106,7.6,300.6,328.8,302.3
817.8,1862,10.7,10.1,96,9.51,106,7.7,300.7,328.9,302.4
817.2,1868,10.7,10.1,96,9.52,107,7.8,300.7,328.9,302.4
816.5,1875,10.6,10.0,96,9.52,107,7.9,300.7,329.0,302.4
815.9,1881,10.6,10.1,96,9.54,107,8.0,300.7,329.1,302.5
815.2,1888,10.6,10.1,97,9.54,107,8.1,300.8,329.1,302.5
814.6,1895,10.5,10.0,97,9.53,107,8.2,300.8,329.1,302.5
813.9,1901,10.5,10.0,97,9.51,108,8.3,300.8,329.1,302.6
813.3,1908,10.5,10.0,96,9.50,108,8.4,300.9,329.1,302.6
812.7,1915,10.5,9.9,97,9.50,108,8.4,300.9,329.1,302.6
812.0,1921,10.4,9.9,97,9.49,109,8.5,300.9,329.1,302.6
811.4,1927,10.3,9.9,97,9.50,109,8.5,300.9,329.2,302.7
810.8,1934,10.3,9.9,98,9.51,109,8.6,300.9,329.2,302.7
810.2,1940,10.2,9.9,98,9.51,110,8.7,300.9,329.2,302.7
809.6,1946,10.2,9.9,98,9.53,110,8.7,300.9,329.3,302.7
809.0,1953,10.1,9.9,99,9.54,111,8.7,301.0,329.3,302.7
808.3,1959,10.1,9.9,99,9.55,111,8.8,301.0,329.4,302.7
807.7,1965,10.1,9.9,99,9.52,112,8.8,301.0,329.4,302.8
807.1,1972,10.0,9.8,99,9.50,113,8.9,301.1,329.3,302.8
806.5,1978,10.0,9.8,99,9.49,113,8.9,301.1,329.3,302.8
805.9,1984,9.9,9.8,99,9.49,114,8.9,301.1,329.3,302.8
805.2,1991,9.9,9.8,100,9.50,115,9.0,301.1,329.4,302.8
804.6,1998,9.8,9.8,100,9.50,115,9.0,301.1,329.4,302.8
804.0,2004,9.8,9.8,100,9.49,116,9.1,301.1,329.4,302.8
803.3,2011,9.8,9.8,100,9.49,117,9.1,301.2,329.4,302.9
802.7,2017,9.7,9.7,100,9.46,117,9.1,301.2,329.4,302.9
802.1,2024,9.7,9.6,100,9.41,118,9.2,301.2,329.2,302.9
801.5,2030,9.6,9.5,99,9.35,118,9.2,301.2,329.1,302.9
800.9,2036,9.6,9.4,99,9.29,119,9.3,301.3,328.9,303.0
800.4,2042,9.6,9.3,98,9.25,119,9.3,301.3,328.9,303.0
799.8,2047,9.6,9.2,98,9.20,119,9.4,301.3,328.8,303.0
799.3,2053,9.5,9.1,97,9.14,120,9.4,301.4,328.6,303.0
798.8,2058,9.5,9.0,97,9.08,120,9.4,301.4,328.5,303.1
798.2,2064,9.6,8.9,96,9.03,120,9.5,301.5,328.5,303.1
797.7,2070,9.5,8.9,95,8.98,120,9.5,301.5,328.4,303.2
797.1,2075,9.5,8.8,95,8.94,120,9.6,301.6,328.3,303.2
796.6,2081,9.5,8.7,95,8.92,120,9.6,301.6,328.2,303.2
796.0,2087,9.5,8.7,95,8.90,120,9.7,301.6,328.2,303.3
795.5,2093,9.4,8.7,95,8.89,120,9.7,301.7,328.2,303.3
794.9,2098,9.4,8.7,95,8.92,119,9.8,301.7,328.4,303.3
794.4,2104,9.4,8.7,96,8.94,119,9.9,301.7,328.4,303.4
793.9,2109,9.4,8.7,95,8.92,119,9.9,301.8,328.4,303.4
793.4,2115,9.3,8.6,95,8.90,118,10.0,301.8,328.4,303.4
792.9,2120,9.3,8.6,95,8.89,118,10.1,301.9,328.4,303.5
792.4,2125,9.3,8.6,95,8.88,118,10.1,301.9,328.5,303.5
791.9,2130,9.3,8.6,95,8.87,117,10.2,301.9,328.5,303.6
791.4,2135,9.3,8.5,95,8.84,117,10.3,302.0,328.4,303.6
790.9,2140,9.3,8.4,94,8.80,117,10.4,302.0,328.4,303.6
790.5,2145,9.3,8.4,94,8.78,116,10.5,302.0,328.3,303.6
790.0,2150,9.2,8.4,94,8.78,116,10.6,302.1,328.3,303.7
789.5,2155,9.2,8.4,94,8.77,116,10.7,302.1,328.4,303.7
789.0,2160,9.3,8.4,94,8.78,116,10.9,302.2,328.6,303.8
788.6,2165,9.3,8.3,94,8.78,115,11.0,302.3,328.6,303.9
788.1,2170,9.3,8.4,94,8.79,115,11.1,302.3,328.7,303.9
787.7,2175,9.3,8.3,94,8.78,115,11.2,302.4,328.7,304.0
787.2,2180,9.3,8.3,94,8.78,115,11.3,302.4,328.7,304.0
786.7,2185,9.2,8.4,94,8.81,115,11.4,302.4,328.8,304.0
786.2,2190,9.2,8.4,95,8.85,115,11.5,302.4,328.9,304.0
785.8,2195,9.1,8.5,96,8.88,115,11.6,302.4,329.0,304.0
785.3,2200,9.1,8.5,96,8.91,114,11.7,302.4,329.1,304.0
784.8,2205,9.1,8.6,97,8.97,114,11.8,302.4,329.3,304.1
784.3,2210,9.1,8.5,96,8.95,114,11.9,302.5,329.3,304.1
783.9,2215,9.1,8.5,96,8.90,114,11.9,302.6,329.2,304.2
