PRES,HGHT,TEMP,DWPT,RELH,MIXR,DRCT,SPED,THTA,THTE,THTV
1016.1,31,23.9,20.5,81,15.06,77,6.1,295.7,339.2,298.4
1015.5,35,24.0,20.4,80,15.04,68,4.2,295.9,339.3,298.5
1015.1,39,24.3,20.3,79,14.97,63,3.8,296.2,339.4,298.8
1014.4,46,24.5,20.3,78,14.95,61,3.9,296.4,339.7,299.1
1013.6,52,24.5,20.2,77,14.88,61,4.2,296.5,339.6,299.1
1012.9,58,24.5,20.1,77,14.79,62,4.6,296.6,339.4,299.2
1012.3,64,24.5,20.0,76,14.71,63,4.9,296.6,339.2,299.2
1011.7,68,24.5,19.9,76,14.61,63,5.1,296.6,339.0,299.2
1011.1,74,24.4,19.8,75,14.53,63,5.4,296.6,338.7,299.2
1010.5,79,24.3,19.8,76,14.49,63,5.6,296.6,338.6,299.2
1009.8,85,24.3,19.8,76,14.50,63,5.9,296.6,338.6,299.2
1009.2,90,24.2,19.7,76,14.49,63,6.1,296.6,338.6,299.2
1008.6,96,24.2,19.7,76,14.50,63,6.3,296.6,338.6,299.2
1007.9,101,24.2,19.8,77,14.56,64,6.4,296.6,338.8,299.2
1007.3,107,24.1,19.8,77,14.58,64,6.6,296.6,338.9,299.2
1006.7,112,24.1,19.8,77,14.58,64,6.7,296.6,338.9,299.2
1006.1,117,24.0,19.8,77,14.59,64,6.9,296.6,338.9,299.2
1005.5,122,24.0,19.8,77,14.58,64,7.0,296.6,338.9,299.2
1005.0,127,23.9,19.7,77,14.55,64,7.1,296.6,338.8,299.2
1004.4,132,23.9,19.6,77,14.48,64,7.2,296.6,338.6,299.2
1003.8,137,23.8,19.6,77,14.43,64,7.2,296.6,338.5,299.2
1003.2,142,23.8,19.6,77,14.45,64,7.3,296.6,338.5,299.2
1002.7,147,23.7,19.7,78,14.52,64,7.4,296.6,338.7,299.2
1002.1,152,23.6,19.6,78,14.47,64,7.4,296.6,338.5,299.2
1001.5,157,23.6,19.5,78,14.36,64,7.4,296.6,338.2,299.1
1001.0,162,23.6,19.4,77,14.28,64,7.5,296.6,338.0,299.2
1000.5,167,23.5,19.4,77,14.30,64,7.5,296.6,338.1,299.2
1000.0,171,23.5,19.4,78,14.36,64,7.5,296.6,338.3,299.2
999.5,175,23.4,19.5,78,14.41,64,7.6,296.6,338.4,299.2
999.0,180,23.4,19.5,79,14.44,64,7.6,296.6,338.5,299.2
998.5,184,23.4,19.6,79,14.49,64,7.6,296.6,338.6,299.2
998.0,188,23.3,19.6,80,14.51,63,7.7,296.6,338.7,299.2
997.5,193,23.3,19.6,80,14.52,63,7.7,296.6,338.7,299.2
997.0,197,23.2,19.6,80,14.51,63,7.7,296.6,338.7,299.2
996.4,202,23.2,19.5,80,14.50,63,7.7,296.6,338.6,299.2
995.9,207,23.1,19.5,80,14.50,63,7.8,296.6,338.6,299.2
995.3,212,23.1,19.5,80,14.48,63,7.8,296.6,338.6,299.2
994.7,217,23.0,19.5,80,14.45,63,7.8,296.6,338.5,299.2
994.2,222,23.0,19.4,80,14.45,63,7.8,296.6,338.5,299.2
993.6,226,23.0,19.4,81,14.44,63,7.9,296.6,338.5,299.2
993.1,231,22.9,19.4,80,14.39,63,7.9,296.6,338.3,299.2
992.6,235,22.9,19.3,80,14.32,63,7.9,296.6,338.2,299.2
992.2,239,22.8,19.2,80,14.27,63,7.9,296.6,338.0,299.2
991.7,243,22.8,19.2,80,14.27,63,7.9,296.7,338.0,299.2
991.3,247,22.8,19.3,81,14.34,63,8.0,296.6,338.2,299.2
990.8,251,22.7,19.3,81,14.40,63,8.0,296.7,338.4,299.2
990.4,255,22.7,19.3,81,14.39,63,8.0,296.6,338.4,299.2
989.9,260,22.7,19.3,82,14.41,63,8.0,296.7,338.4,299.2
989.4,264,22.6,19.4,82,14.50,63,8.0,296.7,338.7,299.2
988.8,269,22.5,19.5,83,14.56,63,8.0,296.6,338.8,299.2
988.3,274,22.5,19.4,83,14.54,63,8.0,296.6,338.8,299.2
987.7,279,22.4,19.4,83,14.51,63,8.0,296.6,338.7,299.2
987.2,283,22.4,19.3,83,14.45,63,8.0,296.6,338.5,299.2
986.7,288,22.4,19.3,83,14.41,64,7.9,296.6,338.4,299.2
986.2,292,22.3,19.3,83,14.43,64,7.9,296.6,338.5,299.2
985.7,297,22.3,19.3,83,14.44,64,7.9,296.6,338.5,299.2
985.2,301,22.2,19.3,83,14.44,64,7.9,296.6,338.5,299.2
984.8,305,22.2,19.3,84,14.43,64,7.9,296.6,338.5,299.2
984.3,309,22.2,19.3,84,14.42,64,7.9,296.6,338.4,299.2
983.8,313,22.1,19.2,84,14.42,64,7.9,296.6,338.4,299.2
983.3,317,22.1,19.2,84,14.42,65,7.9,296.6,338.4,299.2
982.9,322,22.0,19.2,84,14.41,65,7.9,296.6,338.4,299.2
982.4,326,22.0,19.2,84,14.40,65,7.8,296.7,338.4,299.2
981.9,331,22.0,19.2,84,14.37,65,7.8,296.7,338.3,299.2
981.3,335,21.9,19.1,84,14.35,65,7.8,296.7,338.2,299.2
980.8,340,21.9,19.1,84,14.31,65,7.8,296.7,338.1,299.2
980.3,345,21.8,19.1,84,14.31,65,7.8,296.7,338.1,299.2
979.7,350,21.8,19.1,85,14.36,65,7.7,296.7,338.3,299.2
979.2,354,21.7,19.2,85,14.42,65,7.7,296.7,338.5,299.2
978.7,359,21.7,19.2,86,14.44,65,7.7,296.6,338.5,299.2
978.1,364,21.6,19.2,86,14.45,65,7.7,296.6,338.5,299.2
977.6,368,21.6,19.2,86,14.44,65,7.7,296.6,338.5,299.2
977.1,373,21.5,19.1,86,14.41,65,7.6,296.6,338.4,299.2
976.6,378,21.5,19.1,86,14.41,66,7.6,296.6,338.4,299.2
976.1,382,21.4,19.1,87,14.43,66,7.6,296.6,338.4,299.2
975.5,387,21.4,19.2,87,14.46,66,7.6,296.6,338.5,299.2
975.0,392,21.3,19.2,87,14.48,66,7.5,296.6,338.6,299.2
974.4,397,21.3,19.2,88,14.48,66,7.5,296.6,338.6,299.2
973.8,402,21.3,19.1,88,14.47,66,7.5,296.6,338.6,299.2
973.3,407,21.2,19.1,88,14.41,66,7.5,296.6,338.4,299.2
972.7,412,21.1,19.0,87,14.33,66,7.5,296.6,338.2,299.2
972.1,417,21.1,18.9,87,14.27,66,7.5,296.6,338.0,299.2
971.6,422,21.1,18.9,87,14.30,66,7.5,296.7,338.1,299.2
971.0,427,21.0,19.0,88,14.35,66,7.5,296.7,338.3,299.2
970.5,432,21.0,19.0,88,14.36,66,7.5,296.6,338.3,299.2
969.9,437,20.9,19.0,89,14.39,66,7.5,296.7,338.4,299.2
969.4,442,20.9,19.0,89,14.45,66,7.5,296.6,338.5,299.2
968.8,447,20.8,19.1,90,14.48,66,7.5,296.6,338.6,299.2
968.3,452,20.8,19.0,90,14.42,66,7.5,296.6,338.4,299.2
967.8,456,20.7,18.9,89,14.33,66,7.6,296.6,338.2,299.2
967.2,461,20.7,18.8,89,14.26,66,7.6,296.7,338.0,299.2
966.7,466,20.7,18.8,89,14.24,66,7.6,296.7,337.9,299.2
966.2,470,20.6,18.8,89,14.28,66,7.6,296.7,338.1,299.2
965.7,475,20.6,18.8,90,14.29,66,7.7,296.7,338.1,299.2
965.2,480,20.6,18.8,89,14.25,66,7.7,296.7,338.0,299.2
964.6,484,20.5,18.8,90,14.29,66,7.7,296.7,338.1,299.3
964.1,489,20.5,18.9,91,14.40,66,7.8,296.7,338.4,299.3
963.6,494,20.4,19.0,91,14.46,66,7.8,296.7,338.6,299.2
963.1,498,20.3,18.9,92,14.46,66,7.8,296.7,338.6,299.2
962.6,503,20.3,18.9,92,14.46,66,7.8,296.7,338.6,299.2
962.0,508,20.3,18.9,92,14.47,66,7.9,296.7,338.6,299.2
961.5,513,20.2,19.0,93,14.49,66,7.9,296.7,338.7,299.2
960.9,518,20.2,19.0,93,14.50,66,7.9,296.7,338.7,299.2
960.4,523,20.1,18.9,93,14.47,66,8.0,296.7,338.6,299.2
959.8,528,20.1,18.9,93,14.46,66,8.0,296.7,338.6,299.2
959.2,533,20.0,18.9,93,14.48,66,8.0,296.7,338.6,299.2
958.7,538,20.0,18.9,93,14.46,66,8.0,296.7,338.6,299.2
958.1,543,19.9,18.8,93,14.41,66,8.1,296.6,338.4,299.2
957.6,548,19.9,18.7,93,14.36,66,8.1,296.6,338.3,299.2
957.1,553,19.8,18.7,93,14.31,66,8.1,296.7,338.1,299.2
956.5,557,19.8,18.6,93,14.28,66,8.1,296.7,338.1,299.2
956.0,562,19.8,18.6,93,14.25,66,8.2,296.7,338.0,299.2
955.5,567,19.7,18.6,93,14.22,66,8.2,296.7,337.9,299.2
954.9,572,19.7,18.4,92,14.05,66,8.2,296.7,337.5,299.2
954.3,577,19.7,18.1,90,13.79,66,8.2,296.8,336.8,299.2
953.8,582,19.7,17.9,89,13.65,66,8.3,296.8,336.4,299.2
953.2,588,19.7,17.9,89,13.62,66,8.3,296.8,336.4,299.3
952.6,593,19.6,17.9,90,13.63,66,8.3,296.9,336.4,299.3
952.0,598,19.6,17.9,90,13.69,66,8.4,296.9,336.6,299.3
951.5,603,19.5,18.0,91,13.74,66,8.4,296.9,336.7,299.3
950.9,609,19.5,18.0,91,13.75,66,8.4,296.9,336.8,299.3
950.3,614,19.4,17.9,91,13.74,66,8.5,296.9,336.7,299.3
949.7,620,19.4,17.9,91,13.69,66,8.5,296.9,336.6,299.3
949.1,625,19.3,17.8,91,13.60,66,8.5,296.9,336.4,299.3
948.5,631,19.3,17.6,90,13.44,66,8.6,296.9,335.9,299.3
947.9,636,19.3,17.3,88,13.20,66,8.6,296.9,335.3,299.3
947.3,641,19.3,17.0,86,12.94,66,8.6,297.0,334.6,299.3
946.8,646,19.4,16.8,85,12.79,66,8.7,297.1,334.3,299.4
946.2,651,19.4,16.8,85,12.79,66,8.7,297.2,334.4,299.4
945.7,656,19.3,16.8,85,12.79,66,8.7,297.2,334.4,299.5
945.2,661,19.3,16.7,85,12.75,67,8.8,297.2,334.3,299.5
944.6,665,19.3,16.6,85,12.68,67,8.8,297.2,334.1,299.5
944.1,670,19.2,16.6,84,12.65,67,8.8,297.2,334.0,299.5
943.6,675,19.2,16.6,85,12.66,67,8.9,297.2,334.1,299.5
943.1,680,19.2,16.6,85,12.68,67,8.9,297.2,334.1,299.5
942.6,684,19.1,16.5,85,12.66,67,8.9,297.3,334.1,299.5
942.1,689,19.1,16.5,85,12.61,67,8.9,297.3,334.0,299.5
941.6,694,19.1,16.4,84,12.54,67,8.9,297.3,333.8,299.5
941.1,698,19.1,16.3,84,12.51,67,9.0,297.3,333.8,299.6
940.6,703,19.0,16.3,84,12.51,68,9.0,297.3,333.8,299.6
940.1,707,19.0,16.4,85,12.54,68,9.0,297.3,333.9,299.6
939.5,712,18.9,16.4,85,12.57,68,9.0,297.3,334.0,299.6
939.0,717,18.9,16.4,85,12.58,68,9.0,297.3,334.0,299.6
938.5,722,18.9,16.4,85,12.56,68,9.0,297.3,333.9,299.6
938.0,726,18.8,16.3,85,12.52,68,9.0,297.3,333.8,299.6
937.5,731,18.8,16.2,85,12.47,68,9.0,297.4,333.7,299.6
936.9,736,18.7,16.2,85,12.42,68,9.0,297.4,333.5,299.6
936.4,741,18.7,16.1,85,12.38,68,9.0,297.4,333.4,299.6
935.9,746,18.7,16.1,85,12.39,68,9.0,297.4,333.5,299.6
935.4,751,18.6,16.1,85,12.41,68,9.0,297.4,333.5,299.6
934.8,755,18.6,16.1,85,12.41,68,9.0,297.4,333.6,299.6
934.3,760,18.5,16.1,86,12.41,68,9.0,297.4,333.6,299.6
933.8,765,18.5,16.1,86,12.41,68,9.0,297.4,333.6,299.6
933.3,770,18.5,16.1,86,12.39,67,8.9,297.4,333.5,299.6
932.8,774,18.4,16.0,86,12.36,67,8.9,297.4,333.4,299.6
932.3,779,18.4,16.0,86,12.33,67,8.9,297.4,333.4,299.7
931.8,783,18.4,15.9,85,12.28,67,8.9,297.5,333.3,299.7
931.3,788,18.4,15.8,85,12.20,67,8.9,297.5,333.0,299.7
930.8,793,18.3,15.7,85,12.13,67,8.8,297.5,332.9,299.7
930.3,797,18.3,15.7,85,12.13,67,8.8,297.5,332.9,299.7
929.8,802,18.2,15.7,85,12.14,67,8.8,297.5,332.9,299.7
929.2,807,18.2,15.7,85,12.12,67,8.7,297.5,332.9,299.7
928.7,812,18.2,15.6,85,12.09,67,8.7,297.5,332.8,299.7
928.2,817,18.1,15.6,85,12.06,67,8.7,297.5,332.7,299.7
927.7,822,18.1,15.5,85,12.03,67,8.6,297.5,332.6,299.7
927.1,826,18.0,15.5,85,12.01,67,8.6,297.5,332.6,299.7
926.6,831,18.0,15.4,85,11.99,67,8.5,297.6,332.5,299.7
926.1,836,18.0,15.4,85,11.98,68,8.5,297.6,332.5,299.7
925.6,841,17.9,15.4,85,11.95,68,8.4,297.6,332.4,299.7
925.0,846,17.9,15.3,85,11.93,68,8.4,297.6,332.4,299.7
924.5,851,17.9,15.3,85,11.94,68,8.4,297.6,332.4,299.7
923.9,856,17.8,15.4,86,11.99,68,8.3,297.6,332.6,299.7
923.4,861,17.8,15.4,86,12.02,68,8.3,297.6,332.7,299.8
922.8,866,17.7,15.4,86,12.01,68,8.2,297.6,332.6,299.8
922.3,871,17.7,15.4,86,11.99,68,8.2,297.6,332.6,299.8
921.7,877,17.6,15.4,87,11.99,68,8.2,297.6,332.6,299.8
921.2,882,17.6,15.4,87,12.01,69,8.1,297.6,332.7,299.8
920.7,886,17.5,15.4,87,12.04,69,8.1,297.6,332.7,299.8
920.1,891,17.5,15.4,88,12.08,69,8.0,297.6,332.9,299.8
919.6,896,17.5,15.5,88,12.10,69,8.0,297.6,332.9,299.8
919.1,901,17.4,15.4,88,12.08,69,8.0,297.6,332.9,299.8
918.6,906,17.4,15.4,88,12.03,69,7.9,297.7,332.7,299.8
918.1,911,17.3,15.3,88,11.98,69,7.9,297.7,332.6,299.8
917.5,916,17.3,15.2,88,11.96,69,7.9,297.7,332.6,299.8
917.0,920,17.3,15.3,88,11.98,69,7.9,297.7,332.6,299.8
916.5,925,17.2,15.3,88,12.02,69,7.9,297.7,332.8,299.9
916.0,930,17.2,15.3,89,12.03,69,7.8,297.7,332.8,299.9
915.5,935,17.2,15.3,89,12.01,69,7.8,297.7,332.8,299.9
915.0,939,17.1,15.3,89,12.00,69,7.8,297.7,332.7,299.9
914.5,944,17.1,15.2,89,11.97,69,7.8,297.7,332.7,299.9
914.1,948,17.1,15.2,89,11.95,69,7.8,297.7,332.6,299.9
913.6,953,17.0,15.2,89,11.97,69,7.8,297.8,332.7,299.9
913.1,957,17.0,15.2,89,12.02,69,7.8,297.8,332.9,299.9
912.6,961,17.0,15.3,90,12.06,69,7.8,297.8,333.0,300.0
912.2,966,16.9,15.3,90,12.07,69,7.8,297.8,333.1,300.0
911.7,970,16.9,15.3,90,12.08,69,7.8,297.8,333.1,300.0
911.2,975,16.9,15.3,90,12.09,69,7.8,297.9,333.2,300.0
910.7,980,16.9,15.3,90,12.07,68,7.9,297.9,333.1,300.0
910.2,984,16.9,15.2,90,12.02,68,7.9,297.9,333.0,300.1
909.7,989,16.8,15.2,90,11.99,68,7.9,297.9,332.9,300.1
909.2,994,16.8,15.1,90,11.94,68,7.9,297.9,332.8,300.1
908.6,999,16.8,15.0,89,11.88,68,7.9,297.9,332.7,300.1
908.1,1004,16.7,14.9,89,11.83,68,7.9,298.0,332.5,300.1
907.6,1009,16.7,14.9,89,11.82,68,7.9,298.0,332.5,300.1
907.1,1013,16.7,14.9,89,11.82,67,8.0,298.0,332.6,300.2
906.6,1018,16.7,14.9,89,11.84,67,8.0,298.1,332.7,300.2
906.1,1023,16.7,14.9,89,11.85,67,8.0,298.1,332.7,300.2
905.5,1028,16.6,14.9,90,11.84,67,8.0,298.1,332.7,300.2
905.0,1034,16.6,14.8,89,11.79,67,8.0,298.1,332.6,300.2
904.4,1039,16.6,14.6,88,11.66,67,8.0,298.2,332.3,300.2
903.8,1044,16.6,14.5,87,11.55,67,8.0,298.2,332.0,300.3
903.3,1050,16.6,14.4,87,11.47,67,8.0,298.3,331.8,300.3
902.7,1055,16.6,14.4,87,11.47,68,8.0,298.3,331.9,300.4
902.2,1060,16.5,14.4,87,11.47,68,8.0,298.3,331.9,300.4
901.7,1064,16.5,14.3,87,11.46,68,8.0,298.3,331.9,300.4
901.2,1069,16.5,14.3,87,11.41,68,8.0,298.4,331.8,300.4
900.7,1074,16.5,14.2,86,11.36,68,8.0,298.4,331.7,300.4
900.2,1078,16.4,14.2,86,11.36,68,8.1,298.4,331.7,300.5
899.7,1083,16.4,14.2,87,11.41,69,8.1,298.4,331.9,300.5
899.2,1088,16.4,14.3,88,11.47,69,8.1,298.4,332.1,300.5
898.7,1093,16.3,14.3,88,11.50,69,8.1,298.4,332.1,300.5
898.1,1098,16.3,14.3,88,11.51,69,8.1,298.4,332.2,300.5
897.6,1103,16.2,14.3,89,11.50,70,8.1,298.4,332.1,300.5
897.1,1108,16.2,14.3,89,11.49,70,8.2,298.4,332.1,300.5
896.6,1113,16.1,14.3,89,11.52,70,8.2,298.4,332.2,300.5
896.1,1118,16.1,14.4,90,11.58,71,8.2,298.4,332.4,300.5
895.6,1122,16.1,14.5,90,11.63,71,8.3,298.5,332.5,300.5
895.2,1127,16.0,14.5,90,11.65,71,8.3,298.5,332.6,300.6
894.7,1131,16.0,14.4,91,11.64,71,8.3,298.5,332.6,300.6
894.2,1135,16.0,14.4,91,11.62,72,8.4,298.5,332.5,300.6
893.8,1140,15.9,14.4,90,11.59,72,8.4,298.5,332.4,300.6
893.3,1144,15.9,14.3,90,11.55,72,8.5,298.5,332.4,300.6
892.8,1149,15.9,14.2,90,11.51,72,8.5,298.5,332.3,300.6
892.3,1154,15.8,14.2,90,11.47,73,8.5,298.6,332.2,300.6
891.8,1159,15.8,14.1,90,11.43,73,8.6,298.6,332.1,300.6
891.3,1164,15.8,14.1,90,11.40,73,8.6,298.6,332.0,300.6
890.8,1169,15.7,14.0,89,11.35,73,8.6,298.6,331.8,300.6
890.3,1173,15.7,13.9,89,11.30,73,8.6,298.6,331.7,300.6
889.8,1178,15.7,13.9,89,11.29,73,8.7,298.6,331.7,300.6
889.4,1182,15.6,13.9,90,11.32,74,8.7,298.6,331.8,300.7
888.9,1186,15.6,14.0,90,11.41,74,8.7,298.7,332.1,300.7
888.5,1190,15.6,14.2,91,11.50,74,8.7,298.7,332.4,300.7
888.1,1194,15.6,14.2,91,11.53,74,8.7,298.7,332.5,300.8
887.7,1198,15.5,14.2,92,11.53,74,8.6,298.7,332.5,300.8
887.2,1202,15.5,14.2,92,11.54,75,8.6,298.7,332.5,300.8
886.8,1207,15.5,14.2,92,11.58,75,8.6,298.7,332.7,300.8
886.3,1211,15.4,14.3,93,11.62,75,8.5,298.7,332.8,300.8
885.9,1215,15.4,14.3,93,11.63,75,8.5,298.7,332.8,300.8
885.4,1220,15.4,14.3,93,11.62,76,8.5,298.7,332.8,300.8
884.9,1225,15.3,14.2,93,11.61,76,8.4,298.7,332.8,300.8
884.4,1230,15.3,14.2,93,11.58,76,8.3,298.7,332.7,300.8
883.8,1235,15.3,14.1,93,11.53,77,8.3,298.8,332.6,300.8
883.3,1240,15.2,14.0,93,11.49,77,8.2,298.8,332.5,300.8
882.8,1245,15.2,14.0,92,11.46,78,8.1,298.8,332.4,300.9
882.3,1250,15.2,14.0,92,11.44,78,8.1,298.8,332.4,300.9
881.7,1255,15.1,13.9,92,11.41,79,8.0,298.8,332.3,300.9
881.3,1260,15.1,13.9,92,11.38,79,8.0,298.8,332.2,300.9
880.8,1264,15.1,13.9,93,11.38,80,7.9,298.8,332.2,300.9
880.3,1269,15.0,13.9,93,11.41,80,7.9,298.9,332.4,300.9
879.9,1273,15.0,13.9,93,11.43,81,7.8,298.8,332.4,300.9
879.5,1277,14.9,13.9,94,11.44,81,7.8,298.8,332.4,300.9
879.0,1281,14.9,13.9,94,11.44,82,7.7,298.9,332.4,300.9
878.6,1286,14.9,13.9,94,11.44,82,7.7,298.9,332.4,300.9
878.1,1290,14.8,13.9,94,11.45,82,7.7,298.9,332.5,300.9
877.6,1295,14.8,13.9,94,11.44,83,7.7,298.9,332.5,300.9
877.1,1300,14.8,13.9,94,11.42,83,7.7,298.9,332.4,301.0
876.6,1305,14.7,13.8,94,11.41,83,7.7,298.9,332.4,301.0
876.1,1310,14.7,13.7,94,11.35,84,7.7,298.9,332.3,301.0
875.6,1315,14.7,13.6,93,11.24,84,7.7,299.0,332.0,301.0
875.1,1320,14.7,13.4,92,11.13,84,7.7,299.0,331.7,301.0
874.6,1324,14.7,13.3,91,11.07,84,7.7,299.1,331.6,301.1
874.1,1329,14.7,13.3,91,11.06,84,7.7,299.1,331.6,301.1
873.6,1334,14.7,13.3,92,11.05,85,7.8,299.1,331.6,301.1
873.1,1339,14.6,13.3,92,11.06,85,7.8,299.1,331.7,301.1
872.6,1344,14.6,13.3,92,11.07,85,7.8,299.1,331.7,301.1
872.1,1348,14.5,13.3,92,11.07,85,7.9,299.1,331.7,301.1
871.6,1353,14.5,13.3,92,11.06,85,7.9,299.2,331.7,301.2
871.2,1358,14.5,13.3,92,11.06,85,7.9,299.2,331.7,301.2
870.7,1362,14.4,13.3,93,11.08,84,8.0,299.2,331.8,301.2
870.2,1367,14.4,13.3,93,11.07,84,8.0,299.2,331.7,301.2
869.7,1371,14.3,13.2,93,11.04,84,8.1,299.2,331.6,301.2
869.3,1376,14.3,13.2,93,11.01,84,8.1,299.2,331.6,301.2
868.8,1380,14.3,13.1,93,11.00,84,8.1,299.2,331.5,301.2
868.4,1385,14.2,13.1,93,10.99,84,8.2,299.2,331.5,301.2
867.9,1390,14.3,13.1,93,10.99,84,8.2,299.3,331.6,301.2
867.4,1394,14.3,13.1,93,10.99,84,8.3,299.3,331.7,301.3
866.9,1399,14.2,13.1,93,10.98,84,8.3,299.4,331.7,301.3
866.4,1404,14.2,13.1,93,10.97,84,8.3,299.4,331.7,301.4
866.0,1408,14.2,13.0,92,10.92,84,8.4,299.4,331.6,301.4
865.5,1413,14.2,12.9,92,10.87,84,8.4,299.4,331.5,301.4
865.1,1417,14.2,12.9,92,10.86,84,8.4,299.5,331.4,301.4
864.7,1421,14.1,12.9,92,10.85,85,8.4,299.5,331.4,301.4
864.3,1425,14.1,12.8,92,10.84,85,8.5,299.5,331.4,301.4
863.9,1428,14.1,12.8,92,10.85,85,8.5,299.5,331.5,301.4
863.5,1432,14.1,12.8,92,10.85,85,8.5,299.5,331.5,301.5
863.2,1436,14.0,12.8,92,10.85,85,8.5,299.5,331.5,301.5
862.8,1439,14.0,12.8,92,10.86,85,8.5,299.5,331.5,301.5
862.5,1442,14.0,12.8,93,10.86,85,8.5,299.6,331.6,301.5
862.1,1446,14.0,12.8,93,10.86,85,8.5,299.6,331.6,301.5
861.7,1450,14.0,12.8,93,10.85,85,8.5,299.6,331.6,301.5
861.4,1453,13.9,12.8,93,10.84,85,8.5,299.6,331.5,301.5
861.0,1457,13.9,12.7,93,10.81,85,8.5,299.6,331.5,301.5
860.6,1461,13.9,12.7,93,10.79,85,8.4,299.6,331.4,301.5
860.2,1465,13.9,12.7,92,10.76,85,8.4,299.6,331.3,301.6
859.7,1469,13.8,12.6,92,10.72,85,8.4,299.7,331.3,301.6
859.3,1474,13.8,12.5,91,10.63,85,8.4,299.7,331.1,301.6
858.8,1479,13.9,12.3,91,10.56,85,8.3,299.8,330.9,301.7
858.3,1483,13.9,12.3,90,10.52,84,8.3,299.8,330.9,301.7
857.8,1488,13.9,12.3,90,10.51,84,8.2,299.9,330.9,301.8
857.3,1493,13.8,12.2,90,10.49,84,8.2,299.9,330.9,301.8
856.8,1498,13.8,12.2,90,10.46,84,8.1,299.9,330.8,301.8
856.3,1503,13.8,12.1,90,10.43,84,8.1,299.9,330.7,301.8
855.8,1508,13.7,12.1,90,10.41,84,8.0,299.9,330.7,301.8
855.3,1513,13.7,12.1,90,10.40,84,8.0,300.0,330.7,301.8
854.8,1518,13.7,12.0,90,10.38,84,7.9,300.0,330.6,301.8
854.4,1522,13.6,12.0,90,10.37,84,7.9,300.0,330.6,301.8
853.9,1527,13.6,12.0,90,10.39,84,7.8,300.0,330.7,301.8
853.5,1531,13.5,12.0,91,10.40,84,7.8,299.9,330.7,301.8
853.0,1536,13.5,12.0,91,10.38,84,7.7,300.0,330.6,301.8
852.6,1540,13.5,12.0,90,10.36,84,7.7,300.0,330.6,301.9
852.1,1544,13.5,11.9,90,10.36,84,7.6,300.1,330.7,302.0
851.7,1549,13.5,11.9,90,10.34,84,7.6,300.1,330.7,302.0
851.2,1553,13.5,11.9,90,10.32,84,7.6,300.2,330.7,302.0
850.8,1558,13.5,11.8,90,10.29,84,7.5,300.2,330.6,302.0
850.3,1562,13.5,11.8,90,10.28,84,7.5,300.2,330.6,302.1
850.0,1566,13.4,11.8,90,10.29,84,7.5,300.2,330.7,302.1
849.9,1567,13.4,11.8,90,10.29,84,7.5,300.2,330.7,302.1
849.4,1571,13.4,11.8,90,10.30,85,7.5,300.2,330.7,302.1
849.0,1576,13.3,11.8,91,10.30,85,7.4,300.2,330.6,302.0
848.5,1580,13.3,11.8,91,10.29,85,7.4,300.2,330.6,302.1
848.1,1585,13.3,11.7,91,10.27,85,7.4,300.2,330.6,302.1
847.6,1589,13.3,11.7,90,10.26,85,7.4,300.3,330.6,302.1
847.2,1594,13.2,11.7,91,10.27,85,7.4,300.3,330.6,302.1
846.8,1598,13.2,11.7,91,10.27,85,7.4,300.3,330.7,302.1
846.3,1602,13.2,11.7,91,10.26,85,7.4,300.3,330.7,302.1
845.9,1606,13.1,11.7,91,10.25,85,7.4,300.3,330.6,302.2
845.5,1611,13.1,11.6,91,10.23,85,7.4,300.3,330.6,302.2
845.1,1615,13.1,11.6,91,10.23,85,7.4,300.3,330.6,302.2
844.6,1619,13.1,11.7,91,10.26,85,7.4,300.4,330.7,302.2
844.2,1624,13.0,11.7,92,10.30,85,7.4,300.4,330.9,302.2
843.7,1628,13.0,11.8,92,10.35,84,7.4,300.4,331.0,302.2
843.2,1633,12.9,11.8,93,10.37,84,7.4,300.4,331.1,302.2
842.7,1638,12.9,11.8,93,10.36,83,7.4,300.4,331.0,302.2
842.2,1643,12.8,11.7,93,10.34,83,7.4,300.4,330.9,302.2
841.7,1648,12.8,11.7,93,10.29,82,7.4,300.4,330.8,302.2
841.2,1653,12.7,11.6,93,10.28,81,7.4,300.4,330.8,302.2
840.8,1658,12.7,11.6,93,10.29,81,7.3,300.4,330.8,302.2
840.3,1662,12.7,11.7,93,10.30,80,7.3,300.4,330.9,302.3
839.8,1667,12.7,11.6,94,10.30,79,7.3,300.4,330.9,302.3
839.4,1672,12.6,11.6,93,10.27,79,7.3,300.4,330.9,302.3
838.9,1676,12.6,11.6,93,10.25,78,7.3,300.5,330.8,302.3
838.5,1681,12.6,11.5,93,10.22,77,7.3,300.5,330.8,302.3
838.1,1685,12.6,11.4,93,10.17,76,7.3,300.5,330.7,302.3
837.7,1689,12.6,11.3,92,10.11,75,7.3,300.5,330.5,302.4
837.3,1693,12.6,11.2,91,10.03,75,7.3,300.6,330.3,302.4
836.9,1697,12.5,11.1,91,9.98,74,7.3,300.6,330.2,302.4
836.5,1701,12.5,11.1,91,9.98,73,7.3,300.6,330.2,302.4
836.1,1705,12.5,11.1,91,10.01,72,7.3,300.6,330.3,302.5
835.7,1709,12.5,11.2,92,10.04,72,7.3,300.6,330.4,302.5
835.3,1713,12.4,11.2,92,10.06,71,7.3,300.6,330.5,302.5
834.9,1717,12.4,11.2,92,10.06,71,7.3,300.7,330.5,302.5
834.4,1721,12.4,11.2,93,10.07,70,7.3,300.7,330.5,302.5
834.0,1726,12.3,11.2,93,10.07,70,7.3,300.7,330.5,302.5
833.5,1730,12.3,11.2,93,10.07,69,7.3,300.7,330.6,302.5
833.1,1735,12.3,11.2,93,10.06,69,7.3,300.7,330.5,302.5
832.6,1740,12.2,11.1,93,10.04,68,7.3,300.7,330.5,302.5
