PRES,HGHT,TEMP,DWPT,RELH,MIXR,DRCT,SPED,THTA,THTE,THTV
1016.4,31,25.9,21.4,76,15.95,74,4.0,297.7,344.1,300.5
1016.0,34,25.6,22.0,80,16.57,73,3.5,297.4,345.6,300.3
1015.5,38,25.1,21.7,82,16.31,72,3.5,296.9,344.2,299.8
1014.8,44,24.7,21.6,83,16.17,72,3.7,296.6,343.4,299.4
1014.1,51,24.5,21.4,83,16.03,71,3.9,296.4,342.8,299.3
1013.4,57,24.5,21.3,83,15.94,71,4.1,296.5,342.6,299.3
1012.6,63,24.5,21.2,82,15.83,71,4.3,296.6,342.4,299.4
1012.1,68,24.5,21.0,81,15.70,70,4.4,296.6,342.1,299.4
1011.4,74,24.5,20.9,81,15.59,70,4.6,296.6,341.8,299.4
1010.8,79,24.4,20.8,80,15.45,69,4.7,296.6,341.3,299.3
1010.2,85,24.2,20.6,80,15.31,69,4.8,296.5,340.8,299.2
1009.6,90,24.0,20.5,81,15.20,69,4.9,296.4,340.4,299.1
1008.9,95,23.9,20.5,81,15.19,68,5.0,296.3,340.3,299.0
1008.3,101,23.8,20.4,81,15.16,68,5.1,296.3,340.1,299.0
1007.7,106,23.7,20.4,82,15.11,68,5.2,296.2,339.9,298.9
1007.0,112,23.6,20.4,82,15.12,67,5.2,296.2,339.9,298.9
1006.4,117,23.6,20.4,82,15.13,67,5.3,296.2,339.9,298.9
1005.8,122,23.5,20.3,82,15.11,67,5.3,296.2,339.8,298.8
1005.2,128,23.5,20.3,83,15.10,66,5.3,296.2,339.8,298.8
1004.7,132,23.4,20.3,83,15.09,66,5.3,296.2,339.8,298.8
1004.1,137,23.4,20.3,83,15.08,66,5.3,296.2,339.8,298.8
1003.6,142,23.3,20.2,83,15.03,65,5.3,296.2,339.6,298.8
1003.1,146,23.3,20.2,83,15.02,65,5.3,296.2,339.6,298.8
1002.5,151,23.2,20.2,83,15.06,65,5.3,296.2,339.7,298.8
1002.0,156,23.2,20.3,84,15.12,65,5.3,296.2,339.9,298.9
1001.4,161,23.1,20.3,84,15.19,65,5.3,296.2,340.1,298.9
1000.9,166,23.1,20.4,85,15.22,64,5.3,296.2,340.2,298.9
1000.3,170,23.0,20.4,85,15.21,64,5.3,296.1,340.1,298.8
1000.0,173,23.0,20.3,85,15.20,64,5.3,296.1,340.1,298.8
999.8,175,23.0,20.3,85,15.18,64,5.2,296.1,340.0,298.8
999.2,180,22.9,20.3,85,15.17,64,5.2,296.1,340.0,298.8
998.7,185,22.9,20.2,85,15.13,64,5.2,296.1,339.9,298.8
998.1,190,22.8,20.2,85,15.11,65,5.2,296.2,339.8,298.8
997.6,194,22.8,20.2,85,15.13,65,5.2,296.2,339.9,298.8
997.1,199,22.8,20.3,86,15.18,65,5.1,296.2,340.0,298.8
996.6,203,22.7,20.3,86,15.19,65,5.1,296.2,340.1,298.9
996.0,208,22.7,20.3,86,15.20,65,5.1,296.2,340.1,298.9
995.5,213,22.6,20.3,87,15.21,65,5.1,296.1,340.1,298.8
994.9,218,22.6,20.3,87,15.20,66,5.1,296.1,340.1,298.8
994.3,223,22.5,20.2,87,15.20,66,5.1,296.1,340.1,298.8
993.7,228,22.5,20.2,87,15.19,67,5.1,296.2,340.1,298.8
993.2,233,22.4,20.2,87,15.14,67,5.0,296.2,339.9,298.8
992.6,238,22.4,20.1,87,15.11,68,5.0,296.2,339.9,298.8
992.1,243,22.4,20.1,87,15.12,68,5.0,296.2,339.9,298.9
991.5,248,22.3,20.2,88,15.18,69,5.0,296.2,340.1,298.9
991.0,253,22.3,20.2,88,15.20,69,5.0,296.2,340.1,298.9
990.4,257,22.2,20.2,88,15.18,70,5.0,296.2,340.1,298.9
989.9,262,22.2,20.1,88,15.16,70,5.0,296.2,340.0,298.8
989.4,267,22.1,20.1,88,15.13,71,5.0,296.2,339.9,298.8
988.8,271,22.1,20.0,88,15.09,71,5.0,296.2,339.8,298.8
988.3,276,22.0,20.0,88,15.07,72,5.0,296.2,339.8,298.9
987.8,280,22.0,20.0,89,15.09,72,5.0,296.2,339.8,298.9
987.3,285,22.0,20.0,89,15.11,73,5.0,296.2,339.9,298.9
986.8,289,21.9,20.0,89,15.11,73,5.0,296.2,339.9,298.9
986.3,294,21.9,20.0,89,15.10,74,5.0,296.2,339.9,298.9
985.8,298,21.8,20.0,89,15.10,74,5.0,296.2,339.9,298.9
985.3,303,21.8,20.0,89,15.10,75,5.0,296.2,339.9,298.9
984.8,307,21.8,20.0,90,15.10,75,5.0,296.2,339.9,298.9
984.3,311,21.7,20.0,90,15.08,75,5.0,296.2,339.8,298.9
983.8,316,21.7,19.9,90,15.07,76,5.0,296.2,339.8,298.9
983.3,320,21.7,19.9,90,15.04,76,5.1,296.2,339.7,298.9
982.8,324,21.6,19.8,90,14.99,76,5.1,296.2,339.6,298.9
982.4,329,21.6,19.8,89,14.95,76,5.1,296.2,339.5,298.9
981.9,333,21.6,19.7,89,14.92,76,5.1,296.2,339.4,298.9
981.4,337,21.5,19.8,90,14.93,77,5.1,296.2,339.4,298.9
980.9,341,21.5,19.8,90,15.00,77,5.1,296.2,339.6,298.9
980.4,346,21.4,19.9,91,15.08,77,5.1,296.2,339.8,298.9
980.0,350,21.4,20.0,92,15.15,77,5.0,296.2,340.0,298.9
979.5,354,21.3,19.9,92,15.12,77,5.0,296.2,339.9,298.9
979.0,359,21.3,19.8,91,15.02,77,5.0,296.2,339.6,298.9
978.5,363,21.3,19.7,91,14.95,77,5.0,296.2,339.5,298.9
978.0,368,21.2,19.7,91,14.93,77,5.0,296.2,339.4,298.9
977.4,372,21.2,19.7,91,14.93,77,5.0,296.2,339.4,298.9
976.9,377,21.1,19.6,91,14.90,77,5.0,296.3,339.3,298.9
976.3,382,21.1,19.6,91,14.85,77,5.0,296.3,339.2,298.9
975.8,387,21.0,19.5,91,14.81,77,5.0,296.3,339.1,298.9
975.3,391,21.0,19.5,91,14.79,77,5.0,296.3,339.1,298.9
974.8,396,21.0,19.5,91,14.83,77,5.0,296.3,339.2,298.9
974.3,400,20.9,19.6,92,14.88,77,5.0,296.3,339.3,298.9
973.7,405,20.9,19.6,92,14.89,77,5.0,296.3,339.3,298.9
973.2,410,20.8,19.5,92,14.84,77,5.0,296.3,339.2,298.9
972.7,415,20.8,19.4,92,14.77,77,5.1,296.3,339.0,298.9
972.1,420,20.7,19.4,92,14.72,77,5.1,296.3,338.9,298.9
971.5,425,20.7,19.3,92,14.67,77,5.1,296.3,338.7,298.9
970.9,430,20.7,19.3,92,14.63,77,5.1,296.3,338.6,298.9
970.4,435,20.6,19.2,92,14.61,77,5.1,296.3,338.6,298.9
969.8,440,20.6,19.2,92,14.62,77,5.2,296.3,338.6,298.9
969.2,445,20.5,19.2,92,14.62,77,5.2,296.3,338.6,298.9
968.7,450,20.5,19.1,92,14.56,77,5.2,296.3,338.4,298.9
968.2,455,20.5,19.1,92,14.48,77,5.3,296.3,338.2,298.9
967.7,459,20.4,19.0,92,14.44,77,5.3,296.3,338.1,298.9
967.2,464,20.4,19.0,92,14.44,77,5.3,296.3,338.1,298.9
966.7,468,20.4,19.0,92,14.45,78,5.4,296.4,338.2,298.9
966.2,472,20.3,19.0,92,14.44,78,5.4,296.4,338.1,298.9
965.7,477,20.3,19.0,92,14.43,78,5.5,296.4,338.1,298.9
965.3,481,20.2,19.0,92,14.43,78,5.5,296.3,338.1,298.9
964.8,485,20.2,19.0,93,14.45,78,5.5,296.3,338.2,298.9
964.3,490,20.1,19.0,93,14.48,79,5.6,296.3,338.2,298.9
963.8,494,20.1,19.0,93,14.47,79,5.6,296.3,338.2,298.9
963.4,498,20.0,18.9,93,14.44,79,5.6,296.3,338.1,298.9
962.9,503,20.0,18.9,93,14.42,79,5.6,296.3,338.1,298.9
962.3,507,20.0,18.9,93,14.41,79,5.7,296.4,338.1,298.9
961.8,512,19.9,18.9,94,14.41,79,5.7,296.4,338.1,298.9
961.3,517,19.9,18.9,94,14.42,79,5.7,296.4,338.1,298.9
960.7,522,19.8,18.8,94,14.40,79,5.7,296.4,338.0,298.9
960.1,527,19.8,18.8,94,14.34,79,5.7,296.4,337.9,298.9
959.6,532,19.7,18.7,94,14.27,79,5.8,296.4,337.7,298.9
959.0,537,19.7,18.6,93,14.23,79,5.8,296.4,337.6,298.9
958.4,543,19.7,18.6,94,14.25,79,5.8,296.4,337.6,298.9
957.9,548,19.6,18.7,95,14.33,79,5.8,296.4,337.9,298.9
957.3,553,19.5,18.8,95,14.41,79,5.8,296.4,338.1,298.9
956.7,558,19.5,18.8,96,14.43,79,5.8,296.3,338.1,298.9
956.2,563,19.4,18.8,96,14.43,78,5.8,296.3,338.1,298.9
955.6,568,19.4,18.8,97,14.44,78,5.8,296.3,338.1,298.9
955.1,573,19.3,18.8,97,14.46,78,5.8,296.3,338.2,298.9
954.5,578,19.3,18.8,97,14.49,78,5.8,296.3,338.3,298.9
953.9,583,19.2,18.8,97,14.48,78,5.9,296.3,338.2,298.9
953.3,589,19.2,18.7,97,14.41,77,5.9,296.4,338.1,298.9
952.7,594,19.2,18.7,97,14.35,77,5.9,296.4,337.9,298.9
952.2,599,19.1,18.6,97,14.31,77,5.9,296.4,337.8,298.9
951.6,605,19.1,18.6,97,14.31,76,5.9,296.4,337.8,298.9
951.0,610,19.0,18.6,97,14.29,76,5.9,296.4,337.8,298.9
950.4,615,19.0,18.5,97,14.24,76,5.9,296.4,337.6,298.9
949.9,620,19.0,18.4,97,14.15,76,6.0,296.4,337.4,298.9
949.3,625,18.9,18.3,96,14.10,76,6.0,296.4,337.3,298.9
948.8,630,18.9,18.3,96,14.08,76,6.0,296.5,337.2,299.0
948.3,635,18.9,18.3,96,14.07,76,6.0,296.5,337.2,299.0
947.7,639,18.8,18.2,96,14.01,76,6.0,296.5,337.1,299.0
947.2,644,18.8,18.1,96,13.95,76,6.0,296.5,337.0,299.0
946.7,649,18.8,18.1,95,13.91,76,6.0,296.6,336.9,299.0
946.2,653,18.8,18.0,95,13.87,77,6.1,296.6,336.8,299.1
945.7,658,18.8,18.0,95,13.85,77,6.1,296.6,336.8,299.1
945.2,662,18.7,18.0,95,13.86,77,6.1,296.6,336.8,299.1
944.7,667,18.7,18.0,96,13.86,78,6.1,296.6,336.8,299.1
944.2,671,18.7,17.9,95,13.82,78,6.1,296.6,336.7,299.1
943.7,676,18.6,17.8,95,13.71,78,6.1,296.7,336.4,299.1
943.3,680,18.6,17.6,94,13.57,79,6.1,296.7,336.0,299.1
942.8,685,18.6,17.5,93,13.50,79,6.1,296.7,335.9,299.1
942.3,689,18.6,17.5,93,13.49,80,6.1,296.8,335.9,299.2
941.8,694,18.6,17.6,94,13.53,80,6.1,296.8,336.0,299.2
941.3,698,18.5,17.5,94,13.53,81,6.1,296.8,336.0,299.2
940.8,702,18.5,17.4,93,13.39,81,6.1,296.8,335.7,299.2
940.3,707,18.6,17.1,91,13.20,82,6.1,296.9,335.2,299.2
939.8,711,18.6,17.0,90,13.09,82,6.1,297.0,335.0,299.3
939.3,716,18.6,16.9,90,13.04,83,6.1,297.0,334.9,299.4
938.9,720,18.6,16.8,89,12.94,83,6.1,297.1,334.7,299.4
938.4,725,18.6,16.6,88,12.79,84,6.1,297.1,334.3,299.4
937.9,729,18.6,16.4,87,12.57,84,6.1,297.2,333.7,299.4
937.4,734,18.7,16.1,85,12.39,85,6.1,297.3,333.3,299.5
936.9,738,18.7,16.1,85,12.35,85,6.1,297.4,333.3,299.6
936.4,743,18.7,16.1,85,12.39,86,6.1,297.4,333.5,299.6
935.9,747,18.7,16.1,85,12.40,86,6.2,297.4,333.6,299.6
935.5,752,18.7,16.1,85,12.37,86,6.2,297.4,333.5,299.7
935.0,756,18.7,16.0,85,12.34,87,6.2,297.5,333.4,299.7
934.5,761,18.6,16.0,85,12.32,87,6.2,297.5,333.4,299.7
934.0,765,18.6,16.0,85,12.32,87,6.2,297.5,333.4,299.7
933.5,770,18.6,16.1,85,12.39,87,6.2,297.5,333.6,299.7
933.0,774,18.5,16.3,87,12.61,88,6.3,297.5,334.2,299.7
932.5,779,18.3,16.8,91,12.99,88,6.3,297.4,335.2,299.7
932.0,784,18.2,17.1,93,13.25,88,6.3,297.3,335.8,299.6
931.5,788,18.1,17.0,94,13.22,88,6.3,297.2,335.6,299.5
931.0,793,18.0,16.7,92,12.91,88,6.3,297.2,334.8,299.5
930.4,798,18.1,16.2,89,12.58,88,6.4,297.3,333.9,299.6
929.9,803,18.1,16.2,89,12.57,88,6.4,297.4,334.0,299.6
929.4,808,18.1,16.5,90,12.79,88,6.4,297.4,334.7,299.7
928.8,813,18.1,16.5,90,12.81,88,6.4,297.4,334.7,299.7
928.3,818,18.1,16.1,89,12.53,88,6.4,297.5,334.0,299.7
927.7,823,18.2,15.6,85,12.11,88,6.4,297.6,333.0,299.8
927.2,828,18.3,15.4,83,11.93,87,6.4,297.8,332.7,299.9
926.7,832,18.3,15.4,83,11.98,87,6.4,297.9,332.9,300.0
926.2,837,18.3,15.5,84,12.05,87,6.4,297.9,333.1,300.1
925.7,842,18.3,15.5,84,12.08,87,6.4,297.9,333.2,300.1
925.2,847,18.2,15.5,84,12.08,87,6.4,297.9,333.2,300.1
925.0,848,18.2,15.5,84,12.08,86,6.4,297.9,333.2,300.1
924.6,852,18.2,15.5,84,12.06,86,6.4,297.9,333.2,300.1
924.1,857,18.2,15.5,84,12.03,86,6.4,298.0,333.1,300.1
923.5,862,18.2,15.4,84,12.02,86,6.4,298.0,333.2,300.2
923.0,867,18.2,15.4,84,12.01,85,6.4,298.1,333.2,300.2
922.5,872,18.2,15.3,84,11.97,85,6.4,298.1,333.1,300.2
921.9,877,18.2,15.2,83,11.90,85,6.4,298.1,332.9,300.3
921.4,882,18.2,15.1,82,11.80,84,6.4,298.2,332.7,300.3
920.8,887,18.2,14.9,81,11.67,84,6.4,298.3,332.5,300.4
920.3,892,18.2,14.8,80,11.54,84,6.3,298.4,332.2,300.5
919.7,897,18.3,14.5,79,11.35,84,6.3,298.5,331.8,300.5
919.2,903,18.3,14.2,77,11.13,83,6.3,298.6,331.2,300.6
918.6,908,18.4,14.0,76,10.99,83,6.2,298.7,330.9,300.6
918.0,914,18.4,13.9,75,10.93,83,6.2,298.7,330.9,300.7
917.4,919,18.3,13.9,75,10.91,83,6.2,298.8,330.8,300.7
916.8,925,18.3,13.8,75,10.88,83,6.1,298.8,330.7,300.7
916.3,930,18.3,13.7,75,10.83,82,6.1,298.8,330.6,300.7
915.7,935,18.3,13.7,75,10.81,82,6.0,298.8,330.6,300.8
915.2,940,18.2,13.7,75,10.80,82,6.0,298.8,330.6,300.8
914.7,945,18.2,13.7,75,10.80,82,5.9,298.8,330.6,300.8
914.1,950,18.2,13.6,75,10.79,82,5.9,298.9,330.6,300.8
913.6,954,18.1,13.6,75,10.76,82,5.8,298.9,330.5,300.8
913.1,959,18.1,13.5,75,10.74,82,5.8,298.9,330.5,300.8
912.6,964,18.0,13.5,75,10.74,82,5.7,298.9,330.5,300.8
912.1,969,18.0,13.5,75,10.75,82,5.6,298.9,330.5,300.8
911.6,974,18.0,13.6,75,10.77,82,5.6,298.9,330.6,300.8
911.0,979,17.9,13.6,76,10.78,82,5.5,298.9,330.6,300.8
910.5,984,17.9,13.6,76,10.78,81,5.4,298.9,330.6,300.8
909.9,990,17.8,13.5,76,10.76,81,5.4,298.9,330.5,300.8
909.3,995,17.7,13.5,76,10.72,81,5.3,298.9,330.4,300.8
908.7,1001,17.7,13.4,76,10.67,81,5.3,298.9,330.3,300.8
908.1,1007,17.7,13.3,76,10.65,81,5.2,298.9,330.3,300.8
907.5,1012,17.6,13.4,76,10.67,80,5.1,298.9,330.3,300.8
906.9,1018,17.5,13.4,76,10.69,80,5.1,298.9,330.4,300.8
906.3,1024,17.5,13.3,77,10.67,79,5.0,298.9,330.3,300.8
905.7,1030,17.4,13.2,76,10.61,79,5.0,298.9,330.1,300.8
905.1,1035,17.4,13.1,76,10.55,78,4.9,299.0,330.0,300.9
904.5,1041,17.4,13.1,76,10.50,78,4.9,299.0,329.9,300.9
903.9,1046,17.4,13.0,76,10.49,77,4.8,299.0,329.9,300.9
903.4,1051,17.4,13.0,76,10.51,76,4.8,299.1,330.0,300.9
902.8,1056,17.3,13.1,76,10.53,75,4.8,299.1,330.1,301.0
902.3,1061,17.3,13.1,76,10.54,74,4.7,299.1,330.1,301.0
901.8,1066,17.2,13.0,76,10.52,74,4.7,299.1,330.0,301.0
901.3,1071,17.2,13.0,77,10.52,73,4.7,299.1,330.0,301.0
900.8,1076,17.1,13.0,77,10.51,71,4.7,299.1,330.0,301.0
900.2,1081,17.1,13.0,77,10.48,70,4.6,299.1,329.9,301.0
899.7,1086,17.1,12.9,77,10.46,69,4.6,299.1,329.9,301.0
899.2,1091,17.0,12.9,77,10.44,68,4.6,299.1,329.9,301.0
898.7,1095,17.0,12.9,77,10.44,67,4.5,299.1,329.9,301.0
898.2,1100,17.0,12.8,77,10.43,65,4.5,299.1,329.8,301.0
897.7,1105,16.9,12.8,77,10.41,64,4.5,299.1,329.8,301.0
897.1,1110,16.9,12.8,77,10.39,62,4.5,299.2,329.8,301.0
896.6,1116,16.8,12.7,77,10.38,61,4.4,299.2,329.7,301.0
896.0,1121,16.8,12.7,77,10.36,59,4.4,299.2,329.7,301.0
895.4,1127,16.7,12.7,77,10.33,58,4.4,299.2,329.6,301.0
894.9,1132,16.7,12.6,77,10.29,56,4.3,299.2,329.5,301.0
894.3,1138,16.6,12.5,77,10.25,55,4.3,299.2,329.4,301.0
893.7,1143,16.6,12.5,77,10.21,53,4.2,299.2,329.3,301.0
893.2,1148,16.5,12.4,76,10.18,51,4.2,299.2,329.2,301.0
892.6,1153,16.5,12.3,76,10.10,50,4.2,299.2,329.0,301.0
892.1,1158,16.5,11.9,74,9.87,48,4.1,299.2,328.4,301.0
891.6,1163,16.5,11.3,72,9.50,46,4.1,299.3,327.4,301.0
891.1,1168,16.5,10.8,69,9.16,45,4.1,299.4,326.5,301.0
890.6,1173,16.5,10.5,68,9.01,43,4.1,299.4,326.1,301.0
890.1,1178,16.5,10.6,68,9.03,42,4.0,299.4,326.2,301.1
889.6,1182,16.5,10.6,68,9.08,40,4.0,299.5,326.3,301.1
889.2,1187,16.4,10.5,68,9.01,39,4.0,299.5,326.1,301.1
888.7,1191,16.4,10.1,66,8.77,38,4.0,299.5,325.5,301.1
888.3,1195,16.4,9.6,64,8.50,37,4.0,299.5,324.8,301.1
887.8,1200,16.4,9.5,63,8.40,37,4.0,299.6,324.5,301.1
887.3,1204,16.4,9.5,64,8.43,36,4.0,299.6,324.6,301.1
886.9,1208,16.4,9.6,64,8.48,36,4.0,299.6,324.8,301.2
886.4,1213,16.3,9.7,65,8.57,36,4.0,299.6,325.1,301.2
886.0,1217,16.3,10.0,66,8.72,36,4.0,299.6,325.5,301.2
885.5,1221,16.3,10.2,67,8.87,36,4.1,299.6,325.9,301.2
885.1,1226,16.2,10.5,69,9.03,37,4.1,299.6,326.4,301.2
884.6,1230,16.1,10.7,70,9.16,37,4.1,299.6,326.7,301.3
884.2,1235,16.1,10.7,70,9.17,38,4.2,299.6,326.7,301.3
883.7,1239,16.1,10.5,70,9.08,39,4.2,299.6,326.5,301.3
883.2,1244,16.0,10.4,69,9.00,40,4.2,299.6,326.3,301.3
882.7,1249,16.0,10.4,69,8.99,41,4.3,299.6,326.3,301.3
882.1,1254,16.0,10.4,70,9.01,42,4.3,299.7,326.4,301.3
881.6,1260,15.9,10.4,70,9.02,44,4.4,299.6,326.4,301.3
881.0,1265,15.8,10.3,70,8.98,45,4.4,299.6,326.3,301.3
880.5,1270,15.8,10.3,70,8.95,46,4.4,299.6,326.2,301.3
879.9,1276,15.8,10.1,69,8.87,47,4.5,299.7,326.0,301.3
879.4,1281,15.7,9.9,68,8.72,49,4.5,299.7,325.5,301.2
878.8,1286,15.7,9.5,67,8.53,50,4.5,299.7,325.0,301.3
878.3,1291,15.7,9.3,66,8.40,51,4.5,299.8,324.7,301.3
877.8,1296,15.7,9.3,66,8.42,52,4.6,299.8,324.8,301.3
877.2,1302,15.7,9.6,67,8.56,53,4.6,299.9,325.3,301.4
876.7,1307,15.7,10.0,69,8.82,54,4.6,299.9,326.1,301.5
876.1,1312,15.7,10.5,71,9.15,54,4.5,300.0,327.1,301.6
875.6,1318,15.7,11.0,74,9.48,55,4.5,300.0,328.1,301.7
875.1,1323,15.6,11.4,76,9.75,56,4.5,300.0,328.9,301.8
874.5,1328,15.6,12.0,79,10.10,56,4.4,300.0,329.9,301.8
874.0,1333,15.5,12.6,83,10.58,57,4.4,300.0,331.3,301.9
873.5,1338,15.5,13.1,86,10.94,57,4.3,300.0,332.3,302.0
872.9,1344,15.4,13.4,88,11.13,58,4.2,300.0,332.8,302.0
872.3,1350,15.4,13.5,89,11.25,58,4.1,300.0,333.2,302.0
871.7,1356,15.3,13.7,90,11.35,59,4.0,300.0,333.5,302.1
871.0,1362,15.3,13.7,90,11.36,59,3.9,300.1,333.6,302.1
870.4,1368,15.3,13.6,89,11.31,60,3.8,300.1,333.5,302.2
869.7,1375,15.3,13.5,89,11.26,60,3.7,300.2,333.4,302.2
869.1,1381,15.3,13.4,88,11.21,60,3.6,300.3,333.4,302.3
868.4,1387,15.3,13.4,88,11.16,61,3.5,300.3,333.3,302.3
867.8,1393,15.3,13.3,88,11.15,61,3.4,300.4,333.3,302.4
867.2,1399,15.3,13.3,88,11.12,62,3.3,300.4,333.3,302.4
866.7,1405,15.2,13.1,87,10.99,63,3.2,300.4,332.9,302.4
866.1,1410,15.2,12.7,85,10.73,63,3.1,300.5,332.2,302.4
865.6,1415,15.2,12.3,83,10.44,64,3.0,300.5,331.4,302.4
865.1,1420,15.3,12.0,81,10.21,65,2.9,300.6,330.9,302.4
864.6,1425,15.3,11.8,80,10.08,67,2.8,300.7,330.5,302.5
864.1,1430,15.3,11.6,79,10.00,68,2.7,300.7,330.4,302.5
863.6,1434,15.3,11.5,78,9.92,69,2.6,300.8,330.2,302.6
863.2,1439,15.3,11.4,78,9.87,71,2.6,300.8,330.1,302.6
862.8,1443,15.3,11.4,78,9.88,72,2.5,300.9,330.2,302.6
862.3,1447,15.3,11.5,78,9.93,74,2.5,300.9,330.4,302.7
861.9,1451,15.3,11.6,78,9.98,76,2.4,301.0,330.6,302.8
861.5,1455,15.3,11.4,77,9.85,78,2.4,301.0,330.3,302.8
861.1,1460,15.4,10.7,73,9.42,80,2.4,301.2,329.2,302.9
860.7,1464,15.6,10.0,69,8.97,82,2.4,301.4,328.1,303.0
860.2,1468,15.7,9.7,67,8.79,83,2.4,301.6,327.9,303.2
859.8,1472,15.9,9.7,67,8.82,85,2.4,301.7,328.1,303.3
859.4,1477,15.9,9.7,67,8.85,87,2.3,301.8,328.3,303.5
858.9,1481,15.9,9.7,66,8.81,88,2.3,301.9,328.3,303.5
858.4,1486,16.0,9.5,65,8.70,90,2.3,302.0,328.1,303.6
858.0,1490,16.0,9.3,64,8.58,91,2.3,302.1,327.8,303.6
857.5,1495,16.1,9.1,64,8.52,92,2.4,302.2,327.7,303.7
857.0,1500,16.1,9.1,63,8.50,93,2.4,302.3,327.8,303.8
856.5,1505,16.1,9.1,63,8.51,94,2.4,302.4,327.9,303.9
856.0,1510,16.1,9.2,63,8.55,95,2.4,302.4,328.1,304.0
855.4,1516,16.1,9.2,64,8.58,96,2.4,302.4,328.2,304.0
854.9,1521,16.1,9.2,64,8.60,97,2.4,302.5,328.3,304.0
854.3,1527,16.1,9.2,64,8.59,97,2.4,302.5,328.3,304.1
853.8,1532,16.0,9.2,64,8.57,98,2.4,302.5,328.3,304.1
853.2,1537,16.0,9.1,64,8.55,98,2.3,302.6,328.3,304.1
852.7,1543,16.0,9.1,64,8.56,98,2.3,302.6,328.3,304.2
852.1,1549,16.0,9.2,64,8.58,99,2.3,302.6,328.4,304.2
851.6,1554,15.9,9.2,64,8.59,99,2.3,302.6,328.5,304.2
851.0,1560,15.9,9.2,65,8.63,99,2.3,302.7,328.6,304.2
850.5,1565,15.8,9.3,65,8.65,99,2.3,302.7,328.7,304.3
850.0,1570,15.8,9.3,65,8.66,99,2.3,302.7,328.7,304.3
849.9,1570,15.8,9.3,65,8.66,99,2.3,302.7,328.7,304.3
849.4,1576,15.8,9.3,65,8.70,99,2.3,302.7,328.9,304.3
848.9,1581,15.7,9.4,66,8.75,99,2.3,302.7,329.0,304.3
848.4,1586,15.7,9.4,66,8.76,99,2.3,302.7,329.1,304.3
847.8,1591,15.6,9.4,66,8.76,99,2.3,302.7,329.1,304.3
847.3,1597,15.6,9.4,67,8.76,99,2.3,302.7,329.1,304.3
846.7,1602,15.5,9.4,67,8.76,98,2.3,302.7,329.1,304.3
846.2,1608,15.5,9.4,67,8.76,98,2.3,302.7,329.1,304.3
845.7,1613,15.4,9.3,67,8.75,98,2.3,302.7,329.0,304.3
845.1,1618,15.4,9.3,67,8.74,98,2.3,302.8,329.0,304.4
844.6,1624,15.4,9.3,67,8.74,98,2.4,302.8,329.0,304.4
844.1,1629,15.3,9.3,67,8.76,98,2.4,302.8,329.1,304.4
843.6,1633,15.3,9.4,68,8.81,98,2.4,302.8,329.3,304.4
843.1,1638,15.3,9.5,68,8.86,98,2.4,302.8,329.4,304.4
842.6,1644,15.2,9.6,69,8.93,98,2.5,302.8,329.7,304.5
842.1,1649,15.2,9.7,70,9.02,98,2.5,302.8,329.9,304.5
841.6,1654,15.1,9.9,71,9.11,98,2.5,302.8,330.2,304.5
841.0,1660,15.1,10.0,72,9.20,97,2.6,302.8,330.5,304.5
840.5,1666,15.0,10.1,72,9.27,97,2.6,302.8,330.7,304.5
839.9,1671,15.0,10.0,72,9.23,97,2.7,302.9,330.6,304.5
839.3,1677,14.9,9.8,71,9.12,97,2.7,302.9,330.3,304.5
838.8,1682,14.9,9.7,71,9.02,97,2.8,302.9,330.0,304.5
838.3,1688,14.9,9.5,70,8.92,97,2.8,302.9,329.7,304.5
837.8,1693,14.8,9.3,70,8.83,97,2.8,302.9,329.5,304.5
837.3,1698,14.8,9.2,69,8.74,97,2.9,303.0,329.3,304.6
836.8,1702,14.8,9.1,68,8.69,97,2.9,303.0,329.1,304.6
836.4,1707,14.8,9.0,68,8.67,98,2.9,303.0,329.1,304.6
836.0,1711,14.8,9.0,68,8.67,98,3.0,303.0,329.1,304.6
835.5,1715,14.8,9.0,69,8.68,98,3.0,303.1,329.2,304.7
835.1,1720,14.7,8.9,68,8.63,98,3.0,303.1,329.1,304.7
834.7,1724,14.8,8.6,67,8.46,99,3.1,303.2,328.6,304.7
834.2,1728,14.8,8.2,65,8.19,99,3.1,303.2,328.0,304.7
833.8,1733,14.8,7.7,62,7.96,100,3.1,303.3,327.4,304.8
833.3,1738,14.9,7.4,61,7.79,100,3.1,303.4,327.0,304.8
832.9,1742,14.9,7.2,60,7.67,101,3.2,303.5,326.7,304.9
832.4,1747,14.9,7.1,60,7.62,102,3.2,303.5,326.6,304.9
831.9,1752,14.9,7.0,59,7.60,103,3.2,303.6,326.6,305.0
831.4,1757,14.9,7.0,59,7.59,104,3.2,303.6,326.6,305.0
831.0,1762,14.9,6.9,59,7.51,105,3.3,303.6,326.4,305.0
830.5,1767,14.8,6.6,58,7.40,106,3.3,303.7,326.1,305.0
830.0,1771,14.8,6.4,57,7.31,106,3.3,303.7,325.9,305.1
829.6,1776,14.8,6.4,57,7.26,107,3.4,303.8,325.8,305.1
829.1,1781,14.8,6.3,57,7.23,108,3.4,303.8,325.8,305.1
828.6,1786,14.8,6.2,56,7.19,109,3.4,303.8,325.7,305.2
828.1,1791,14.8,6.2,56,7.18,110,3.5,303.9,325.7,305.2
827.6,1796,14.7,6.2,57,7.21,111,3.5,303.9,325.8,305.2
827.1,1801,14.7,6.2,57,7.23,111,3.6,303.9,325.9,305.2
826.5,1807,14.7,6.3,57,7.25,112,3.6,303.9,326.0,305.3
826.0,1813,14.7,6.3,57,7.25,112,3.7,304.0,326.0,305.3
825.4,1818,14.6,6.2,57,7.21,112,3.7,304.0,325.9,305.3
824.9,1824,14.6,6.1,57,7.19,112,3.8,304.0,325.9,305.3
824.4,1829,14.6,6.2,57,7.21,112,3.8,304.0,325.9,305.3
823.9,1835,14.5,6.2,57,7.23,112,3.9,304.0,326.0,305.4
