PRES,HGHT,TEMP,DWPT,RELH,MIXR,DRCT,SPED,THTA,THTE,THTV
1015.4,31,25.9,20.5,72,15.11,70,6.9,297.7,341.8,300.4
1014.7,37,25.4,20.5,74,15.17,69,4.8,297.3,341.4,300.0
1014.3,40,25.2,20.3,75,14.98,69,4.3,297.1,340.6,299.8
1013.7,46,24.9,20.0,74,14.68,69,4.4,296.9,339.5,299.5
1012.9,52,24.7,19.7,74,14.41,70,4.7,296.7,338.5,299.3
1012.4,56,24.5,19.4,73,14.15,70,5.0,296.6,337.7,299.2
1011.8,61,24.5,19.2,72,13.93,70,5.3,296.6,337.0,299.1
1011.0,69,24.4,19.0,72,13.83,70,5.6,296.6,336.7,299.1
1010.4,74,24.3,19.0,72,13.81,71,5.8,296.6,336.6,299.1
1009.7,80,24.3,19.0,73,13.86,71,6.0,296.6,336.8,299.1
1009.1,85,24.2,19.1,73,13.94,71,6.2,296.6,337.0,299.1
1008.4,91,24.1,19.1,74,13.96,71,6.4,296.6,337.0,299.0
1007.8,96,24.1,19.1,74,13.90,71,6.6,296.5,336.8,299.0
1007.2,102,24.0,18.9,73,13.78,72,6.7,296.5,336.5,299.0
1006.6,107,24.0,18.8,73,13.70,72,6.8,296.6,336.3,299.0
1006.0,112,24.0,18.8,73,13.74,72,7.0,296.6,336.4,299.0
1005.4,118,23.9,19.0,74,13.85,72,7.0,296.6,336.7,299.0
1004.8,123,23.8,19.0,75,13.93,72,7.1,296.5,336.9,299.0
1004.2,128,23.7,19.0,75,13.94,72,7.2,296.5,336.9,299.0
1003.7,133,23.7,19.0,75,13.93,72,7.2,296.5,336.9,299.0
1003.1,137,23.6,19.0,75,13.94,72,7.3,296.5,336.9,299.0
1002.6,142,23.6,19.0,75,13.95,72,7.3,296.5,337.0,299.0
1002.1,147,23.6,19.1,76,13.98,72,7.3,296.5,337.1,299.0
1001.5,151,23.5,19.1,76,14.03,72,7.4,296.5,337.2,299.0
1001.0,156,23.5,19.1,77,14.06,72,7.4,296.5,337.3,299.0
1000.4,161,23.4,19.1,77,14.04,72,7.4,296.5,337.2,299.0
1000.0,165,23.4,19.0,77,14.00,72,7.4,296.5,337.1,299.0
999.8,166,23.4,19.0,77,13.99,72,7.4,296.5,337.1,299.0
999.2,171,23.3,19.0,76,13.93,72,7.3,296.5,336.9,299.0
998.6,176,23.3,19.0,77,13.98,72,7.3,296.6,337.1,299.0
998.1,182,23.2,19.1,78,14.07,72,7.3,296.5,337.3,299.0
997.5,187,23.2,19.1,78,14.05,72,7.3,296.5,337.3,299.0
996.9,192,23.1,18.9,77,13.95,72,7.3,296.5,337.0,299.0
996.4,196,23.1,18.8,77,13.84,72,7.3,296.6,336.7,299.0
995.8,201,23.1,18.7,77,13.79,72,7.3,296.6,336.6,299.0
995.3,206,23.1,18.7,77,13.78,72,7.3,296.6,336.6,299.1
994.8,210,23.0,18.7,77,13.81,72,7.3,296.6,336.6,299.1
994.3,215,23.0,18.8,78,13.89,72,7.2,296.6,336.9,299.1
993.7,220,22.9,18.9,78,13.95,72,7.2,296.6,337.0,299.1
993.2,225,22.8,18.9,78,13.97,72,7.2,296.6,337.1,299.1
992.6,230,22.8,18.9,79,13.98,72,7.2,296.6,337.1,299.1
992.0,235,22.7,18.9,79,13.99,73,7.2,296.6,337.1,299.1
991.4,240,22.7,18.9,79,13.98,73,7.2,296.6,337.1,299.1
990.8,246,22.6,18.8,79,13.95,73,7.1,296.6,337.0,299.0
990.2,251,22.6,18.8,79,13.91,73,7.1,296.6,336.9,299.0
989.6,256,22.5,18.8,79,13.93,73,7.1,296.6,336.9,299.0
989.0,261,22.5,18.8,80,13.94,73,7.0,296.6,336.9,299.0
988.4,266,22.4,18.7,80,13.90,74,7.0,296.6,336.9,299.0
987.9,271,22.4,18.7,79,13.84,74,7.0,296.6,336.7,299.0
987.3,276,22.4,18.7,80,13.84,74,6.9,296.6,336.7,299.0
986.8,281,22.3,18.7,80,13.89,75,6.9,296.6,336.8,299.0
986.2,286,22.2,18.8,81,13.95,75,6.9,296.6,337.0,299.0
985.6,291,22.2,18.8,81,14.00,75,6.8,296.5,337.1,299.0
985.0,296,22.1,18.9,82,14.05,75,6.8,296.5,337.2,299.0
984.5,301,22.1,18.9,82,14.06,76,6.8,296.5,337.3,299.0
983.9,306,22.0,18.9,82,14.06,76,6.7,296.5,337.3,299.0
983.3,311,22.0,18.9,83,14.08,76,6.7,296.5,337.3,299.0
982.8,317,21.9,18.9,83,14.08,77,6.7,296.5,337.3,299.0
982.2,322,21.9,18.8,83,14.07,77,6.7,296.5,337.3,299.0
981.6,327,21.8,18.8,83,14.05,77,6.7,296.5,337.2,299.0
981.0,332,21.7,18.8,83,14.02,77,6.6,296.5,337.1,299.0
980.4,338,21.7,18.7,83,13.99,77,6.6,296.5,337.0,299.0
979.8,343,21.7,18.7,83,13.97,77,6.7,296.5,337.0,299.0
979.2,348,21.6,18.7,84,14.00,77,6.7,296.5,337.1,299.0
978.6,354,21.6,18.7,84,14.00,77,6.7,296.5,337.1,299.0
978.0,359,21.5,18.6,84,13.94,77,6.7,296.6,337.0,299.0
977.3,365,21.5,18.5,83,13.86,77,6.7,296.6,336.8,299.0
976.7,370,21.5,18.4,83,13.76,76,6.8,296.6,336.5,299.0
976.1,376,21.4,18.2,82,13.63,76,6.8,296.6,336.1,299.0
975.5,381,21.4,18.1,81,13.50,76,6.8,296.6,335.8,299.0
974.9,387,21.3,18.0,81,13.41,75,6.9,296.6,335.5,299.0
974.3,392,21.3,18.0,81,13.41,75,6.9,296.6,335.5,299.0
973.7,397,21.3,18.0,82,13.49,74,7.0,296.7,335.8,299.0
973.1,402,21.2,18.2,83,13.62,74,7.1,296.6,336.1,299.1
972.5,407,21.1,18.3,84,13.71,73,7.1,296.6,336.4,299.1
972.0,413,21.1,18.2,84,13.67,73,7.2,296.6,336.3,299.1
971.4,418,21.1,18.0,83,13.52,72,7.2,296.7,335.9,299.1
970.8,423,21.0,17.9,82,13.42,72,7.3,296.7,335.6,299.1
970.3,428,21.0,17.9,82,13.40,72,7.3,296.7,335.5,299.0
969.7,433,20.9,17.9,83,13.40,71,7.4,296.7,335.5,299.1
969.1,438,20.9,17.9,83,13.40,71,7.4,296.7,335.6,299.1
968.6,443,20.9,17.9,83,13.40,70,7.4,296.7,335.6,299.1
968.0,448,20.8,17.9,83,13.43,70,7.5,296.7,335.7,299.1
967.4,454,20.7,17.9,84,13.44,70,7.5,296.7,335.7,299.1
966.8,459,20.7,17.8,84,13.41,70,7.5,296.7,335.6,299.1
966.1,465,20.6,17.8,84,13.39,70,7.5,296.7,335.5,299.1
965.5,470,20.6,17.8,84,13.38,70,7.6,296.7,335.5,299.0
964.9,476,20.5,17.8,84,13.37,70,7.6,296.7,335.4,299.0
964.3,481,20.5,17.7,84,13.37,70,7.6,296.7,335.4,299.0
963.7,486,20.4,17.8,85,13.39,70,7.6,296.7,335.5,299.1
963.2,491,20.4,17.8,85,13.44,70,7.6,296.7,335.6,299.1
962.6,496,20.3,17.8,86,13.46,70,7.6,296.7,335.7,299.1
962.1,501,20.3,17.8,86,13.47,70,7.6,296.7,335.7,299.1
961.5,506,20.2,17.8,86,13.46,71,7.5,296.7,335.7,299.1
960.9,511,20.2,17.7,86,13.42,71,7.5,296.7,335.6,299.1
960.4,516,20.1,17.7,86,13.39,71,7.5,296.7,335.5,299.1
959.8,522,20.1,17.7,86,13.40,72,7.5,296.7,335.6,299.1
959.3,526,20.0,17.7,87,13.42,72,7.5,296.7,335.6,299.1
958.7,531,20.0,17.7,87,13.44,72,7.5,296.7,335.7,299.1
958.2,536,19.9,17.7,87,13.45,72,7.5,296.7,335.7,299.1
957.7,541,19.9,17.7,87,13.43,73,7.5,296.7,335.6,299.1
957.2,545,19.9,17.7,87,13.40,73,7.5,296.7,335.6,299.1
956.7,550,19.8,17.7,87,13.42,73,7.5,296.7,335.6,299.1
956.2,554,19.8,17.7,88,13.46,73,7.5,296.7,335.7,299.1
955.7,559,19.7,17.8,88,13.50,73,7.5,296.7,335.8,299.1
955.1,564,19.7,17.8,89,13.53,73,7.5,296.7,335.9,299.1
954.6,569,19.6,17.7,89,13.51,73,7.5,296.7,335.8,299.1
954.1,574,19.6,17.7,89,13.45,74,7.5,296.7,335.7,299.1
953.5,579,19.5,17.6,89,13.42,74,7.5,296.7,335.6,299.1
953.0,584,19.5,17.6,89,13.39,73,7.5,296.7,335.5,299.1
952.4,589,19.5,17.5,89,13.35,73,7.5,296.7,335.4,299.1
951.9,594,19.4,17.5,89,13.31,73,7.5,296.7,335.3,299.1
951.3,598,19.4,17.4,89,13.30,73,7.5,296.7,335.3,299.1
950.8,603,19.3,17.4,89,13.30,73,7.5,296.7,335.3,299.1
950.3,608,19.3,17.5,89,13.33,73,7.5,296.7,335.4,299.1
949.8,612,19.2,17.5,90,13.34,73,7.5,296.7,335.4,299.1
949.3,617,19.2,17.5,90,13.33,74,7.5,296.7,335.4,299.1
948.8,621,19.1,17.4,90,13.31,74,7.5,296.7,335.3,299.1
948.4,625,19.1,17.4,90,13.29,74,7.5,296.7,335.3,299.1
947.9,630,19.1,17.4,90,13.29,74,7.5,296.7,335.3,299.1
947.3,634,19.0,17.4,90,13.30,74,7.5,296.7,335.3,299.1
946.8,639,19.0,17.4,90,13.31,74,7.5,296.7,335.3,299.1
946.3,644,18.9,17.4,91,13.29,74,7.5,296.7,335.3,299.1
945.7,649,18.9,17.3,91,13.28,75,7.5,296.7,335.2,299.1
945.1,655,18.8,17.3,91,13.29,75,7.5,296.7,335.3,299.1
944.6,660,18.8,17.4,92,13.32,75,7.6,296.7,335.3,299.1
944.0,665,18.7,17.4,92,13.34,76,7.6,296.7,335.4,299.1
943.4,670,18.7,17.4,92,13.33,76,7.6,296.7,335.4,299.1
942.8,676,18.6,17.3,92,13.33,76,7.6,296.7,335.4,299.1
942.3,681,18.6,17.3,93,13.33,77,7.6,296.7,335.4,299.1
941.7,686,18.5,17.3,93,13.30,77,7.6,296.7,335.3,299.1
941.2,691,18.5,17.3,93,13.28,77,7.6,296.7,335.2,299.1
940.7,696,18.4,17.3,93,13.28,77,7.7,296.7,335.2,299.1
940.1,700,18.4,17.3,93,13.32,78,7.7,296.7,335.3,299.1
939.6,705,18.3,17.3,94,13.35,78,7.7,296.7,335.4,299.1
939.1,710,18.3,17.3,94,13.32,78,7.7,296.7,335.3,299.1
938.6,715,18.2,17.2,94,13.27,78,7.7,296.7,335.2,299.1
938.0,719,18.2,17.2,94,13.25,78,7.8,296.7,335.2,299.1
937.5,724,18.1,17.2,94,13.25,79,7.8,296.7,335.1,299.1
937.0,729,18.1,17.2,94,13.25,79,7.8,296.7,335.1,299.1
936.5,734,18.1,17.1,94,13.23,79,7.9,296.7,335.1,299.1
936.0,738,18.0,17.1,95,13.25,79,7.9,296.7,335.2,299.1
935.5,743,18.0,17.2,95,13.28,79,8.0,296.7,335.2,299.1
935.0,748,17.9,17.2,95,13.30,79,8.0,296.7,335.3,299.1
934.5,752,17.9,17.1,95,13.28,79,8.1,296.7,335.2,299.1
934.0,757,17.8,17.1,95,13.26,79,8.1,296.7,335.2,299.1
933.5,761,17.8,17.1,95,13.24,79,8.2,296.7,335.2,299.1
933.0,766,17.8,17.1,96,13.24,80,8.3,296.7,335.2,299.1
932.5,771,17.7,17.1,96,13.26,80,8.4,296.7,335.2,299.1
931.9,776,17.7,17.1,96,13.27,80,8.4,296.8,335.3,299.1
931.4,780,17.6,17.1,97,13.27,80,8.5,296.7,335.3,299.1
930.9,785,17.6,17.0,97,13.25,81,8.6,296.7,335.2,299.1
930.3,790,17.5,17.0,97,13.20,81,8.7,296.7,335.0,299.1
929.8,795,17.5,16.9,96,13.14,81,8.9,296.7,334.9,299.1
929.3,800,17.5,16.8,96,13.04,82,9.0,296.8,334.6,299.1
928.8,805,17.4,16.6,95,12.89,82,9.1,296.8,334.2,299.1
928.2,810,17.4,16.4,94,12.77,83,9.2,296.8,333.9,299.1
927.7,815,17.4,16.4,94,12.79,83,9.4,296.8,334.0,299.1
927.1,820,17.4,16.5,95,12.87,84,9.5,296.9,334.2,299.1
926.6,825,17.3,16.5,95,12.88,84,9.6,296.8,334.2,299.1
926.0,831,17.3,16.5,95,12.82,85,9.7,296.9,334.1,299.1
925.4,836,17.2,16.4,95,12.78,85,9.9,296.9,334.0,299.2
925.0,840,17.2,16.4,95,12.79,85,9.9,296.9,334.1,299.2
924.8,841,17.2,16.4,95,12.78,86,10.0,296.9,334.0,299.2
924.2,847,17.2,16.3,94,12.68,86,10.1,296.9,333.8,299.2
923.6,852,17.1,15.9,93,12.42,87,10.3,297.0,333.0,299.2
923.0,858,17.2,15.5,90,12.10,87,10.4,297.0,332.2,299.2
922.4,864,17.2,15.2,88,11.85,88,10.5,297.1,331.7,299.3
921.8,869,17.2,15.1,87,11.79,89,10.6,297.2,331.6,299.3
921.1,876,17.2,15.1,88,11.82,89,10.6,297.2,331.7,299.4
920.5,882,17.2,15.1,88,11.78,90,10.7,297.3,331.6,299.4
919.8,888,17.1,14.9,86,11.63,90,10.8,297.3,331.2,299.4
919.2,894,17.1,14.6,85,11.43,91,10.8,297.3,330.7,299.4
918.5,900,17.1,14.4,84,11.27,91,10.9,297.4,330.3,299.4
917.9,905,17.1,14.2,83,11.19,92,10.9,297.4,330.1,299.4
917.4,910,17.1,14.2,83,11.13,92,10.9,297.4,329.9,299.4
916.8,916,17.0,14.1,83,11.09,92,10.9,297.5,329.9,299.5
916.3,920,17.0,14.0,83,11.06,93,10.9,297.5,329.8,299.5
915.8,925,17.0,14.0,82,11.02,93,10.9,297.5,329.7,299.5
915.3,930,17.0,13.8,82,10.93,93,10.9,297.6,329.5,299.5
914.8,934,17.0,13.7,81,10.80,94,10.8,297.6,329.2,299.5
914.3,939,17.0,13.5,79,10.67,94,10.8,297.7,328.9,299.6
913.9,943,17.1,13.3,78,10.58,94,10.7,297.8,328.8,299.7
913.4,948,17.2,13.3,78,10.55,94,10.7,297.9,328.8,299.8
912.9,952,17.2,13.3,78,10.54,95,10.6,298.0,328.9,299.9
912.4,957,17.2,13.2,78,10.54,95,10.6,298.1,328.9,299.9
911.9,962,17.2,13.3,78,10.55,95,10.5,298.1,329.0,300.0
911.4,966,17.1,13.3,78,10.56,95,10.5,298.1,329.0,300.0
910.9,971,17.1,13.3,78,10.57,95,10.4,298.1,329.1,300.0
910.4,976,17.1,13.3,78,10.58,95,10.4,298.1,329.1,300.0
909.8,981,17.0,13.2,79,10.57,95,10.3,298.1,329.1,300.0
909.3,986,17.0,13.2,79,10.56,94,10.3,298.1,329.1,300.0
908.8,991,16.9,13.2,79,10.57,94,10.2,298.1,329.1,300.0
908.3,995,16.9,13.2,79,10.59,94,10.2,298.1,329.2,300.0
907.8,1000,16.9,13.3,80,10.64,94,10.1,298.1,329.3,300.0
907.4,1004,16.8,13.3,80,10.67,93,10.1,298.1,329.4,300.1
906.9,1009,16.8,13.4,80,10.69,93,10.1,298.1,329.5,300.1
906.4,1013,16.8,13.4,80,10.69,92,10.0,298.2,329.5,300.1
906.0,1018,16.7,13.3,80,10.68,92,10.0,298.2,329.5,300.1
905.5,1022,16.7,13.3,81,10.67,91,10.0,298.2,329.4,300.1
905.0,1027,16.6,13.3,81,10.68,91,10.0,298.2,329.5,300.1
904.5,1032,16.6,13.3,81,10.69,90,10.0,298.2,329.5,300.1
904.0,1036,16.6,13.3,81,10.67,89,10.0,298.2,329.5,300.1
903.4,1041,16.6,13.2,81,10.65,88,10.0,298.3,329.5,300.2
902.9,1047,16.5,13.2,81,10.65,88,10.0,298.2,329.5,300.2
902.3,1052,16.5,13.3,81,10.69,87,10.0,298.3,329.6,300.2
901.7,1057,16.4,13.3,82,10.72,86,10.0,298.3,329.7,300.2
901.2,1063,16.4,13.4,82,10.75,85,10.0,298.3,329.8,300.2
900.6,1068,16.3,13.4,83,10.81,84,10.0,298.3,330.0,300.2
900.0,1074,16.3,13.5,84,10.88,83,10.0,298.3,330.2,300.2
899.4,1079,16.3,13.6,84,10.93,83,10.0,298.3,330.3,300.3
898.9,1084,16.2,13.6,85,10.99,82,10.0,298.3,330.5,300.3
898.4,1089,16.2,13.7,85,11.05,81,10.0,298.3,330.7,300.3
897.8,1094,16.1,13.8,86,11.12,80,10.0,298.3,330.9,300.3
897.3,1099,16.1,13.9,87,11.21,79,10.1,298.3,331.2,300.4
896.9,1104,16.1,14.0,88,11.30,78,10.1,298.4,331.5,300.4
896.4,1108,16.0,14.1,88,11.34,77,10.1,298.4,331.6,300.4
895.9,1113,16.0,14.1,88,11.33,77,10.1,298.4,331.6,300.4
895.4,1117,16.0,14.0,88,11.30,76,10.1,298.4,331.5,300.4
895.0,1122,16.0,14.0,88,11.29,75,10.1,298.4,331.5,300.4
894.5,1126,15.9,14.0,88,11.30,75,10.2,298.4,331.6,300.5
894.0,1131,15.9,14.0,89,11.32,74,10.2,298.4,331.6,300.5
893.5,1135,15.8,14.0,89,11.32,74,10.2,298.4,331.6,300.5
893.0,1140,15.8,14.0,89,11.31,73,10.2,298.4,331.5,300.4
892.5,1145,15.7,13.9,89,11.29,73,10.2,298.4,331.5,300.4
892.0,1150,15.7,14.0,89,11.31,72,10.3,298.4,331.6,300.5
891.4,1155,15.7,14.1,90,11.39,72,10.3,298.4,331.8,300.5
890.9,1160,15.6,14.2,92,11.54,72,10.3,298.5,332.2,300.5
890.4,1166,15.6,14.4,93,11.66,72,10.3,298.4,332.6,300.5
889.8,1171,15.5,14.4,93,11.69,72,10.3,298.4,332.7,300.5
889.3,1176,15.5,14.4,93,11.65,72,10.3,298.4,332.6,300.5
888.7,1181,15.4,14.3,93,11.63,72,10.3,298.4,332.5,300.5
888.2,1186,15.4,14.4,94,11.66,72,10.3,298.5,332.6,300.5
887.6,1192,15.3,14.4,94,11.73,72,10.3,298.5,332.8,300.6
887.1,1197,15.3,14.5,95,11.82,72,10.3,298.5,333.1,300.6
886.5,1202,15.2,14.7,96,11.92,73,10.3,298.5,333.4,300.6
886.0,1208,15.2,14.7,97,11.97,73,10.3,298.5,333.5,300.6
885.4,1213,15.1,14.7,97,11.97,73,10.3,298.5,333.5,300.6
884.8,1219,15.1,14.7,97,11.98,73,10.2,298.5,333.6,300.7
884.3,1224,15.1,14.7,98,12.01,74,10.2,298.6,333.7,300.7
883.7,1229,15.1,14.7,98,12.02,74,10.1,298.6,333.8,300.8
883.2,1235,15.1,14.7,97,11.97,74,10.1,298.7,333.8,300.8
882.6,1240,15.1,14.5,96,11.86,75,10.0,298.7,333.5,300.9
882.2,1244,15.1,14.3,95,11.72,75,10.0,298.8,333.1,300.9
881.7,1249,15.1,14.1,94,11.57,75,9.9,298.8,332.8,300.9
881.2,1253,15.1,13.9,92,11.39,75,9.8,298.9,332.3,300.9
880.8,1258,15.2,13.7,91,11.28,76,9.7,299.0,332.1,301.0
880.3,1262,15.2,13.7,91,11.25,76,9.6,299.0,332.1,301.1
879.8,1267,15.2,13.7,91,11.25,76,9.6,299.1,332.2,301.1
879.3,1272,15.2,13.7,91,11.25,76,9.5,299.1,332.2,301.1
878.7,1278,15.1,13.6,91,11.24,76,9.4,299.1,332.2,301.2
878.1,1283,15.1,13.6,90,11.19,76,9.3,299.2,332.1,301.2
877.6,1288,15.1,13.5,90,11.13,76,9.2,299.2,332.0,301.2
877.1,1294,15.1,13.4,89,11.10,76,9.1,299.3,331.9,301.3
876.5,1299,15.1,13.5,90,11.19,76,9.0,299.4,332.3,301.4
876.1,1303,15.2,13.8,92,11.39,76,8.9,299.4,332.9,301.5
875.6,1308,15.2,14.0,93,11.53,76,8.9,299.5,333.4,301.5
875.1,1312,15.2,13.9,92,11.51,76,8.8,299.5,333.4,301.6
874.7,1317,15.2,13.8,91,11.41,76,8.7,299.6,333.2,301.6
874.2,1321,15.2,13.7,91,11.33,76,8.7,299.7,333.0,301.7
873.7,1326,15.2,13.6,90,11.28,75,8.6,299.7,332.9,301.7
873.2,1331,15.2,13.5,89,11.22,75,8.6,299.8,332.9,301.8
872.7,1336,15.3,13.5,89,11.20,75,8.5,299.9,332.9,301.9
872.2,1341,15.3,13.5,89,11.24,75,8.5,300.0,333.1,302.0
871.7,1346,15.3,13.6,89,11.28,76,8.5,300.0,333.3,302.1
871.2,1351,15.4,13.6,89,11.28,76,8.5,300.1,333.4,302.1
870.7,1356,15.3,13.6,89,11.29,76,8.5,300.1,333.5,302.2
870.2,1361,15.3,13.6,89,11.31,76,8.5,300.1,333.5,302.2
869.7,1365,15.3,13.6,90,11.32,76,8.5,300.2,333.6,302.2
869.2,1370,15.3,13.6,90,11.32,76,8.5,300.2,333.6,302.2
868.8,1374,15.3,13.6,90,11.32,77,8.6,300.2,333.7,302.3
868.3,1379,15.3,13.6,90,11.33,77,8.6,300.3,333.7,302.3
867.8,1383,15.3,13.5,89,11.31,77,8.7,300.3,333.8,302.4
867.4,1388,15.3,13.5,89,11.26,77,8.7,300.4,333.6,302.4
866.9,1392,15.2,13.4,89,11.21,78,8.8,300.4,333.5,302.4
866.5,1397,15.2,13.3,88,11.17,78,8.8,300.4,333.5,302.4
866.0,1402,15.2,13.3,88,11.16,78,8.9,300.5,333.5,302.5
865.5,1406,15.2,13.3,88,11.15,78,8.9,300.5,333.5,302.5
865.0,1411,15.2,13.3,88,11.16,79,9.0,300.5,333.5,302.5
864.5,1416,15.2,13.3,89,11.16,79,9.1,300.5,333.6,302.6
864.0,1421,15.1,13.3,89,11.16,79,9.1,300.5,333.6,302.6
863.5,1426,15.1,13.2,89,11.14,79,9.2,300.6,333.5,302.6
863.0,1431,15.0,13.2,89,11.11,79,9.3,300.6,333.4,302.6
862.5,1436,15.0,13.1,89,11.09,79,9.3,300.6,333.4,302.6
861.9,1441,14.9,13.1,89,11.08,79,9.4,300.6,333.4,302.6
861.4,1446,14.9,13.1,89,11.10,79,9.5,300.6,333.4,302.6
860.9,1451,14.8,13.2,90,11.14,79,9.5,300.6,333.5,302.6
860.4,1456,14.8,13.2,90,11.16,79,9.6,300.6,333.6,302.6
860.0,1461,14.7,13.2,90,11.16,79,9.7,300.6,333.6,302.6
859.5,1465,14.7,13.2,90,11.15,78,9.7,300.6,333.6,302.6
859.0,1470,14.7,13.2,91,11.15,78,9.8,300.6,333.6,302.6
858.6,1474,14.7,13.2,91,11.18,78,9.9,300.6,333.7,302.6
858.1,1479,14.6,13.2,91,11.20,78,9.9,300.6,333.8,302.7
857.7,1483,14.6,13.2,91,11.19,78,10.0,300.7,333.8,302.7
857.2,1488,14.6,13.2,91,11.18,78,10.1,300.7,333.8,302.7
856.8,1492,14.6,13.1,91,11.15,77,10.1,300.7,333.7,302.7
856.4,1496,14.5,13.1,91,11.15,77,10.2,300.7,333.7,302.7
855.9,1501,14.5,13.1,91,11.16,77,10.2,300.7,333.7,302.7
855.5,1505,14.5,13.1,92,11.17,77,10.3,300.7,333.8,302.7
855.0,1510,14.4,13.1,92,11.17,77,10.3,300.7,333.8,302.7
854.6,1514,14.4,13.1,92,11.16,77,10.4,300.7,333.7,302.7
854.1,1519,14.3,13.1,92,11.15,77,10.4,300.7,333.7,302.7
853.6,1523,14.3,13.1,92,11.14,77,10.5,300.7,333.7,302.7
853.2,1527,14.2,13.1,93,11.14,77,10.5,300.7,333.7,302.7
852.8,1532,14.2,13.0,93,11.13,77,10.5,300.7,333.6,302.7
852.4,1536,14.1,13.0,93,11.12,78,10.5,300.7,333.6,302.7
852.0,1539,14.1,13.0,93,11.11,78,10.5,300.7,333.6,302.7
851.6,1543,14.1,13.0,93,11.11,78,10.5,300.7,333.6,302.7
851.2,1547,14.1,13.0,93,11.11,78,10.5,300.8,333.6,302.8
850.8,1551,14.1,12.9,93,11.08,78,10.5,300.8,333.6,302.8
850.4,1556,14.0,12.9,93,11.05,78,10.5,300.8,333.5,302.8
850.0,1559,14.0,12.9,93,11.04,78,10.5,300.8,333.5,302.8
849.9,1561,14.0,12.8,93,11.03,78,10.5,300.8,333.5,302.8
849.4,1565,14.0,12.8,92,11.00,78,10.5,300.8,333.4,302.8
848.9,1571,14.0,12.8,93,10.99,78,10.5,300.9,333.4,302.8
848.4,1576,13.9,12.7,93,10.97,78,10.5,300.9,333.4,302.8
847.9,1581,13.9,12.7,93,10.95,79,10.4,300.9,333.3,302.9
847.4,1586,13.8,12.7,93,10.94,79,10.4,300.9,333.3,302.9
846.9,1591,13.8,12.7,93,10.95,79,10.4,300.9,333.3,302.9
846.4,1595,13.8,12.7,93,10.94,79,10.3,300.9,333.4,302.9
845.9,1600,13.7,12.7,93,10.94,79,10.3,300.9,333.4,302.9
845.5,1605,13.7,12.7,93,10.95,79,10.3,300.9,333.4,302.9
845.0,1609,13.7,12.7,94,10.96,79,10.2,301.0,333.4,302.9
844.5,1614,13.6,12.7,94,10.97,79,10.2,301.0,333.5,302.9
844.1,1619,13.6,12.7,94,10.98,79,10.2,301.0,333.5,302.9
843.6,1623,13.6,12.7,94,10.98,79,10.1,301.0,333.5,303.0
843.2,1627,13.5,12.6,94,10.97,79,10.1,301.0,333.5,303.0
842.8,1632,13.5,12.6,94,10.97,79,10.1,301.0,333.5,303.0
842.3,1636,13.5,12.7,95,10.99,79,10.0,301.0,333.6,303.0
841.9,1640,13.4,12.7,95,11.02,79,10.0,301.0,333.7,303.0
841.5,1645,13.4,12.7,96,11.06,79,10.0,301.0,333.8,303.0
841.1,1649,13.4,12.7,96,11.07,79,10.0,301.1,333.9,303.1
840.6,1653,13.4,12.7,96,11.05,79,9.9,301.1,333.8,303.1
840.2,1658,13.3,12.7,96,11.03,80,9.9,301.1,333.8,303.1
839.7,1662,13.3,12.6,96,11.01,80,9.9,301.1,333.8,303.1
839.2,1667,13.3,12.6,96,11.00,80,9.9,301.1,333.7,303.1
838.7,1672,13.2,12.6,96,11.00,80,9.9,301.1,333.7,303.1
838.2,1677,13.2,12.5,96,10.96,81,9.8,301.1,333.6,303.1
837.8,1682,13.1,12.5,96,10.91,81,9.8,301.1,333.5,303.1
837.3,1687,13.1,12.4,96,10.90,81,9.8,301.1,333.5,303.1
836.8,1692,13.1,12.4,96,10.90,81,9.8,301.2,333.5,303.1
836.4,1696,13.0,12.4,96,10.89,82,9.8,301.2,333.5,303.1
835.9,1700,13.0,12.4,96,10.86,82,9.8,301.2,333.4,303.2
835.5,1704,13.0,12.3,95,10.79,82,9.9,301.2,333.3,303.2
835.1,1708,13.1,12.2,94,10.74,82,9.9,301.3,333.2,303.3
834.8,1712,13.1,12.1,94,10.69,82,9.9,301.4,333.1,303.3
834.4,1716,13.1,12.0,93,10.62,83,9.9,301.4,333.0,303.4
834.1,1719,13.1,11.9,92,10.55,83,9.9,301.5,332.9,303.4
833.7,1723,13.1,11.8,92,10.51,83,9.9,301.6,332.8,303.5
833.4,1726,13.1,11.8,92,10.49,83,9.9,301.6,332.8,303.5
833.1,1730,13.1,11.8,91,10.48,83,10.0,301.6,332.8,303.5
832.7,1733,13.1,11.8,92,10.50,83,10.0,301.7,332.9,303.6
832.3,1737,13.1,11.8,92,10.53,83,10.0,301.7,333.0,303.6
832.0,1741,13.1,11.9,92,10.57,83,10.1,301.7,333.1,303.6
831.6,1745,13.1,11.9,93,10.59,83,10.1,301.7,333.2,303.6
831.2,1749,13.1,11.9,93,10.60,83,10.1,301.7,333.3,303.7
830.7,1753,13.0,11.9,93,10.60,83,10.1,301.8,333.3,303.7
830.3,1757,13.1,11.9,92,10.57,83,10.1,301.8,333.3,303.7
829.8,1762,13.1,11.8,92,10.52,82,10.2,301.9,333.2,303.8
829.4,1767,13.1,11.8,92,10.52,82,10.2,301.9,333.3,303.8
828.8,1772,13.1,11.8,92,10.58,82,10.2,302.0,333.5,303.9
828.3,1778,13.1,12.0,93,10.68,82,10.2,302.0,333.8,304.0
827.8,1783,13.0,12.0,94,10.73,82,10.2,302.1,334.0,304.0
