PRES,HGHT,TEMP,DWPT,RELH,MIXR,DRCT,SPED,THTA,THTE,THTV
1017.2,31,18.4,16.7,90,11.87,285,2.2,290.1,323.6,292.2
1016.7,35,19.6,17.6,89,12.57,343,1.8,291.3,327.0,293.5
1015.9,42,20.1,18.0,87,12.85,352,2.0,291.9,328.5,294.2
1015.1,48,20.7,18.2,85,13.04,355,2.2,292.6,329.8,294.9
1014.6,53,21.2,18.2,83,13.09,357,2.4,293.1,330.5,295.4
1014.0,58,21.5,18.2,82,13.10,358,2.5,293.5,330.9,295.8
1013.4,63,21.7,18.2,81,13.10,359,2.7,293.7,331.2,296.0
1012.8,68,21.8,18.3,80,13.16,1,2.9,293.9,331.6,296.2
1012.2,73,21.9,18.4,81,13.26,3,3.1,294.0,332.0,296.3
1011.6,79,21.9,18.4,81,13.31,5,3.2,294.1,332.3,296.5
1010.9,84,22.0,18.5,80,13.39,6,3.4,294.3,332.7,296.6
1010.3,89,22.2,18.6,80,13.48,7,3.6,294.5,333.2,296.8
1009.7,95,22.2,18.6,80,13.51,9,3.8,294.6,333.4,297.0
1009.1,100,22.3,18.7,80,13.54,10,3.9,294.6,333.6,297.0
1008.5,105,22.3,18.7,80,13.56,11,4.1,294.7,333.7,297.1
1007.9,110,22.2,18.7,80,13.55,13,4.2,294.7,333.7,297.1
1007.3,116,22.2,18.6,80,13.53,14,4.3,294.7,333.6,297.1
1006.7,121,22.2,18.6,80,13.53,15,4.4,294.7,333.7,297.1
1006.0,127,22.1,18.6,80,13.49,16,4.5,294.8,333.6,297.2
1005.4,132,22.1,18.5,80,13.44,16,4.6,294.8,333.5,297.2
1004.8,138,22.1,18.5,80,13.42,17,4.7,294.9,333.5,297.2
1004.1,143,22.1,18.4,80,13.38,18,4.7,294.9,333.4,297.3
1003.5,148,22.0,18.3,79,13.33,18,4.7,294.9,333.3,297.3
1002.9,153,22.0,18.3,79,13.31,19,4.7,294.9,333.2,297.3
1002.3,158,22.0,18.3,80,13.33,20,4.7,294.9,333.3,297.3
1001.8,163,22.0,18.3,80,13.33,20,4.7,295.0,333.3,297.3
1001.2,168,22.0,18.3,80,13.32,21,4.6,295.0,333.4,297.4
1000.7,173,21.9,18.3,80,13.32,21,4.6,295.0,333.4,297.4
1000.1,178,21.9,18.3,80,13.33,22,4.5,295.0,333.4,297.4
1000.0,179,21.9,18.3,80,13.34,22,4.5,295.0,333.5,297.4
999.5,183,21.8,18.3,80,13.36,22,4.5,295.0,333.5,297.4
999.0,188,21.8,18.3,81,13.38,23,4.4,295.0,333.6,297.4
998.4,193,21.8,18.3,81,13.41,23,4.3,295.1,333.7,297.4
997.8,198,21.7,18.4,81,13.43,24,4.2,295.1,333.7,297.4
997.2,203,21.7,18.3,81,13.41,25,4.1,295.1,333.7,297.4
996.6,208,21.6,18.3,81,13.39,25,4.0,295.1,333.6,297.4
996.0,213,21.6,18.3,81,13.38,26,4.0,295.1,333.6,297.4
995.4,219,21.5,18.2,81,13.36,27,3.9,295.1,333.6,297.4
994.8,224,21.5,18.2,81,13.31,28,3.8,295.1,333.4,297.4
994.2,230,21.5,18.1,81,13.27,29,3.7,295.1,333.3,297.4
993.6,235,21.4,18.1,81,13.27,30,3.7,295.1,333.3,297.4
993.0,240,21.4,18.2,82,13.32,31,3.6,295.1,333.5,297.5
992.4,245,21.3,18.2,82,13.35,32,3.6,295.1,333.6,297.5
991.8,250,21.3,18.2,82,13.34,33,3.6,295.1,333.5,297.5
991.2,255,21.2,18.1,83,13.32,34,3.6,295.1,333.5,297.5
990.7,260,21.2,18.2,83,13.35,35,3.6,295.1,333.6,297.5
990.1,265,21.1,18.2,83,13.38,36,3.6,295.1,333.7,297.5
989.6,270,21.1,18.2,83,13.38,37,3.6,295.1,333.6,297.5
989.0,275,21.0,18.1,84,13.36,39,3.7,295.1,333.6,297.5
988.5,280,21.0,18.1,84,13.34,40,3.7,295.1,333.6,297.5
988.0,284,20.9,18.1,84,13.31,40,3.8,295.1,333.5,297.5
987.5,288,20.9,18.0,84,13.30,41,3.8,295.1,333.4,297.5
987.0,292,20.9,18.0,84,13.27,42,3.9,295.1,333.4,297.5
986.6,296,20.9,18.0,83,13.24,43,3.9,295.1,333.3,297.5
986.1,300,20.8,17.9,83,13.23,43,4.0,295.2,333.3,297.5
985.7,304,20.8,17.9,84,13.23,44,4.0,295.2,333.3,297.5
985.2,308,20.8,17.9,84,13.24,44,4.1,295.2,333.3,297.5
984.7,312,20.7,17.9,84,13.26,44,4.1,295.2,333.4,297.5
984.2,317,20.7,18.0,84,13.27,45,4.2,295.2,333.4,297.5
983.7,322,20.7,18.0,85,13.30,45,4.2,295.2,333.5,297.5
983.2,326,20.6,18.0,85,13.34,45,4.3,295.2,333.6,297.5
982.6,332,20.5,18.0,85,13.34,45,4.3,295.2,333.6,297.5
982.0,337,20.5,18.0,86,13.33,45,4.3,295.2,333.6,297.5
981.4,342,20.4,18.0,86,13.31,45,4.3,295.2,333.5,297.5
980.9,347,20.4,17.9,86,13.29,45,4.3,295.2,333.5,297.5
980.3,352,20.3,17.9,86,13.29,45,4.3,295.2,333.5,297.5
979.8,356,20.3,17.9,86,13.29,45,4.3,295.2,333.5,297.5
979.2,361,20.2,17.9,86,13.27,45,4.2,295.2,333.4,297.5
978.7,366,20.2,17.9,86,13.28,45,4.2,295.2,333.4,297.5
978.2,370,20.2,17.9,87,13.31,45,4.2,295.2,333.5,297.5
977.7,375,20.1,17.9,87,13.33,44,4.1,295.2,333.6,297.5
977.2,379,20.1,17.9,87,13.32,44,4.1,295.2,333.6,297.5
976.7,384,20.0,17.9,87,13.31,44,4.0,295.2,333.5,297.5
976.2,388,20.0,17.9,88,13.32,44,3.9,295.2,333.6,297.5
975.7,393,20.0,17.9,88,13.35,44,3.9,295.2,333.6,297.5
975.2,397,19.9,17.9,88,13.34,44,3.8,295.2,333.6,297.5
974.6,402,19.9,17.9,88,13.33,44,3.8,295.2,333.6,297.6
974.1,407,19.8,17.8,88,13.29,44,3.7,295.2,333.5,297.5
973.5,411,19.8,17.8,88,13.25,44,3.6,295.2,333.4,297.5
973.0,416,19.7,17.7,88,13.21,43,3.6,295.2,333.3,297.5
972.4,421,19.7,17.7,88,13.21,43,3.5,295.2,333.3,297.5
971.9,426,19.7,17.7,88,13.22,44,3.4,295.2,333.3,297.5
971.3,431,19.6,17.7,89,13.22,44,3.4,295.2,333.3,297.5
970.8,436,19.6,17.6,89,13.17,44,3.3,295.2,333.2,297.5
970.3,441,19.5,17.5,88,13.08,44,3.3,295.2,332.9,297.5
969.7,445,19.5,17.4,88,13.00,44,3.3,295.2,332.7,297.5
969.2,450,19.5,17.3,87,12.94,44,3.2,295.3,332.6,297.6
968.7,455,19.5,17.3,87,12.90,44,3.2,295.3,332.5,297.6
968.1,460,19.5,17.2,87,12.88,44,3.2,295.3,332.5,297.6
967.6,465,19.4,17.2,87,12.86,44,3.2,295.3,332.4,297.6
967.0,470,19.4,17.1,87,12.78,44,3.2,295.3,332.2,297.6
966.5,474,19.3,17.0,86,12.69,45,3.2,295.3,332.0,297.6
965.9,479,19.3,16.9,86,12.67,45,3.2,295.4,331.9,297.6
965.4,484,19.2,17.0,87,12.71,45,3.2,295.3,332.0,297.6
964.8,489,19.2,17.0,87,12.72,45,3.2,295.4,332.1,297.6
964.3,494,19.2,16.9,87,12.67,45,3.2,295.4,331.9,297.6
963.7,499,19.1,16.9,87,12.63,45,3.3,295.4,331.9,297.6
963.1,505,19.1,16.8,87,12.61,45,3.3,295.4,331.8,297.6
962.5,510,19.0,16.7,86,12.52,45,3.4,295.4,331.5,297.6
961.9,515,19.0,16.5,85,12.37,45,3.4,295.4,331.2,297.6
961.3,521,19.0,16.4,85,12.28,45,3.4,295.5,330.9,297.6
960.7,526,19.0,16.4,85,12.30,45,3.5,295.5,331.0,297.7
960.1,531,18.9,16.4,85,12.27,45,3.5,295.5,330.9,297.6
959.6,536,18.9,16.2,85,12.18,45,3.6,295.5,330.7,297.6
959.0,541,18.8,16.1,84,12.07,45,3.6,295.5,330.4,297.6
958.4,546,18.8,16.0,84,12.02,46,3.7,295.5,330.3,297.7
957.9,551,18.8,16.0,84,12.02,46,3.7,295.5,330.3,297.7
957.4,556,18.7,16.0,84,12.03,46,3.8,295.5,330.3,297.7
956.8,561,18.7,16.0,84,12.02,46,3.8,295.5,330.3,297.7
956.3,565,18.7,15.9,84,11.98,46,3.9,295.5,330.2,297.7
955.8,570,18.6,15.9,84,11.96,46,3.9,295.6,330.2,297.7
955.3,575,18.6,15.9,85,12.00,46,4.0,295.6,330.3,297.7
954.8,579,18.5,16.0,85,12.08,47,4.0,295.5,330.5,297.7
954.3,584,18.5,16.0,86,12.07,47,4.0,295.5,330.4,297.7
953.8,588,18.4,15.9,85,11.96,47,4.1,295.5,330.1,297.7
953.3,593,18.4,15.7,84,11.82,47,4.1,295.6,329.8,297.7
952.8,598,18.4,15.6,84,11.78,48,4.1,295.6,329.7,297.7
952.2,602,18.4,15.7,84,11.83,48,4.1,295.6,329.8,297.7
951.7,607,18.3,15.7,85,11.86,48,4.1,295.6,329.9,297.7
951.2,612,18.3,15.6,85,11.82,49,4.1,295.6,329.8,297.7
950.6,617,18.2,15.5,84,11.72,49,4.2,295.6,329.5,297.7
950.1,622,18.2,15.3,83,11.61,50,4.2,295.6,329.2,297.7
949.5,626,18.2,15.3,83,11.58,50,4.2,295.7,329.2,297.7
949.0,631,18.1,15.4,84,11.67,50,4.2,295.7,329.4,297.7
948.5,636,18.1,15.5,85,11.77,51,4.2,295.7,329.7,297.7
948.0,641,18.0,15.5,85,11.79,51,4.2,295.6,329.8,297.7
947.4,645,18.0,15.5,86,11.78,52,4.2,295.6,329.7,297.7
946.9,650,17.9,15.5,85,11.74,52,4.1,295.7,329.6,297.7
946.4,655,17.9,15.4,85,11.71,52,4.1,295.6,329.5,297.7
945.8,660,17.8,15.4,85,11.68,53,4.1,295.6,329.5,297.7
945.2,665,17.8,15.3,85,11.65,53,4.1,295.7,329.4,297.7
944.7,671,17.8,15.3,86,11.64,54,4.1,295.7,329.4,297.7
944.1,676,17.7,15.3,86,11.63,54,4.1,295.7,329.3,297.7
943.6,681,17.7,15.3,86,11.63,54,4.1,295.7,329.3,297.7
943.0,686,17.6,15.3,86,11.63,55,4.1,295.7,329.4,297.7
942.4,691,17.6,15.2,86,11.63,55,4.1,295.7,329.3,297.7
941.9,696,17.5,15.2,86,11.60,55,4.1,295.7,329.3,297.8
941.3,701,17.5,15.1,86,11.53,56,4.1,295.7,329.1,297.7
940.7,706,17.5,14.9,85,11.42,56,4.1,295.7,328.8,297.8
940.2,712,17.5,14.8,85,11.36,57,4.1,295.8,328.7,297.8
939.6,717,17.4,14.8,85,11.35,57,4.1,295.8,328.7,297.8
939.1,722,17.4,14.8,85,11.32,57,4.1,295.8,328.6,297.8
938.5,726,17.4,14.7,84,11.26,58,4.1,295.8,328.5,297.8
938.0,731,17.4,14.6,84,11.19,58,4.1,295.9,328.3,297.9
937.5,736,17.3,14.6,84,11.18,58,4.1,295.9,328.3,297.9
937.0,740,17.3,14.6,84,11.19,59,4.1,295.9,328.3,297.9
936.5,745,17.2,14.6,84,11.21,59,4.1,295.9,328.4,297.9
936.0,749,17.2,14.6,84,11.20,60,4.2,295.9,328.4,297.9
935.5,754,17.2,14.5,84,11.17,60,4.2,295.9,328.3,297.9
935.0,759,17.1,14.5,84,11.16,61,4.2,295.9,328.3,297.9
934.5,763,17.1,14.4,84,11.12,61,4.2,295.9,328.2,297.9
934.0,768,17.1,14.3,84,11.05,62,4.2,296.0,328.0,297.9
933.4,773,17.1,14.2,83,10.98,63,4.2,296.0,327.9,297.9
932.9,778,17.0,14.1,83,10.91,63,4.2,296.0,327.7,297.9
932.3,783,17.0,14.0,82,10.81,64,4.2,296.0,327.4,298.0
931.8,788,17.0,13.8,82,10.71,64,4.3,296.1,327.2,298.0
931.3,793,17.0,13.6,80,10.56,65,4.3,296.1,326.8,298.0
930.7,798,17.0,13.2,78,10.31,66,4.3,296.1,326.1,298.0
930.2,803,17.1,12.8,76,10.01,67,4.3,296.3,325.4,298.1
929.7,808,17.2,12.5,74,9.82,68,4.3,296.4,325.1,298.2
929.1,813,17.2,12.4,73,9.75,68,4.3,296.5,324.9,298.2
928.6,818,17.1,12.3,73,9.70,69,4.4,296.5,324.8,298.2
928.0,823,17.1,12.2,73,9.63,70,4.4,296.5,324.6,298.2
927.5,828,17.1,12.0,72,9.56,71,4.4,296.5,324.4,298.2
926.9,833,17.0,11.9,72,9.50,72,4.4,296.5,324.3,298.2
926.3,839,17.0,11.9,72,9.48,73,4.4,296.6,324.2,298.3
925.7,844,17.0,11.9,72,9.48,74,4.4,296.6,324.3,298.3
925.1,850,16.9,11.9,72,9.50,75,4.4,296.6,324.3,298.3
925.0,851,16.9,11.9,72,9.50,76,4.4,296.6,324.3,298.3
924.4,856,16.9,11.9,72,9.48,76,4.4,296.6,324.3,298.3
923.8,862,16.8,11.8,72,9.42,77,4.4,296.6,324.1,298.3
923.1,868,16.8,11.6,72,9.33,78,4.4,296.6,323.9,298.3
922.5,874,16.7,11.4,71,9.23,79,4.4,296.6,323.6,298.3
921.9,879,16.7,11.3,70,9.14,80,4.3,296.7,323.4,298.3
921.4,884,16.7,11.2,70,9.08,80,4.3,296.7,323.3,298.3
920.8,889,16.7,11.1,70,9.06,81,4.3,296.8,323.3,298.4
920.3,894,16.7,11.1,70,9.07,82,4.2,296.8,323.3,298.4
919.8,899,16.6,11.1,70,9.06,83,4.2,296.8,323.3,298.4
919.3,903,16.6,11.1,70,9.03,84,4.2,296.8,323.3,298.4
918.8,908,16.6,10.9,69,8.97,85,4.1,296.9,323.1,298.5
918.3,913,16.6,10.6,68,8.78,85,4.0,296.9,322.6,298.5
917.7,918,16.6,9.9,65,8.38,86,4.0,297.0,321.6,298.5
917.2,923,16.8,8.9,60,7.82,87,3.9,297.2,320.2,298.6
916.6,928,16.9,8.1,56,7.41,87,3.8,297.4,319.3,298.7
916.1,933,17.0,7.6,54,7.17,88,3.7,297.5,318.7,298.7
915.5,938,17.0,7.1,52,6.92,88,3.7,297.6,318.1,298.8
915.0,943,17.0,6.6,50,6.70,89,3.6,297.6,317.5,298.8
914.5,948,17.1,6.4,50,6.61,89,3.5,297.7,317.4,298.9
914.0,952,17.1,6.4,49,6.59,90,3.4,297.8,317.3,298.9
913.5,957,17.0,6.3,49,6.55,90,3.3,297.8,317.3,299.0
913.1,961,17.0,6.2,49,6.51,90,3.2,297.8,317.2,299.0
912.6,966,17.0,6.2,49,6.50,90,3.1,297.8,317.2,299.0
912.1,971,17.0,6.1,49,6.50,90,3.0,297.8,317.2,299.0
911.6,975,17.0,6.1,49,6.47,90,3.0,297.9,317.1,299.0
911.1,980,17.0,5.9,48,6.38,91,2.9,297.9,316.9,299.1
910.6,984,17.0,5.5,47,6.22,91,2.8,298.0,316.5,299.1
910.1,989,17.0,4.9,45,5.98,91,2.7,298.1,315.9,299.1
909.6,994,17.0,4.2,43,5.70,91,2.7,298.2,315.2,299.2
909.1,999,17.2,3.3,40,5.35,91,2.6,298.3,314.4,299.3
908.6,1003,17.4,2.7,37,5.12,91,2.6,298.6,314.0,299.5
908.1,1008,17.4,2.7,37,5.12,91,2.6,298.7,314.2,299.6
907.6,1013,17.5,3.2,39,5.31,92,2.6,298.8,314.8,299.7
907.0,1018,17.5,3.8,40,5.54,92,2.5,298.8,315.5,299.9
906.5,1023,17.5,4.0,41,5.63,92,2.6,298.9,315.9,299.9
906.0,1028,17.5,3.8,40,5.57,93,2.6,299.0,315.7,300.0
905.5,1032,17.6,3.7,40,5.52,93,2.6,299.1,315.7,300.1
905.0,1037,17.6,4.1,41,5.68,94,2.6,299.2,316.2,300.2
904.5,1042,17.6,4.9,43,6.02,94,2.7,299.2,317.3,300.3
904.0,1046,17.7,5.7,45,6.35,95,2.7,299.3,318.3,300.5
903.5,1051,17.7,6.1,46,6.53,95,2.8,299.4,319.0,300.6
903.0,1056,17.8,5.9,46,6.47,96,2.8,299.6,319.0,300.7
902.6,1060,17.9,5.4,44,6.22,96,2.9,299.7,318.4,300.9
902.1,1065,18.1,4.6,41,5.88,97,3.0,299.9,317.6,301.0
901.7,1069,18.3,3.2,37,5.36,97,3.1,300.2,316.4,301.1
901.2,1073,18.5,1.9,33,4.87,97,3.1,300.4,315.2,301.3
900.8,1077,18.6,1.2,31,4.64,97,3.2,300.5,314.7,301.4
900.4,1081,18.6,0.9,30,4.53,97,3.3,300.7,314.5,301.5
900.0,1085,18.7,0.1,29,4.28,97,3.3,300.8,313.9,301.6
899.6,1089,18.9,-2.3,24,3.60,96,3.4,301.1,312.2,301.7
899.2,1093,19.4,-6.3,17,2.66,96,3.4,301.5,309.9,302.0
898.8,1096,19.6,-9.3,13,2.10,96,3.5,301.9,308.6,302.2
898.3,1100,19.8,-9.5,13,2.06,95,3.5,302.1,308.7,302.4
897.9,1104,20.0,-8.4,14,2.25,94,3.6,302.3,309.5,302.7
897.5,1108,20.1,-8.3,14,2.27,93,3.6,302.5,309.7,302.9
897.1,1113,20.2,-9.4,13,2.09,93,3.6,302.6,309.3,303.0
896.6,1117,20.3,-10.4,12,1.93,91,3.6,302.7,308.9,303.1
896.1,1122,20.3,-10.9,11,1.86,90,3.6,302.8,308.8,303.1
895.6,1126,20.3,-10.9,11,1.86,89,3.6,302.9,308.9,303.2
895.1,1131,20.4,-11.1,11,1.83,88,3.6,303.0,308.9,303.3
894.7,1136,20.5,-11.6,10,1.76,87,3.6,303.1,308.8,303.4
894.2,1140,20.6,-12.7,10,1.61,85,3.6,303.3,308.5,303.6
893.7,1145,20.8,-14.3,8,1.41,84,3.5,303.5,308.2,303.8
893.1,1150,20.9,-15.7,7,1.26,82,3.5,303.7,307.9,304.0
892.6,1155,21.0,-16.2,7,1.22,80,3.5,303.9,307.9,304.1
892.1,1160,21.0,-16.0,7,1.24,79,3.5,303.9,308.0,304.2
891.6,1165,21.1,-15.7,7,1.26,77,3.4,304.0,308.2,304.2
891.1,1170,21.0,-15.6,7,1.27,75,3.4,304.0,308.3,304.3
890.6,1175,21.0,-15.6,7,1.28,74,3.4,304.1,308.3,304.3
890.1,1180,21.0,-15.6,7,1.28,72,3.4,304.1,308.3,304.3
889.6,1185,21.0,-15.5,7,1.28,70,3.4,304.1,308.4,304.4
889.1,1190,21.0,-15.5,7,1.29,69,3.3,304.1,308.4,304.4
888.6,1195,20.9,-15.5,7,1.29,67,3.3,304.2,308.5,304.4
888.1,1199,20.9,-15.5,7,1.29,66,3.3,304.2,308.5,304.4
887.6,1204,20.9,-15.5,7,1.29,65,3.3,304.3,308.5,304.5
887.1,1209,20.9,-15.5,7,1.29,63,3.3,304.3,308.6,304.6
886.6,1214,20.9,-15.6,7,1.28,62,3.3,304.3,308.6,304.6
886.1,1219,20.9,-15.7,7,1.28,61,3.3,304.4,308.6,304.6
885.6,1223,20.9,-15.7,7,1.27,59,3.3,304.4,308.6,304.6
885.2,1227,20.8,-15.7,7,1.27,58,3.3,304.4,308.6,304.6
884.7,1232,20.8,-15.8,7,1.27,57,3.3,304.5,308.7,304.7
884.3,1236,20.8,-15.8,7,1.26,56,3.4,304.5,308.7,304.7
883.9,1240,20.8,-15.8,7,1.26,55,3.4,304.5,308.7,304.7
883.5,1244,20.8,-15.8,7,1.26,53,3.4,304.5,308.7,304.7
883.1,1248,20.7,-15.9,7,1.26,52,3.4,304.5,308.7,304.7
882.6,1252,20.7,-15.9,7,1.26,51,3.4,304.5,308.7,304.8
882.2,1257,20.7,-15.9,7,1.25,50,3.4,304.6,308.7,304.8
881.7,1262,20.7,-16.0,7,1.25,49,3.4,304.6,308.8,304.8
881.1,1267,20.6,-16.0,7,1.25,47,3.4,304.6,308.8,304.8
880.6,1272,20.6,-16.0,7,1.24,46,3.4,304.6,308.7,304.8
880.0,1278,20.5,-16.1,7,1.24,45,3.4,304.6,308.7,304.8
879.4,1284,20.5,-16.1,7,1.24,43,3.4,304.6,308.7,304.9
878.9,1289,20.5,-16.1,7,1.24,42,3.4,304.6,308.8,304.9
878.3,1294,20.4,-16.1,7,1.24,41,3.4,304.6,308.8,304.9
877.8,1299,20.4,-16.1,7,1.24,39,3.4,304.7,308.8,304.9
877.4,1304,20.4,-16.0,7,1.25,38,3.3,304.7,308.8,304.9
876.9,1308,20.3,-16.0,7,1.25,36,3.3,304.7,308.8,304.9
876.4,1313,20.3,-16.0,7,1.26,35,3.3,304.7,308.9,304.9
876.0,1317,20.2,-16.0,7,1.26,34,3.3,304.7,308.9,304.9
875.5,1322,20.2,-15.9,7,1.26,32,3.3,304.7,308.9,305.0
875.1,1326,20.2,-15.9,8,1.27,31,3.3,304.7,308.9,305.0
874.6,1331,20.2,-15.8,8,1.28,29,3.2,304.7,309.0,305.0
874.1,1336,20.1,-15.6,8,1.30,28,3.2,304.8,309.1,305.0
873.6,1341,20.2,-15.3,8,1.33,27,3.2,304.9,309.3,305.1
873.1,1345,20.2,-15.1,8,1.36,25,3.2,304.9,309.5,305.2
872.6,1350,20.2,-15.0,8,1.37,24,3.1,305.0,309.6,305.3
872.1,1355,20.3,-15.1,8,1.36,23,3.1,305.2,309.7,305.4
871.6,1360,20.3,-15.2,8,1.35,22,3.1,305.2,309.7,305.5
871.1,1365,20.3,-15.1,8,1.36,21,3.1,305.3,309.8,305.5
870.6,1370,20.3,-15.0,8,1.37,19,3.0,305.3,309.8,305.5
870.1,1375,20.3,-14.9,8,1.38,18,3.0,305.3,309.9,305.6
869.6,1380,20.2,-14.9,8,1.38,18,3.0,305.3,309.9,305.6
869.1,1385,20.2,-14.9,8,1.39,17,2.9,305.3,310.0,305.6
868.6,1390,20.2,-14.8,8,1.40,16,2.9,305.4,310.0,305.6
868.1,1395,20.1,-14.8,8,1.40,15,2.8,305.4,310.0,305.6
867.6,1400,20.1,-14.8,8,1.40,15,2.8,305.4,310.0,305.7
867.1,1405,20.1,-14.8,8,1.40,14,2.7,305.4,310.0,305.7
866.6,1409,20.0,-14.8,8,1.40,14,2.7,305.4,310.1,305.7
866.2,1414,20.0,-14.8,8,1.40,14,2.6,305.4,310.1,305.7
865.7,1419,20.0,-14.8,8,1.40,14,2.6,305.5,310.1,305.7
865.3,1423,20.0,-14.9,8,1.39,14,2.5,305.5,310.1,305.7
864.8,1427,19.9,-15.0,8,1.38,14,2.5,305.5,310.1,305.7
864.4,1432,19.9,-15.0,8,1.38,14,2.4,305.5,310.1,305.8
863.9,1436,19.9,-15.0,8,1.38,14,2.4,305.5,310.1,305.8
863.5,1441,19.8,-14.9,8,1.39,14,2.3,305.5,310.1,305.8
863.0,1446,19.8,-14.8,8,1.41,14,2.2,305.5,310.2,305.8
862.5,1450,19.8,-14.7,9,1.42,14,2.2,305.6,310.3,305.8
862.0,1455,19.7,-14.6,9,1.44,15,2.1,305.6,310.3,305.9
861.5,1460,19.7,-14.5,9,1.45,15,2.1,305.6,310.4,305.9
861.0,1465,19.6,-14.3,9,1.47,15,2.0,305.6,310.4,305.9
860.5,1470,19.6,-14.0,9,1.50,15,2.0,305.6,310.6,305.9
860.0,1475,19.6,-13.7,9,1.55,14,1.9,305.6,310.7,305.9
859.5,1480,19.6,-13.4,10,1.59,14,1.9,305.6,310.9,305.9
859.1,1485,19.5,-13.0,10,1.64,14,1.8,305.7,311.0,306.0
858.6,1490,19.5,-12.7,10,1.68,13,1.8,305.7,311.2,306.0
858.1,1495,19.5,-12.6,10,1.70,12,1.8,305.7,311.3,306.0
857.6,1500,19.4,-12.5,10,1.71,11,1.8,305.7,311.3,306.0
857.1,1504,19.4,-12.3,11,1.74,9,1.7,305.7,311.4,306.0
856.6,1509,19.3,-11.9,11,1.80,8,1.7,305.7,311.6,306.0
856.1,1514,19.3,-11.4,11,1.86,6,1.7,305.7,311.8,306.1
855.7,1519,19.3,-11.2,12,1.90,5,1.7,305.8,312.0,306.1
855.2,1523,19.3,-11.1,12,1.92,3,1.7,305.8,312.1,306.2
854.8,1528,19.3,-11.0,12,1.93,1,1.7,305.8,312.1,306.2
854.3,1533,19.3,-10.9,12,1.94,360,1.8,305.9,312.2,306.2
853.8,1537,19.3,-10.9,12,1.95,359,1.8,305.9,312.3,306.3
853.3,1542,19.3,-11.0,12,1.94,357,1.8,306.0,312.4,306.4
852.9,1547,19.3,-11.0,12,1.93,356,1.9,306.1,312.4,306.4
852.4,1552,19.3,-11.1,12,1.92,356,1.9,306.1,312.4,306.4
851.9,1556,19.3,-11.1,12,1.92,355,2.0,306.1,312.4,306.5
851.5,1561,19.3,-11.0,12,1.94,355,2.0,306.2,312.5,306.5
851.1,1565,19.3,-10.9,12,1.95,355,2.1,306.2,312.6,306.6
850.6,1569,19.3,-10.9,12,1.96,356,2.1,306.3,312.7,306.7
850.2,1574,19.3,-10.8,12,1.97,356,2.2,306.3,312.8,306.7
850.0,1576,19.3,-10.8,12,1.98,358,2.2,306.3,312.8,306.7
849.7,1578,19.3,-10.8,12,1.98,358,2.2,306.4,312.9,306.7
849.3,1583,19.3,-10.6,12,2.00,359,2.3,306.4,313.0,306.8
848.8,1588,19.3,-10.3,12,2.05,360,2.3,306.5,313.2,306.9
848.3,1593,19.4,-9.8,13,2.14,2,2.4,306.6,313.5,307.0
847.7,1599,19.4,-8.9,14,2.30,4,2.5,306.6,314.1,307.1
847.2,1604,19.4,-7.7,15,2.54,6,2.5,306.7,314.9,307.2
846.7,1609,19.3,-6.5,17,2.77,8,2.6,306.7,315.6,307.2
846.2,1614,19.3,-5.7,18,2.95,10,2.7,306.7,316.2,307.3
845.7,1619,19.3,-5.1,19,3.10,12,2.7,306.7,316.6,307.3
845.3,1624,19.2,-4.4,20,3.27,14,2.8,306.8,317.2,307.4
844.8,1629,19.2,-3.7,21,3.43,16,2.9,306.8,317.7,307.4
844.3,1634,19.1,-3.4,22,3.54,19,3.0,306.8,318.0,307.4
843.8,1639,19.1,-3.2,22,3.58,21,3.0,306.8,318.1,307.4
843.3,1644,19.1,-3.2,22,3.58,23,3.1,306.8,318.1,307.4
842.7,1649,19.0,-3.3,22,3.56,24,3.2,306.8,318.1,307.5
842.2,1654,19.0,-3.4,22,3.54,26,3.3,306.8,318.0,307.4
841.7,1660,18.9,-3.4,22,3.53,28,3.4,306.8,318.0,307.5
841.2,1665,18.9,-3.4,22,3.53,30,3.5,306.8,318.0,307.5
840.7,1670,18.8,-3.5,22,3.52,31,3.6,306.8,318.0,307.5
840.2,1675,18.8,-3.5,22,3.53,33,3.6,306.8,318.0,307.5
839.7,1680,18.7,-3.5,22,3.53,34,3.7,306.8,318.0,307.5
839.2,1685,18.7,-3.5,22,3.52,35,3.8,306.8,318.0,307.5
838.7,1690,18.7,-3.5,22,3.52,37,3.8,306.8,318.0,307.5
838.2,1696,18.6,-3.6,22,3.51,38,3.9,306.9,318.0,307.5
837.7,1701,18.6,-3.6,22,3.51,39,3.9,306.9,318.0,307.5
837.2,1706,18.5,-3.5,22,3.52,40,4.0,306.9,318.1,307.5
836.7,1711,18.5,-3.5,22,3.53,41,4.0,306.9,318.1,307.5
836.1,1717,18.4,-3.5,22,3.54,42,4.1,306.9,318.1,307.5
835.6,1722,18.4,-3.5,22,3.55,43,4.1,306.9,318.2,307.6
835.1,1727,18.4,-3.4,23,3.57,43,4.2,306.9,318.2,307.6
834.6,1732,18.3,-3.3,23,3.60,44,4.2,306.9,318.3,307.6
834.2,1737,18.3,-3.2,23,3.61,45,4.2,306.9,318.4,307.6
833.7,1742,18.2,-3.3,23,3.61,45,4.2,306.9,318.4,307.6
833.2,1747,18.2,-3.3,23,3.60,46,4.3,306.9,318.4,307.6
832.7,1751,18.1,-3.3,23,3.59,46,4.3,306.9,318.3,307.6
832.3,1756,18.1,-3.3,23,3.59,46,4.3,306.9,318.3,307.6
831.8,1761,18.1,-3.3,23,3.59,46,4.4,306.9,318.3,307.6
831.3,1766,18.0,-3.3,23,3.60,46,4.4,306.9,318.4,307.6
830.8,1771,18.0,-3.2,23,3.62,46,4.4,307.0,318.5,307.6
830.3,1776,17.9,-3.2,24,3.64,46,4.4,307.0,318.5,307.6
829.9,1781,17.9,-3.2,24,3.65,46,4.5,307.0,318.5,307.6
829.4,1786,17.8,-3.2,24,3.65,45,4.5,306.9,318.5,307.6
828.9,1791,17.8,-3.2,24,3.64,45,4.5,306.9,318.5,307.6
828.4,1796,17.7,-3.3,24,3.63,44,4.6,306.9,318.4,307.6
827.9,1801,17.7,-3.3,24,3.63,44,4.6,307.0,318.5,307.6
827.5,1806,17.6,-3.2,24,3.64,43,4.6,307.0,318.5,307.6
