PRES,HGHT,TEMP,DWPT,RELH,MIXR,DRCT,SPED,THTA,THTE,THTV
1014.2,31,26.7,23.6,83,18.36,40,4.5,298.6,352.3,301.9
1013.8,34,26.5,23.9,86,18.79,34,3.1,298.5,353.4,301.8
1013.2,39,26.2,23.8,86,18.59,32,2.8,298.2,352.5,301.5
1012.5,45,25.9,23.6,88,18.46,32,2.9,298.0,351.8,301.2
1011.7,52,25.5,23.5,89,18.31,32,3.1,297.7,351.0,300.9
1011.1,58,25.2,23.3,89,18.13,33,3.3,297.4,350.1,300.6
1010.5,63,24.9,23.2,90,17.96,33,3.5,297.1,349.3,300.3
1009.9,68,24.6,23.0,91,17.78,34,3.6,297.0,348.5,300.1
1009.3,74,24.6,22.9,90,17.69,34,3.8,296.9,348.2,300.1
1008.7,79,24.6,22.9,90,17.65,34,3.9,297.0,348.2,300.1
1008.1,84,24.5,22.7,90,17.53,35,4.0,296.9,347.8,300.0
1007.5,89,24.3,22.6,90,17.43,36,4.1,296.8,347.4,299.9
1006.9,94,24.2,22.6,91,17.41,36,4.2,296.8,347.3,299.9
1006.3,100,24.2,22.5,91,17.33,37,4.3,296.8,347.0,299.8
1005.7,104,24.1,22.4,90,17.21,38,4.4,296.7,346.6,299.8
1005.2,109,24.0,22.3,91,17.16,39,4.4,296.7,346.4,299.7
1004.6,114,23.9,22.3,91,17.15,40,4.5,296.7,346.4,299.7
1004.1,119,23.9,22.3,91,17.09,41,4.5,296.7,346.2,299.7
1003.6,124,23.8,22.0,90,16.84,42,4.5,296.7,345.5,299.7
1003.0,128,23.8,21.6,87,16.38,43,4.5,296.7,344.2,299.6
1002.5,133,23.8,20.9,84,15.74,44,4.5,296.8,342.4,299.6
1001.9,138,23.9,20.4,81,15.23,46,4.5,296.9,341.0,299.6
1001.4,143,23.9,20.3,80,15.15,47,4.5,296.9,340.9,299.6
1000.8,148,23.8,20.5,81,15.31,48,4.5,296.9,341.3,299.6
1000.2,153,23.8,20.6,82,15.47,50,4.5,296.9,341.8,299.7
1000.0,155,23.8,20.6,83,15.48,51,4.5,296.9,341.8,299.7
999.6,158,23.7,20.6,83,15.49,51,4.5,296.9,341.8,299.7
999.0,163,23.7,20.6,83,15.46,52,4.5,296.9,341.7,299.7
998.5,168,23.7,20.5,83,15.40,54,4.5,296.9,341.6,299.7
997.9,173,23.6,20.5,83,15.37,55,4.4,296.9,341.5,299.7
997.3,179,23.6,20.4,83,15.32,56,4.4,296.9,341.4,299.7
996.7,184,23.5,20.4,82,15.28,58,4.4,297.0,341.3,299.7
996.1,189,23.5,20.3,82,15.26,59,4.4,297.0,341.2,299.7
995.6,193,23.5,20.3,83,15.27,60,4.4,297.0,341.3,299.7
995.1,198,23.4,20.4,83,15.33,61,4.4,297.0,341.5,299.7
994.5,203,23.4,20.5,84,15.49,62,4.4,297.0,341.9,299.8
994.0,208,23.3,20.8,85,15.70,64,4.4,297.0,342.6,299.8
993.4,212,23.3,20.9,87,15.89,65,4.4,297.0,343.1,299.8
992.9,217,23.2,21.0,87,15.95,66,4.4,297.0,343.2,299.8
992.3,222,23.2,20.9,87,15.88,66,4.4,297.0,343.0,299.8
991.8,227,23.1,20.8,87,15.76,67,4.4,297.0,342.7,299.8
991.2,232,23.1,20.7,86,15.67,68,4.4,297.0,342.4,299.8
990.7,237,23.0,20.7,87,15.68,69,4.5,297.0,342.4,299.7
990.2,241,23.0,20.7,87,15.73,70,4.5,297.0,342.6,299.8
989.7,245,22.9,20.8,88,15.80,71,4.5,297.0,342.8,299.8
989.2,250,22.9,20.8,88,15.85,72,4.5,297.0,342.9,299.8
988.7,254,22.9,20.8,88,15.88,73,4.5,297.0,343.0,299.8
988.3,258,22.8,20.9,89,15.93,74,4.5,297.0,343.2,299.8
987.8,262,22.8,20.9,89,15.97,74,4.5,297.0,343.4,299.9
987.3,267,22.8,20.9,89,16.00,75,4.5,297.1,343.5,299.9
986.8,271,22.8,20.9,89,16.01,76,4.6,297.1,343.6,300.0
986.3,276,22.8,20.9,89,16.01,77,4.6,297.2,343.6,300.0
985.8,280,22.8,20.9,89,16.00,78,4.6,297.2,343.6,300.0
985.3,284,22.8,20.9,89,15.98,79,4.6,297.2,343.6,300.1
984.8,289,22.8,20.8,89,15.93,80,4.6,297.2,343.5,300.1
984.3,293,22.8,20.8,89,15.90,81,4.6,297.3,343.5,300.1
983.9,297,22.8,20.8,88,15.88,82,4.6,297.3,343.4,300.1
983.4,301,22.8,20.7,88,15.85,83,4.6,297.4,343.4,300.2
983.0,305,22.8,20.7,88,15.79,84,4.5,297.4,343.3,300.2
982.6,309,22.8,20.6,88,15.76,85,4.5,297.4,343.2,300.2
982.2,312,22.8,20.6,88,15.76,86,4.5,297.5,343.3,300.3
981.7,316,22.8,20.6,88,15.77,87,4.5,297.5,343.3,300.3
981.3,320,22.7,20.6,88,15.77,87,4.4,297.5,343.3,300.3
980.9,323,22.7,20.6,88,15.76,88,4.4,297.5,343.3,300.3
980.5,327,22.7,20.6,88,15.76,88,4.4,297.5,343.3,300.3
980.1,331,22.6,20.6,88,15.76,88,4.4,297.5,343.3,300.3
979.6,335,22.6,20.6,88,15.74,88,4.3,297.5,343.2,300.3
979.2,339,22.6,20.5,88,15.70,88,4.3,297.5,343.1,300.3
978.8,342,22.5,20.4,88,15.64,88,4.2,297.5,343.0,300.3
978.3,346,22.5,20.4,88,15.61,87,4.2,297.5,342.9,300.3
977.9,350,22.5,20.4,88,15.59,86,4.2,297.5,342.8,300.3
977.4,355,22.4,20.3,88,15.57,86,4.2,297.5,342.8,300.3
976.9,359,22.4,20.3,88,15.55,85,4.2,297.6,342.8,300.3
976.4,363,22.4,20.3,88,15.50,84,4.2,297.6,342.7,300.3
975.9,368,22.4,20.2,87,15.41,83,4.2,297.6,342.4,300.4
975.4,373,22.4,20.0,86,15.30,81,4.2,297.7,342.2,300.4
974.9,377,22.4,20.0,86,15.25,80,4.2,297.7,342.1,300.4
974.3,382,22.4,20.0,86,15.26,79,4.2,297.8,342.2,300.5
973.8,387,22.4,20.0,86,15.29,78,4.3,297.8,342.3,300.5
973.3,391,22.3,20.0,87,15.32,77,4.4,297.8,342.4,300.5
972.8,396,22.3,20.0,87,15.33,76,4.4,297.8,342.4,300.5
972.3,400,22.3,20.0,87,15.33,75,4.5,297.8,342.4,300.5
971.8,405,22.2,20.0,87,15.36,74,4.6,297.8,342.5,300.5
971.4,409,22.2,20.1,88,15.42,74,4.7,297.8,342.7,300.5
970.9,413,22.1,20.2,89,15.49,73,4.8,297.8,342.9,300.5
970.4,417,22.1,20.2,89,15.52,73,4.9,297.8,343.0,300.6
969.9,422,22.0,20.2,89,15.50,73,5.0,297.8,342.9,300.5
969.5,426,22.0,20.1,89,15.47,73,5.1,297.8,342.8,300.5
969.0,430,22.0,20.1,89,15.47,73,5.2,297.8,342.8,300.5
968.5,434,21.9,20.1,89,15.49,74,5.3,297.8,342.9,300.6
968.1,438,21.9,20.1,90,15.50,74,5.4,297.8,342.9,300.5
967.6,442,21.9,20.1,90,15.53,75,5.5,297.8,343.0,300.6
967.2,446,21.8,20.2,90,15.55,76,5.6,297.8,343.1,300.6
966.7,450,21.8,20.2,90,15.57,76,5.7,297.8,343.1,300.6
966.3,454,21.8,20.2,91,15.56,77,5.8,297.8,343.1,300.6
965.9,458,21.7,20.1,91,15.54,78,5.9,297.8,343.1,300.6
965.4,463,21.7,20.1,90,15.51,79,5.9,297.8,343.0,300.6
964.9,467,21.7,20.0,90,15.47,80,6.0,297.8,342.9,300.6
964.5,471,21.6,20.0,90,15.41,81,6.0,297.9,342.7,300.6
964.0,475,21.6,19.9,90,15.34,82,6.1,297.9,342.6,300.6
963.5,479,21.6,19.8,90,15.27,83,6.1,297.9,342.4,300.6
963.0,484,21.6,19.7,89,15.22,84,6.1,297.9,342.2,300.6
962.5,488,21.6,19.7,89,15.17,84,6.2,297.9,342.1,300.6
962.0,493,21.5,19.6,89,15.13,85,6.2,297.9,342.0,300.6
961.5,497,21.5,19.6,89,15.07,86,6.2,298.0,341.9,300.7
961.0,502,21.5,19.5,89,15.02,87,6.2,298.0,341.7,300.7
960.5,507,21.4,19.5,88,14.98,88,6.1,298.0,341.7,300.7
960.0,511,21.4,19.4,88,14.95,88,6.1,298.0,341.6,300.7
959.5,516,21.4,19.4,88,14.94,89,6.1,298.0,341.6,300.7
959.0,520,21.4,19.4,88,14.92,90,6.1,298.1,341.6,300.7
958.5,525,21.3,19.3,88,14.90,90,6.0,298.1,341.5,300.7
958.0,529,21.3,19.3,88,14.88,91,6.0,298.1,341.5,300.7
957.5,534,21.3,19.3,89,14.88,92,5.9,298.1,341.5,300.7
957.0,538,21.2,19.3,89,14.89,92,5.8,298.1,341.5,300.8
956.5,543,21.2,19.3,89,14.91,93,5.8,298.1,341.6,300.8
955.9,548,21.1,19.3,89,14.88,93,5.7,298.1,341.5,300.8
955.4,554,21.1,19.2,89,14.80,94,5.6,298.1,341.3,300.8
954.8,559,21.1,19.0,88,14.68,94,5.6,298.1,340.9,300.7
954.2,564,21.0,18.8,87,14.49,94,5.5,298.2,340.4,300.7
953.6,569,21.0,18.6,86,14.29,95,5.4,298.2,339.9,300.7
953.1,574,21.0,18.5,85,14.16,95,5.3,298.2,339.6,300.8
952.5,579,21.0,18.4,85,14.14,95,5.2,298.3,339.6,300.8
952.0,584,21.0,18.5,86,14.22,95,5.1,298.3,339.9,300.9
951.4,589,21.0,18.6,86,14.31,96,5.0,298.4,340.1,300.9
950.9,594,21.0,18.6,86,14.35,96,5.0,298.4,340.3,301.0
950.4,599,21.0,18.6,86,14.33,96,4.9,298.4,340.3,301.0
949.9,603,21.0,18.5,86,14.27,96,4.8,298.5,340.1,301.0
949.4,607,20.9,18.4,85,14.17,96,4.7,298.5,339.9,301.0
949.0,612,20.9,18.3,85,14.07,96,4.6,298.5,339.6,301.0
948.5,616,20.9,18.2,85,14.01,96,4.5,298.5,339.5,301.0
948.1,620,20.9,18.2,84,13.99,96,4.4,298.6,339.5,301.1
947.6,624,20.9,18.1,84,13.96,96,4.3,298.6,339.4,301.1
947.2,628,20.8,18.1,84,13.91,96,4.1,298.6,339.2,301.1
946.7,632,20.8,18.0,84,13.83,96,4.0,298.6,339.1,301.1
946.2,637,20.8,17.9,83,13.77,96,3.9,298.7,338.9,301.1
945.8,641,20.8,17.9,83,13.74,96,3.8,298.7,338.9,301.1
945.3,645,20.8,17.9,83,13.74,96,3.7,298.7,338.9,301.2
944.9,649,20.8,17.8,83,13.72,96,3.6,298.7,338.9,301.2
944.4,654,20.8,17.8,83,13.71,96,3.4,298.7,338.9,301.2
944.0,658,20.7,17.8,83,13.69,96,3.3,298.8,338.8,301.2
943.5,661,20.7,17.8,83,13.68,96,3.2,298.8,338.8,301.2
943.1,665,20.7,17.7,83,13.68,96,3.1,298.8,338.9,301.3
942.7,669,20.7,17.7,83,13.66,96,3.0,298.8,338.8,301.3
942.3,673,20.7,17.7,83,13.65,96,2.9,298.9,338.8,301.3
941.9,676,20.7,17.7,83,13.65,97,2.8,298.9,338.9,301.3
941.5,680,20.7,17.7,83,13.66,97,2.7,298.9,338.9,301.4
941.1,684,20.7,17.7,83,13.68,98,2.6,299.0,339.0,301.4
940.7,688,20.7,17.7,83,13.71,99,2.5,299.0,339.1,301.4
940.2,692,20.6,17.8,84,13.76,100,2.5,299.0,339.3,301.5
939.7,697,20.6,17.9,84,13.82,102,2.4,299.0,339.5,301.5
939.1,702,20.6,17.9,85,13.89,103,2.4,299.1,339.7,301.6
938.6,707,20.6,17.9,85,13.89,105,2.4,299.1,339.8,301.6
938.0,713,20.5,17.9,85,13.85,107,2.3,299.1,339.7,301.6
937.4,718,20.5,17.8,85,13.82,109,2.4,299.1,339.6,301.6
936.8,723,20.5,17.8,84,13.80,110,2.4,299.2,339.6,301.6
936.3,728,20.5,17.7,84,13.74,112,2.4,299.2,339.5,301.7
935.7,734,20.5,17.6,84,13.66,114,2.5,299.2,339.3,301.7
935.2,738,20.5,17.5,83,13.54,116,2.5,299.3,339.0,301.7
934.7,743,20.4,17.3,82,13.43,117,2.6,299.3,338.7,301.7
934.2,747,20.4,17.2,82,13.35,118,2.7,299.3,338.5,301.7
933.8,752,20.4,17.2,82,13.31,119,2.8,299.4,338.4,301.7
933.3,756,20.4,17.1,81,13.27,120,2.9,299.4,338.3,301.8
932.9,760,20.4,17.1,82,13.28,121,3.0,299.4,338.4,301.8
932.5,764,20.4,17.1,82,13.31,122,3.1,299.4,338.5,301.8
932.0,768,20.3,17.2,82,13.33,122,3.2,299.4,338.6,301.8
931.6,772,20.3,17.2,82,13.35,122,3.3,299.4,338.6,301.8
931.1,776,20.3,17.2,82,13.36,122,3.4,299.5,338.7,301.9
930.6,781,20.2,17.2,83,13.38,122,3.5,299.5,338.7,301.9
930.1,785,20.2,17.2,83,13.40,122,3.6,299.5,338.8,301.9
929.6,790,20.2,17.2,83,13.39,122,3.7,299.5,338.8,301.9
929.1,795,20.1,17.1,83,13.33,122,3.7,299.5,338.6,301.9
928.6,799,20.1,17.0,83,13.27,122,3.8,299.5,338.5,301.9
928.1,804,20.1,17.0,82,13.23,122,3.8,299.5,338.4,301.9
927.6,809,20.0,16.9,82,13.21,121,3.9,299.6,338.4,301.9
927.1,813,20.0,16.9,82,13.22,121,3.9,299.6,338.4,301.9
926.6,818,20.0,16.9,83,13.22,121,3.9,299.6,338.4,302.0
926.1,823,19.9,16.9,83,13.21,121,3.9,299.6,338.4,301.9
925.6,827,19.9,16.9,83,13.19,121,3.9,299.6,338.3,301.9
925.1,832,19.8,16.8,83,13.16,121,3.9,299.6,338.2,301.9
925.0,833,19.8,16.8,83,13.16,121,3.9,299.6,338.2,301.9
924.7,837,19.8,16.8,83,13.16,121,3.9,299.6,338.2,302.0
924.2,841,19.8,16.9,83,13.19,121,3.8,299.6,338.3,302.0
923.7,846,19.7,16.9,84,13.20,121,3.8,299.6,338.4,302.0
923.2,851,19.7,16.8,84,13.19,121,3.7,299.6,338.4,302.0
922.7,855,19.7,16.8,84,13.16,121,3.7,299.6,338.3,302.0
922.2,860,19.6,16.8,83,13.12,122,3.6,299.6,338.2,302.0
921.7,864,19.6,16.7,83,13.09,122,3.6,299.6,338.1,302.0
921.2,869,19.6,16.7,83,13.06,122,3.5,299.7,338.1,302.0
920.7,874,19.6,16.6,83,13.05,123,3.5,299.7,338.1,302.0
920.2,878,19.5,16.6,83,13.04,124,3.4,299.7,338.1,302.1
919.7,883,19.5,16.6,83,13.01,124,3.4,299.7,338.0,302.1
919.1,888,19.5,16.5,83,12.97,125,3.4,299.8,337.9,302.1
918.6,893,19.4,16.5,83,12.96,126,3.3,299.8,337.9,302.1
918.1,898,19.4,16.5,83,12.96,126,3.3,299.8,337.9,302.1
917.5,904,19.4,16.5,83,12.96,127,3.3,299.8,338.0,302.2
917.0,909,19.4,16.5,83,12.96,128,3.3,299.9,338.0,302.2
916.4,914,19.3,16.5,83,12.96,128,3.3,299.9,338.0,302.2
915.9,919,19.3,16.5,84,12.97,129,3.4,299.9,338.1,302.2
915.4,923,19.3,16.5,84,12.97,129,3.4,299.9,338.1,302.3
915.0,927,19.3,16.4,84,12.96,130,3.5,299.9,338.1,302.3
914.5,932,19.2,16.5,84,12.98,130,3.5,300.0,338.2,302.3
914.1,936,19.2,16.5,84,13.01,130,3.6,300.0,338.2,302.3
913.7,940,19.2,16.5,84,13.04,130,3.6,300.0,338.3,302.3
913.2,944,19.2,16.5,85,13.05,130,3.7,300.0,338.4,302.3
912.7,948,19.1,16.5,85,13.04,130,3.8,300.0,338.4,302.3
912.2,954,19.1,16.5,85,13.02,131,3.9,300.0,338.4,302.4
911.6,959,19.1,16.4,85,13.00,130,4.0,300.1,338.3,302.4
911.0,965,19.0,16.4,84,12.96,130,4.1,300.1,338.2,302.4
910.4,971,19.0,16.3,84,12.90,130,4.2,300.1,338.1,302.4
909.8,977,19.0,16.2,84,12.82,130,4.3,300.1,337.9,302.4
909.2,982,18.9,16.1,84,12.76,130,4.4,300.1,337.7,302.4
908.6,988,18.9,16.0,83,12.71,130,4.5,300.1,337.6,302.4
908.0,993,18.9,16.0,83,12.67,130,4.6,300.2,337.5,302.4
907.5,998,18.8,15.9,83,12.65,130,4.7,300.2,337.5,302.5
907.0,1003,18.8,15.9,84,12.66,130,4.8,300.2,337.5,302.5
906.5,1008,18.8,15.9,84,12.67,130,4.9,300.2,337.5,302.5
906.0,1012,18.7,16.0,84,12.70,130,4.9,300.2,337.7,302.5
905.6,1017,18.7,16.0,84,12.73,131,5.0,300.3,337.8,302.6
905.1,1021,18.7,16.0,85,12.77,131,5.1,300.3,337.9,302.6
904.6,1026,18.7,16.1,85,12.79,131,5.2,300.3,338.0,302.6
904.0,1031,18.6,16.1,85,12.81,131,5.3,300.3,338.0,302.6
903.5,1036,18.6,16.0,85,12.80,131,5.3,300.3,338.0,302.6
903.0,1041,18.5,16.0,85,12.75,131,5.4,300.3,337.9,302.6
902.4,1046,18.5,15.9,85,12.71,131,5.4,300.3,337.7,302.6
901.9,1051,18.4,15.9,85,12.66,131,5.5,300.3,337.6,302.6
901.4,1056,18.4,15.8,85,12.65,131,5.6,300.3,337.6,302.6
901.0,1060,18.3,15.9,85,12.68,131,5.6,300.3,337.7,302.6
900.5,1065,18.3,15.9,86,12.70,131,5.7,300.3,337.7,302.6
900.0,1069,18.2,15.9,86,12.71,131,5.7,300.3,337.8,302.6
899.6,1074,18.2,15.8,86,12.69,130,5.8,300.3,337.7,302.6
899.1,1078,18.2,15.8,86,12.68,130,5.8,300.3,337.7,302.6
898.7,1082,18.1,15.8,86,12.69,130,5.8,300.3,337.7,302.6
898.2,1087,18.1,15.9,87,12.72,129,5.9,300.3,337.8,302.6
897.7,1091,18.1,15.9,87,12.75,129,5.9,300.3,337.9,302.6
897.2,1096,18.0,15.9,87,12.76,128,5.9,300.3,338.0,302.6
896.8,1101,18.0,15.9,88,12.77,128,6.0,300.3,338.0,302.6
896.3,1105,17.9,15.9,88,12.76,127,6.0,300.3,338.0,302.6
895.8,1110,17.9,15.9,88,12.76,127,6.0,300.3,338.0,302.6
895.3,1115,17.9,15.8,88,12.75,126,6.1,300.4,337.9,302.7
894.8,1120,17.8,15.8,88,12.76,125,6.1,300.4,338.0,302.7
894.3,1124,17.8,15.9,89,12.79,125,6.1,300.4,338.1,302.7
893.8,1129,17.8,15.9,89,12.82,124,6.1,300.4,338.2,302.7
893.2,1134,17.7,15.9,89,12.84,123,6.1,300.4,338.2,302.7
892.7,1140,17.6,15.9,89,12.81,122,6.1,300.4,338.2,302.7
892.2,1145,17.6,15.8,89,12.75,122,6.1,300.4,338.0,302.7
891.6,1150,17.6,15.7,89,12.70,121,6.1,300.4,337.8,302.7
891.2,1154,17.5,15.7,89,12.67,120,6.1,300.4,337.8,302.7
890.7,1159,17.5,15.7,89,12.69,119,6.2,300.4,337.9,302.7
890.2,1163,17.5,15.7,89,12.72,118,6.2,300.5,338.0,302.7
889.8,1168,17.4,15.8,90,12.76,117,6.2,300.4,338.1,302.7
889.3,1172,17.4,15.8,90,12.80,116,6.2,300.5,338.2,302.8
888.9,1176,17.4,15.8,91,12.83,115,6.2,300.5,338.3,302.8
888.4,1181,17.3,15.8,91,12.82,115,6.2,300.5,338.3,302.8
888.0,1185,17.3,15.8,91,12.81,114,6.2,300.5,338.3,302.8
887.5,1189,17.3,15.8,91,12.81,113,6.2,300.5,338.3,302.8
887.1,1194,17.2,15.8,91,12.82,112,6.2,300.5,338.3,302.8
886.6,1198,17.2,15.8,91,12.82,112,6.2,300.5,338.3,302.8
886.1,1203,17.2,15.8,92,12.83,111,6.2,300.5,338.4,302.8
885.6,1208,17.1,15.8,92,12.84,110,6.2,300.5,338.4,302.8
885.2,1212,17.1,15.8,92,12.83,110,6.2,300.5,338.4,302.8
884.7,1217,17.0,15.7,92,12.80,109,6.3,300.5,338.3,302.8
884.2,1222,17.0,15.7,92,12.79,109,6.3,300.5,338.2,302.8
883.7,1226,17.0,15.7,92,12.77,108,6.3,300.5,338.2,302.8
883.2,1231,16.9,15.6,92,12.76,108,6.4,300.6,338.2,302.9
882.8,1235,16.9,15.6,92,12.75,107,6.4,300.6,338.2,302.9
882.3,1240,17.0,15.6,92,12.74,107,6.5,300.7,338.3,303.0
881.9,1244,17.0,15.6,91,12.71,107,6.5,300.7,338.3,303.0
881.5,1248,17.0,15.5,91,12.67,107,6.6,300.8,338.2,303.1
881.0,1252,17.0,15.4,91,12.63,106,6.7,300.8,338.2,303.1
880.6,1256,17.0,15.4,91,12.62,106,6.7,300.9,338.1,303.1
880.2,1261,17.0,15.4,91,12.61,106,6.8,300.9,338.1,303.1
879.7,1265,16.9,15.4,91,12.61,106,6.9,300.9,338.2,303.2
879.3,1269,16.9,15.4,91,12.63,106,7.0,300.9,338.2,303.2
878.8,1274,16.9,15.4,91,12.64,106,7.1,300.9,338.3,303.2
878.3,1279,16.8,15.4,91,12.65,106,7.1,300.9,338.3,303.2
877.8,1284,16.8,15.4,91,12.65,105,7.2,301.0,338.4,303.3
877.3,1289,16.8,15.4,91,12.64,105,7.3,301.0,338.4,303.3
876.7,1294,16.8,15.4,91,12.64,105,7.4,301.0,338.4,303.3
876.2,1299,16.8,15.4,92,12.64,105,7.5,301.1,338.4,303.4
875.7,1304,16.7,15.4,92,12.64,105,7.5,301.1,338.5,303.4
875.2,1309,16.7,15.3,92,12.63,104,7.6,301.1,338.4,303.4
874.6,1314,16.7,15.3,92,12.61,104,7.7,301.1,338.4,303.4
874.2,1319,16.6,15.3,91,12.57,104,7.8,301.1,338.3,303.4
873.7,1324,16.6,15.2,91,12.53,104,7.8,301.2,338.3,303.4
873.2,1329,16.6,15.1,91,12.49,103,7.9,301.2,338.2,303.5
872.7,1333,16.6,15.1,91,12.47,103,7.9,301.3,338.2,303.5
872.3,1338,16.7,15.1,91,12.47,102,8.0,301.3,338.3,303.6
871.8,1342,16.6,15.1,91,12.50,102,8.1,301.4,338.4,303.6
871.4,1347,16.6,15.2,91,12.53,101,8.1,301.4,338.5,303.7
870.9,1351,16.6,15.2,91,12.55,101,8.2,301.4,338.6,303.7
870.4,1356,16.6,15.2,91,12.54,100,8.2,301.5,338.6,303.7
869.9,1361,16.6,15.1,91,12.50,99,8.3,301.5,338.5,303.8
869.4,1366,16.6,15.0,91,12.47,99,8.3,301.5,338.5,303.8
868.8,1372,16.6,15.0,90,12.44,98,8.4,301.6,338.5,303.9
868.2,1377,16.6,15.0,90,12.42,97,8.4,301.6,338.5,303.9
867.7,1383,16.5,14.9,90,12.40,97,8.4,301.7,338.4,303.9
867.1,1389,16.5,14.9,90,12.38,96,8.5,301.7,338.4,303.9
866.5,1394,16.4,14.9,90,12.35,95,8.5,301.7,338.3,303.9
866.0,1399,16.4,14.8,90,12.33,95,8.5,301.7,338.3,303.9
865.5,1404,16.4,14.8,90,12.33,94,8.5,301.7,338.3,304.0
865.0,1409,16.4,14.8,91,12.35,93,8.5,301.8,338.4,304.0
864.5,1414,16.3,14.9,91,12.40,93,8.5,301.8,338.6,304.0
864.0,1419,16.3,14.9,91,12.43,92,8.5,301.8,338.7,304.1
863.5,1424,16.3,14.9,91,12.43,92,8.5,301.9,338.8,304.1
863.0,1429,16.3,14.8,91,12.39,91,8.5,301.9,338.7,304.2
862.6,1433,16.3,14.8,91,12.38,91,8.5,302.0,338.7,304.2
862.1,1437,16.3,14.9,91,12.44,90,8.5,302.0,339.0,304.3
861.7,1442,16.3,15.0,92,12.53,90,8.5,302.0,339.2,304.3
861.3,1446,16.3,15.1,93,12.60,89,8.4,302.0,339.5,304.3
860.9,1450,16.2,15.1,93,12.66,89,8.4,302.0,339.6,304.3
860.5,1454,16.2,15.2,93,12.69,89,8.3,302.1,339.7,304.4
860.1,1458,16.2,15.2,94,12.70,89,8.3,302.1,339.8,304.4
859.6,1462,16.2,15.2,94,12.74,89,8.2,302.1,339.9,304.4
859.2,1467,16.1,15.3,95,12.81,88,8.2,302.1,340.2,304.4
858.7,1471,16.1,15.4,95,12.88,88,8.1,302.2,340.4,304.5
858.3,1476,16.2,15.3,95,12.87,88,8.1,302.2,340.4,304.6
857.8,1481,16.2,15.2,94,12.77,88,8.0,302.3,340.2,304.6
857.3,1486,16.2,15.1,93,12.68,88,8.0,302.3,340.0,304.6
856.7,1491,16.1,15.0,93,12.63,89,7.9,302.4,339.9,304.6
856.2,1497,16.1,15.0,93,12.59,89,7.9,302.4,339.8,304.6
855.6,1502,16.0,14.9,93,12.51,89,7.9,302.4,339.6,304.6
855.1,1508,16.0,14.7,92,12.38,89,7.8,302.4,339.2,304.6
854.5,1513,16.0,14.4,91,12.20,90,7.8,302.4,338.7,304.6
854.0,1519,16.0,14.2,89,12.02,90,7.8,302.5,338.3,304.6
853.5,1524,16.0,14.1,89,11.93,90,7.7,302.5,338.0,304.7
853.0,1528,15.9,14.1,89,11.92,90,7.7,302.5,338.0,304.7
852.5,1533,15.9,14.0,88,11.88,91,7.7,302.5,338.0,304.7
852.1,1538,15.9,13.9,88,11.80,91,7.7,302.6,337.7,304.7
851.6,1542,15.9,13.8,87,11.72,91,7.7,302.6,337.5,304.7
851.2,1547,15.9,13.7,87,11.69,92,7.7,302.6,337.5,304.8
850.7,1551,15.8,13.7,87,11.69,92,7.7,302.7,337.5,304.8
850.3,1556,15.8,13.7,87,11.69,92,7.7,302.7,337.5,304.8
850.0,1558,15.8,13.7,87,11.68,92,7.7,302.7,337.5,304.8
849.8,1560,15.8,13.7,87,11.67,93,7.7,302.7,337.5,304.8
849.3,1565,15.8,13.6,87,11.60,93,7.7,302.7,337.3,304.8
848.9,1570,15.8,13.4,86,11.49,93,7.8,302.7,337.0,304.8
848.4,1574,15.7,13.3,86,11.42,93,7.8,302.8,336.9,304.9
848.0,1579,15.7,13.3,85,11.39,93,7.8,302.8,336.8,304.9
847.5,1583,15.7,13.3,86,11.41,93,7.8,302.8,336.9,304.9
847.1,1588,15.7,13.4,86,11.47,93,7.8,302.9,337.1,305.0
846.6,1592,15.7,13.5,87,11.60,93,7.9,302.9,337.5,305.0
846.1,1597,15.6,13.8,89,11.80,93,7.9,302.9,338.1,305.0
845.7,1602,15.6,14.1,91,12.06,93,7.9,302.9,338.9,305.1
845.2,1607,15.5,14.4,93,12.33,93,7.9,302.9,339.6,305.1
844.7,1612,15.5,14.7,95,12.57,93,7.9,302.9,340.3,305.2
844.2,1617,15.4,15.0,97,12.80,93,7.9,302.9,341.0,305.2
843.7,1621,15.4,15.2,99,12.95,93,7.9,302.9,341.5,305.2
843.2,1626,15.3,15.2,99,13.01,92,7.9,302.9,341.6,305.3
842.8,1631,15.3,15.2,99,13.02,92,7.9,302.9,341.7,305.3
842.4,1635,15.3,15.2,99,13.00,92,7.9,302.9,341.7,305.3
841.9,1640,15.3,15.1,99,12.94,92,7.9,303.0,341.5,305.3
841.5,1644,15.3,15.0,99,12.88,92,7.9,303.0,341.4,305.3
841.1,1648,15.2,15.0,98,12.84,91,7.9,303.0,341.3,305.3
840.7,1652,15.2,15.0,98,12.83,91,7.9,303.0,341.3,305.4
840.4,1656,15.2,14.9,98,12.79,91,7.9,303.1,341.2,305.4
839.9,1660,15.2,14.7,97,12.65,91,7.9,303.1,340.9,305.4
839.5,1664,15.3,14.4,95,12.37,91,7.9,303.2,340.1,305.4
839.1,1668,15.3,14.0,92,12.07,91,7.9,303.3,339.3,305.5
838.6,1673,15.3,13.9,91,11.96,91,7.9,303.3,339.1,305.5
838.2,1677,15.3,13.9,91,11.96,91,7.9,303.3,339.1,305.5
837.8,1682,15.3,13.8,91,11.95,91,7.9,303.4,339.1,305.5
837.3,1686,15.2,13.8,91,11.91,91,7.9,303.4,339.0,305.6
836.9,1691,15.2,13.7,91,11.87,91,7.9,303.4,338.9,305.6
