PRES,HGHT,TEMP,DWPT,RELH,MIXR,DRCT,SPED,THTA,THTE,THTV
1012.1,31,24.1,22.5,91,17.25,74,6.3,296.2,346.1,299.3
1011.3,37,24.5,22.4,88,17.16,74,4.0,296.7,346.5,299.8
1010.9,41,24.6,22.4,88,17.15,74,3.7,296.8,346.6,299.9
1010.3,46,24.6,22.4,87,17.09,74,3.8,296.9,346.5,299.9
1009.5,53,24.6,22.3,87,16.98,74,4.1,297.0,346.2,300.0
1008.7,60,24.6,22.2,86,16.91,74,4.5,297.0,346.1,300.0
1008.1,66,24.6,22.1,86,16.85,75,4.8,297.1,346.0,300.1
1007.4,71,24.6,22.0,86,16.76,75,5.1,297.1,345.7,300.1
1006.7,77,24.5,21.9,86,16.69,75,5.4,297.1,345.6,300.1
1006.1,83,24.5,21.9,86,16.69,75,5.7,297.1,345.6,300.1
1005.4,89,24.4,21.9,86,16.69,75,5.9,297.1,345.5,300.1
1004.7,95,24.3,21.9,86,16.65,75,6.2,297.1,345.4,300.0
1004.0,101,24.3,21.8,86,16.62,76,6.4,297.1,345.3,300.0
1003.3,107,24.2,21.8,86,16.62,76,6.7,297.1,345.3,300.1
1002.6,113,24.2,21.8,87,16.64,76,6.9,297.1,345.4,300.1
1001.9,120,24.1,21.8,87,16.63,76,7.2,297.1,345.4,300.0
1001.2,126,24.0,21.8,87,16.60,76,7.4,297.1,345.3,300.0
1000.5,132,24.0,21.7,87,16.58,76,7.6,297.1,345.2,300.0
1000.0,136,24.0,21.7,87,16.57,76,7.6,297.1,345.2,300.0
999.8,138,23.9,21.7,87,16.56,76,7.8,297.1,345.2,300.0
999.1,144,23.9,21.7,87,16.54,76,7.9,297.1,345.1,300.0
998.5,150,23.8,21.6,87,16.50,76,8.1,297.1,345.0,300.0
997.8,156,23.8,21.5,87,16.43,76,8.3,297.1,344.8,300.0
997.1,161,23.7,21.4,87,16.32,76,8.4,297.1,344.4,300.0
996.5,167,23.7,21.4,87,16.27,77,8.5,297.1,344.3,300.0
995.9,173,23.6,21.4,87,16.31,77,8.7,297.1,344.5,300.0
995.2,178,23.6,21.4,88,16.32,77,8.8,297.1,344.5,300.0
994.6,184,23.5,21.3,87,16.24,77,8.9,297.1,344.3,300.0
994.0,189,23.5,21.2,87,16.14,77,8.9,297.2,344.1,300.1
993.5,194,23.5,21.2,87,16.13,77,9.0,297.2,344.1,300.1
992.9,199,23.5,21.2,87,16.18,77,9.1,297.3,344.3,300.1
992.4,203,23.5,21.3,87,16.23,78,9.1,297.3,344.4,300.2
991.9,208,23.5,21.3,88,16.26,78,9.2,297.3,344.5,300.2
991.4,212,23.4,21.3,88,16.30,78,9.2,297.3,344.7,300.2
990.9,217,23.4,21.4,88,16.37,79,9.3,297.3,344.9,300.2
990.4,221,23.4,21.4,89,16.43,79,9.3,297.3,345.1,300.3
989.8,226,23.4,21.4,89,16.46,79,9.3,297.4,345.2,300.3
989.3,231,23.3,21.4,89,16.47,80,9.3,297.4,345.2,300.3
988.7,236,23.2,21.4,90,16.47,80,9.3,297.4,345.2,300.3
988.0,242,23.2,21.4,90,16.46,81,9.3,297.3,345.2,300.3
987.4,247,23.1,21.4,90,16.44,81,9.3,297.3,345.1,300.2
986.8,253,23.1,21.3,90,16.42,82,9.3,297.3,345.0,300.2
986.2,258,23.0,21.3,90,16.41,82,9.3,297.3,345.0,300.3
985.6,263,23.0,21.3,90,16.42,82,9.3,297.4,345.1,300.3
985.1,268,23.0,21.3,90,16.41,83,9.3,297.4,345.0,300.3
984.5,273,22.9,21.3,91,16.39,83,9.3,297.4,345.0,300.3
984.0,278,22.9,21.2,91,16.35,84,9.3,297.4,344.9,300.3
983.5,282,22.8,21.2,91,16.33,84,9.3,297.4,344.8,300.3
983.0,287,22.7,21.2,91,16.33,85,9.3,297.3,344.8,300.2
982.5,291,22.7,21.2,91,16.34,85,9.2,297.4,344.8,300.3
982.0,296,22.7,21.2,91,16.33,85,9.2,297.4,344.8,300.3
981.5,300,22.7,21.1,91,16.30,85,9.2,297.4,344.8,300.3
981.0,305,22.6,21.1,91,16.30,86,9.2,297.4,344.8,300.3
980.5,309,22.6,21.1,91,16.30,86,9.1,297.4,344.8,300.3
979.9,314,22.6,21.1,92,16.31,86,9.1,297.4,344.8,300.3
979.4,319,22.5,21.1,92,16.30,86,9.1,297.4,344.8,300.3
978.8,324,22.5,21.1,92,16.26,86,9.1,297.5,344.7,300.3
978.3,329,22.5,21.0,91,16.17,86,9.0,297.5,344.5,300.4
977.7,334,22.5,20.9,91,16.08,86,9.0,297.5,344.3,300.4
977.1,339,22.4,20.8,90,16.00,86,9.0,297.5,344.1,300.4
976.5,345,22.4,20.6,90,15.88,87,8.9,297.6,343.8,300.4
975.9,350,22.4,20.5,89,15.75,87,8.9,297.6,343.5,300.4
975.3,355,22.4,20.4,89,15.67,87,8.9,297.7,343.3,300.5
974.7,361,22.4,20.4,88,15.63,87,8.8,297.7,343.2,300.5
974.1,366,22.3,20.3,89,15.61,87,8.8,297.7,343.1,300.5
973.6,371,22.3,20.3,89,15.61,87,8.8,297.7,343.1,300.5
972.9,376,22.3,20.3,89,15.61,87,8.8,297.7,343.2,300.5
972.3,382,22.2,20.3,89,15.60,87,8.8,297.7,343.2,300.5
971.7,388,22.2,20.3,89,15.57,87,8.8,297.8,343.1,300.5
971.0,394,22.1,20.2,89,15.53,87,8.8,297.8,343.0,300.5
970.3,400,22.1,20.2,89,15.50,87,8.8,297.8,342.9,300.6
969.7,406,22.1,20.1,89,15.46,87,8.8,297.8,342.8,300.6
969.0,412,22.0,20.1,89,15.43,87,8.8,297.8,342.8,300.6
968.3,418,22.0,20.0,89,15.39,87,8.8,297.8,342.6,300.6
967.7,424,21.9,20.0,89,15.38,87,8.8,297.8,342.6,300.6
967.1,429,21.9,20.0,89,15.40,87,8.8,297.9,342.7,300.6
966.4,435,21.8,20.0,89,15.44,87,8.8,297.9,342.9,300.6
965.8,441,21.8,20.0,90,15.45,87,8.8,297.9,342.9,300.7
965.2,446,21.8,20.0,90,15.43,87,8.9,297.9,342.9,300.7
964.5,452,21.7,20.0,90,15.41,87,8.9,297.9,342.8,300.7
963.8,458,21.7,19.9,90,15.38,87,8.9,298.0,342.8,300.7
963.1,465,21.7,19.9,90,15.35,87,8.9,298.0,342.7,300.7
962.4,471,21.6,19.9,90,15.33,87,8.9,298.0,342.7,300.7
961.7,477,21.5,19.8,90,15.31,87,8.9,298.0,342.6,300.7
961.0,484,21.5,19.8,90,15.28,87,8.9,298.0,342.5,300.7
960.3,490,21.4,19.7,90,15.25,87,8.9,298.0,342.4,300.7
959.6,496,21.4,19.7,90,15.26,87,8.9,298.0,342.5,300.8
959.0,503,21.4,19.7,90,15.28,86,8.9,298.1,342.6,300.8
958.3,509,21.3,19.7,90,15.26,86,8.9,298.1,342.6,300.8
957.6,515,21.3,19.7,91,15.24,86,8.8,298.1,342.5,300.8
956.9,521,21.2,19.6,91,15.21,86,8.8,298.1,342.4,300.8
956.3,527,21.2,19.6,91,15.18,86,8.8,298.1,342.4,300.8
955.6,533,21.1,19.6,91,15.18,86,8.7,298.1,342.4,300.8
955.0,539,21.1,19.6,91,15.19,86,8.7,298.1,342.4,300.8
954.3,545,21.0,19.6,91,15.19,85,8.6,298.1,342.4,300.8
953.7,550,21.0,19.6,92,15.19,85,8.6,298.2,342.4,300.9
953.1,556,21.0,19.6,92,15.21,85,8.5,298.2,342.6,300.9
952.5,561,21.0,19.6,92,15.22,85,8.4,298.2,342.6,300.9
951.9,567,20.9,19.6,92,15.23,84,8.4,298.3,342.7,301.0
951.3,572,20.9,19.6,92,15.25,84,8.3,298.3,342.7,301.0
950.7,578,20.8,19.6,93,15.27,84,8.2,298.3,342.8,301.0
950.0,584,20.8,19.6,93,15.27,84,8.2,298.3,342.8,301.0
949.4,590,20.7,19.5,93,15.24,83,8.1,298.2,342.7,301.0
948.8,596,20.7,19.5,93,15.20,83,8.0,298.3,342.6,301.0
948.1,601,20.6,19.4,93,15.17,83,8.0,298.3,342.5,301.0
947.5,607,20.6,19.4,93,15.14,82,7.9,298.3,342.4,301.0
946.9,612,20.5,19.4,93,15.13,82,7.8,298.3,342.4,301.0
946.4,618,20.5,19.4,94,15.13,81,7.8,298.3,342.4,301.0
945.8,623,20.4,19.4,94,15.13,81,7.7,298.3,342.4,301.0
945.2,628,20.4,19.4,94,15.13,81,7.6,298.3,342.4,301.0
944.6,633,20.3,19.4,94,15.14,80,7.6,298.3,342.4,301.0
944.0,639,20.3,19.4,94,15.15,80,7.5,298.3,342.5,301.0
943.5,644,20.2,19.4,95,15.16,79,7.5,298.3,342.5,301.0
942.9,649,20.2,19.3,95,15.16,79,7.4,298.3,342.5,301.0
942.3,655,20.1,19.3,95,15.16,78,7.4,298.3,342.5,301.0
941.7,660,20.1,19.3,95,15.16,78,7.3,298.3,342.6,301.0
941.2,665,20.1,19.3,96,15.16,78,7.3,298.3,342.5,301.0
940.6,671,20.0,19.3,96,15.15,77,7.2,298.3,342.5,301.0
940.0,676,19.9,19.3,96,15.13,77,7.1,298.3,342.5,301.0
939.4,681,19.9,19.3,96,15.13,77,7.1,298.3,342.4,301.0
938.8,687,19.8,19.3,97,15.15,76,7.0,298.3,342.5,301.0
938.3,692,19.8,19.3,97,15.20,76,7.0,298.3,342.7,301.0
937.7,698,19.8,19.4,98,15.26,76,6.9,298.3,342.9,301.1
937.1,703,19.7,19.4,98,15.31,76,6.9,298.4,343.1,301.1
936.4,709,19.7,19.4,98,15.33,75,6.8,298.4,343.2,301.2
935.8,714,19.7,19.4,98,15.30,75,6.8,298.4,343.1,301.2
935.2,720,19.6,19.3,98,15.25,75,6.8,298.4,343.0,301.2
934.6,725,19.6,19.3,98,15.23,75,6.7,298.4,342.9,301.2
934.1,731,19.5,19.2,98,15.20,75,6.7,298.4,342.8,301.2
933.5,736,19.5,19.2,98,15.18,75,6.7,298.5,342.8,301.2
932.9,741,19.6,19.2,98,15.16,75,6.7,298.6,342.8,301.3
932.4,747,19.5,19.1,98,15.14,75,6.7,298.6,342.8,301.3
931.8,752,19.5,19.1,98,15.14,75,6.7,298.6,342.9,301.3
931.2,757,19.5,19.1,98,15.13,76,6.7,298.7,342.9,301.4
930.7,762,19.5,19.0,97,15.04,76,6.7,298.7,342.6,301.4
930.1,768,19.5,18.8,96,14.88,76,6.8,298.7,342.2,301.4
929.5,773,19.5,18.7,95,14.74,76,6.8,298.8,341.9,301.4
928.9,779,19.5,18.6,95,14.70,77,6.9,298.9,341.8,301.5
928.3,784,19.5,18.7,95,14.74,77,6.9,298.9,342.0,301.5
927.7,790,19.4,18.7,95,14.78,78,7.0,298.9,342.2,301.6
927.1,795,19.4,18.7,96,14.81,78,7.1,298.9,342.3,301.6
926.6,801,19.3,18.7,96,14.82,78,7.2,298.9,342.3,301.6
926.0,806,19.3,18.7,97,14.84,79,7.3,298.9,342.3,301.6
925.4,811,19.2,18.8,97,14.89,79,7.4,298.9,342.5,301.6
925.0,815,19.2,18.8,97,14.91,79,7.4,298.9,342.6,301.6
924.8,817,19.2,18.8,97,14.93,80,7.5,299.0,342.6,301.6
924.3,822,19.2,18.8,98,14.93,80,7.6,299.0,342.7,301.6
923.7,827,19.2,18.7,97,14.90,81,7.7,299.0,342.6,301.7
923.1,833,19.1,18.7,97,14.87,81,7.8,299.0,342.6,301.7
922.5,838,19.1,18.7,98,14.90,82,7.9,299.1,342.7,301.8
921.9,844,19.1,18.8,98,14.95,82,8.0,299.1,342.9,301.8
921.3,849,19.1,18.8,98,14.98,83,8.1,299.2,343.0,301.8
920.8,855,19.1,18.8,99,15.03,83,8.2,299.2,343.2,301.9
920.2,860,19.0,18.9,99,15.06,84,8.3,299.2,343.3,301.9
919.6,865,19.0,18.8,99,15.06,85,8.3,299.3,343.4,302.0
919.1,871,19.0,18.8,98,15.01,85,8.4,299.3,343.3,302.0
918.5,876,19.0,18.7,98,14.94,86,8.5,299.4,343.2,302.0
917.9,881,19.0,18.6,97,14.89,86,8.6,299.4,343.1,302.1
917.3,887,19.1,18.6,97,14.85,87,8.6,299.5,343.0,302.2
916.7,893,19.0,18.6,97,14.83,88,8.7,299.5,343.0,302.2
916.1,898,19.0,18.5,97,14.82,88,8.7,299.6,343.1,302.2
915.5,904,19.0,18.5,97,14.81,89,8.7,299.6,343.1,302.3
915.0,909,19.0,18.5,97,14.79,89,8.8,299.6,343.1,302.3
914.4,915,19.0,18.4,97,14.76,90,8.8,299.7,343.0,302.3
913.8,920,19.0,18.4,97,14.76,90,8.8,299.7,343.1,302.4
913.3,925,18.9,18.4,97,14.78,91,8.8,299.7,343.1,302.4
912.7,931,18.9,18.5,97,14.83,91,8.8,299.8,343.3,302.4
912.1,936,18.9,18.5,98,14.84,92,8.8,299.8,343.4,302.4
911.5,941,18.8,18.4,98,14.81,92,8.9,299.8,343.3,302.5
911.0,947,18.8,18.4,98,14.76,93,8.8,299.8,343.1,302.4
910.4,952,18.7,18.3,98,14.71,93,8.8,299.8,343.0,302.4
909.8,958,18.6,18.2,98,14.65,93,8.8,299.8,342.8,302.4
909.3,963,18.6,18.2,98,14.60,94,8.8,299.8,342.6,302.4
908.7,968,18.5,18.1,98,14.58,94,8.8,299.8,342.6,302.4
908.2,973,18.5,18.1,98,14.57,94,8.8,299.8,342.6,302.4
907.7,978,18.4,18.2,98,14.60,94,8.7,299.8,342.6,302.4
907.2,982,18.4,18.2,99,14.64,94,8.7,299.8,342.8,302.4
906.7,987,18.4,18.2,99,14.67,94,8.7,299.8,342.9,302.4
906.3,991,18.3,18.2,99,14.67,94,8.6,299.8,342.9,302.4
905.8,996,18.3,18.2,99,14.66,94,8.6,299.8,342.9,302.4
905.3,1000,18.3,18.1,99,14.62,94,8.5,299.8,342.8,302.4
904.9,1005,18.2,18.1,99,14.57,94,8.5,299.8,342.6,302.4
904.4,1010,18.2,18.0,99,14.52,94,8.4,299.8,342.5,302.4
903.9,1014,18.2,18.0,99,14.48,93,8.3,299.8,342.4,302.4
903.4,1019,18.1,17.9,99,14.44,93,8.2,299.9,342.3,302.5
902.9,1024,18.1,17.9,98,14.40,93,8.1,299.9,342.2,302.5
902.4,1028,18.1,17.8,98,14.37,92,8.1,299.9,342.1,302.5
901.9,1033,18.1,17.8,98,14.35,92,8.0,299.9,342.1,302.5
901.4,1038,18.0,17.8,98,14.35,92,7.9,300.0,342.1,302.5
900.9,1042,18.0,17.8,99,14.36,91,7.8,300.0,342.2,302.6
900.4,1047,18.0,17.8,99,14.36,91,7.7,300.0,342.2,302.6
899.9,1052,17.9,17.7,99,14.35,90,7.6,300.0,342.2,302.6
899.3,1058,17.9,17.7,99,14.31,90,7.5,300.0,342.1,302.6
898.8,1063,17.9,17.6,98,14.25,90,7.4,300.0,341.9,302.6
898.3,1068,17.9,17.5,98,14.16,89,7.3,300.1,341.7,302.6
897.7,1073,17.9,17.4,97,14.10,89,7.2,300.1,341.6,302.7
897.2,1078,17.9,17.4,97,14.07,88,7.2,300.2,341.6,302.7
896.6,1083,17.8,17.4,97,14.09,88,7.1,300.2,341.6,302.7
896.1,1088,17.8,17.4,98,14.12,87,7.0,300.2,341.8,302.7
895.5,1094,17.8,17.4,98,14.14,87,7.0,300.2,341.8,302.8
895.0,1099,17.7,17.4,98,14.14,87,6.9,300.2,341.8,302.8
894.4,1105,17.7,17.4,98,14.09,87,6.9,300.2,341.7,302.8
893.8,1110,17.7,17.2,97,13.99,86,6.9,300.3,341.5,302.8
893.2,1116,17.6,17.1,97,13.88,86,6.9,300.3,341.2,302.8
892.7,1121,17.6,17.0,96,13.79,86,6.9,300.4,341.0,302.8
892.1,1127,17.6,16.9,96,13.75,86,6.9,300.4,340.9,302.9
891.5,1133,17.6,16.9,96,13.75,86,6.9,300.4,340.9,302.9
890.9,1138,17.6,16.9,96,13.76,86,6.9,300.5,341.0,302.9
890.4,1143,17.5,16.9,96,13.75,86,6.9,300.5,341.0,302.9
889.8,1149,17.5,16.9,96,13.72,86,7.0,300.5,340.9,303.0
889.3,1154,17.5,16.8,96,13.69,87,7.0,300.5,340.9,303.0
888.8,1159,17.4,16.8,96,13.66,87,7.1,300.5,340.8,303.0
888.3,1164,17.4,16.7,96,13.59,87,7.1,300.6,340.6,303.0
887.8,1169,17.4,16.6,95,13.50,87,7.2,300.6,340.4,303.0
887.3,1174,17.4,16.5,95,13.42,88,7.2,300.6,340.2,303.0
886.7,1178,17.3,16.4,94,13.37,88,7.3,300.6,340.1,303.1
886.2,1183,17.3,16.3,94,13.31,89,7.3,300.7,340.0,303.1
885.7,1188,17.3,16.3,94,13.28,89,7.4,300.7,339.9,303.1
885.2,1193,17.3,16.3,94,13.28,90,7.5,300.7,339.9,303.1
884.7,1198,17.3,16.3,94,13.31,90,7.5,300.8,340.0,303.2
884.1,1204,17.3,16.4,94,13.35,91,7.6,300.8,340.2,303.2
883.6,1209,17.2,16.4,95,13.41,91,7.6,300.8,340.4,303.3
883.1,1214,17.2,16.4,95,13.45,92,7.6,300.8,340.5,303.3
882.5,1219,17.1,16.4,96,13.44,92,7.7,300.8,340.5,303.3
882.0,1225,17.1,16.4,96,13.44,93,7.7,300.8,340.5,303.3
881.5,1229,17.0,16.4,96,13.44,93,7.7,300.8,340.5,303.3
881.0,1234,17.0,16.4,96,13.44,94,7.7,300.8,340.5,303.3
880.5,1239,17.0,16.4,97,13.46,94,7.8,300.9,340.6,303.3
880.0,1244,16.9,16.4,97,13.48,95,7.8,300.9,340.7,303.3
879.5,1248,16.9,16.4,97,13.47,95,7.8,300.9,340.7,303.3
879.1,1253,16.9,16.3,97,13.41,96,7.8,300.9,340.5,303.3
878.6,1258,16.9,16.2,96,13.32,96,7.8,300.9,340.3,303.3
878.1,1262,16.8,16.1,95,13.22,97,7.8,301.0,340.0,303.3
877.6,1267,16.8,16.0,95,13.13,97,7.8,301.0,339.8,303.4
877.2,1271,16.9,16.0,94,13.11,98,7.8,301.1,339.8,303.4
876.7,1276,16.9,16.0,94,13.14,98,7.8,301.1,340.0,303.5
876.3,1280,16.9,16.0,95,13.16,99,7.8,301.2,340.1,303.5
875.8,1284,16.8,16.0,95,13.17,99,7.8,301.2,340.1,303.6
875.4,1289,16.8,16.0,95,13.16,99,7.8,301.2,340.1,303.6
874.9,1293,16.8,16.0,95,13.15,100,7.8,301.2,340.1,303.6
874.5,1298,16.7,15.9,95,13.13,100,7.9,301.2,340.0,303.6
874.0,1303,16.7,15.9,95,13.11,100,7.9,301.2,340.0,303.6
873.5,1307,16.7,15.9,95,13.10,101,7.9,301.2,340.0,303.6
873.0,1313,16.6,15.9,95,13.12,101,7.9,301.2,340.0,303.6
872.4,1318,16.6,15.9,96,13.15,101,7.9,301.3,340.2,303.6
871.8,1324,16.5,16.0,96,13.20,101,7.9,301.3,340.3,303.6
871.2,1329,16.5,16.1,97,13.29,102,7.9,301.3,340.6,303.7
870.6,1335,16.4,16.1,98,13.38,102,7.9,301.3,340.8,303.7
870.0,1341,16.4,16.1,98,13.36,102,7.9,301.3,340.8,303.7
869.5,1347,16.3,16.0,98,13.23,102,8.0,301.3,340.4,303.7
868.9,1352,16.3,15.8,97,13.09,102,8.0,301.3,340.1,303.7
868.4,1358,16.3,15.7,96,13.02,102,8.0,301.3,339.9,303.7
867.8,1363,16.3,15.7,96,13.03,102,8.0,301.4,339.9,303.7
867.3,1368,16.3,15.7,97,13.08,102,8.0,301.4,340.1,303.8
866.8,1373,16.2,15.8,97,13.14,102,8.0,301.4,340.4,303.8
866.3,1378,16.2,15.9,98,13.20,102,8.0,301.5,340.6,303.8
865.9,1382,16.2,16.0,99,13.29,102,7.9,301.5,340.8,303.9
865.4,1387,16.1,16.0,99,13.37,102,7.9,301.5,341.1,303.9
864.9,1392,16.1,16.1,100,13.41,101,7.9,301.5,341.2,303.9
864.4,1396,16.1,16.1,100,13.42,101,7.9,301.5,341.3,304.0
864.0,1401,16.1,16.1,100,13.42,101,7.9,301.6,341.3,304.0
863.5,1406,16.1,16.1,100,13.41,101,7.9,301.6,341.3,304.0
863.0,1411,16.0,16.0,100,13.37,100,7.9,301.6,341.2,304.0
862.5,1415,16.0,15.9,100,13.31,100,7.8,301.6,341.0,304.0
862.0,1420,15.9,15.7,99,13.16,100,7.8,301.6,340.6,304.0
861.5,1425,15.9,15.5,98,12.99,99,7.8,301.6,340.1,304.0
861.0,1430,15.9,15.4,97,12.86,99,7.8,301.6,339.7,304.0
860.5,1435,15.9,15.3,96,12.81,98,7.8,301.7,339.6,304.0
860.0,1441,15.9,15.3,96,12.81,98,7.8,301.7,339.7,304.0
859.4,1446,15.8,15.3,96,12.80,98,7.8,301.8,339.7,304.1
858.9,1451,15.8,15.2,96,12.78,97,7.8,301.8,339.7,304.1
858.4,1456,15.8,15.2,96,12.76,97,7.8,301.8,339.7,304.2
857.9,1462,15.8,15.2,96,12.76,97,7.8,301.9,339.7,304.2
857.3,1467,15.8,15.2,96,12.80,97,7.9,301.9,339.9,304.2
856.8,1472,15.8,15.3,97,12.87,96,7.9,302.0,340.2,304.3
856.3,1477,15.8,15.4,98,12.96,96,7.9,302.0,340.5,304.4
855.8,1482,15.8,15.4,98,13.01,96,7.9,302.1,340.7,304.4
855.4,1486,15.8,15.4,98,12.99,96,8.0,302.1,340.7,304.4
854.9,1491,15.7,15.4,98,12.97,96,8.0,302.1,340.6,304.5
854.4,1496,15.7,15.4,98,12.99,96,8.0,302.1,340.7,304.5
853.9,1501,15.7,15.4,98,13.01,96,8.0,302.1,340.8,304.5
853.4,1506,15.6,15.4,98,12.99,96,8.1,302.2,340.7,304.5
852.8,1511,15.6,15.3,98,12.97,96,8.1,302.2,340.7,304.5
852.3,1517,15.5,15.3,99,12.94,96,8.1,302.2,340.6,304.5
851.8,1522,15.5,15.3,99,12.91,96,8.1,302.2,340.5,304.5
851.3,1527,15.4,15.2,98,12.86,96,8.2,302.2,340.4,304.5
850.8,1532,15.4,15.1,98,12.80,96,8.2,302.2,340.2,304.5
850.3,1537,15.4,15.0,98,12.74,96,8.2,302.2,340.0,304.5
850.0,1540,15.4,15.0,98,12.72,96,8.2,302.2,340.0,304.5
849.8,1542,15.3,15.0,98,12.71,97,8.2,302.2,340.0,304.5
849.4,1546,15.3,15.0,98,12.70,97,8.2,302.2,340.0,304.5
848.9,1551,15.3,14.9,98,12.69,97,8.2,302.3,340.0,304.6
848.5,1555,15.3,14.9,98,12.69,97,8.2,302.3,340.0,304.6
848.0,1560,15.3,14.9,98,12.67,98,8.3,302.3,340.0,304.6
847.5,1565,15.3,14.9,98,12.65,98,8.3,302.4,340.0,304.7
847.0,1570,15.2,14.8,97,12.59,98,8.3,302.4,339.8,304.7
846.5,1575,15.2,14.7,97,12.49,99,8.3,302.4,339.6,304.7
846.0,1580,15.2,14.5,96,12.36,99,8.3,302.4,339.2,304.7
845.4,1586,15.1,14.4,95,12.27,99,8.3,302.5,339.0,304.7
844.9,1591,15.1,14.3,95,12.22,100,8.4,302.5,338.8,304.7
844.4,1596,15.1,14.3,95,12.20,100,8.4,302.5,338.8,304.7
843.9,1601,15.0,14.2,95,12.18,100,8.4,302.5,338.7,304.7
843.4,1607,15.0,14.2,95,12.17,100,8.5,302.5,338.7,304.7
842.9,1612,15.0,14.2,95,12.20,101,8.5,302.5,338.8,304.7
842.3,1617,14.9,14.3,96,12.23,101,8.6,302.5,339.0,304.8
841.8,1622,14.9,14.2,96,12.22,101,8.6,302.5,338.9,304.7
841.3,1628,14.8,14.2,96,12.17,102,8.7,302.5,338.8,304.7
840.8,1633,14.8,14.1,96,12.11,102,8.8,302.5,338.6,304.7
840.3,1638,14.7,14.0,96,12.07,102,8.9,302.5,338.5,304.7
839.8,1643,14.7,14.0,96,12.08,102,9.0,302.6,338.5,304.8
839.3,1648,14.7,14.1,96,12.11,103,9.1,302.6,338.7,304.8
838.8,1652,14.7,14.1,96,12.15,103,9.2,302.6,338.8,304.8
838.4,1657,14.6,14.1,97,12.16,103,9.3,302.7,338.9,304.9
837.9,1662,14.6,14.1,97,12.14,103,9.3,302.7,338.9,304.9
837.4,1667,14.6,14.0,96,12.11,103,9.4,302.7,338.8,304.9
837.0,1671,14.6,14.0,96,12.07,104,9.5,302.8,338.7,305.0
836.5,1676,14.6,13.9,96,12.05,104,9.6,302.8,338.7,305.0
836.0,1681,14.6,14.0,96,12.08,104,9.7,302.8,338.8,305.0
835.5,1686,14.5,14.0,97,12.14,104,9.7,302.8,339.0,305.1
835.0,1691,14.5,14.1,97,12.19,104,9.8,302.9,339.2,305.1
834.5,1697,14.5,14.1,98,12.20,104,9.8,302.9,339.2,305.1
833.9,1702,14.4,14.0,98,12.18,105,9.8,302.9,339.2,305.1
833.4,1707,14.4,14.0,98,12.15,105,9.8,302.9,339.1,305.1
833.0,1712,14.3,14.0,98,12.14,105,9.8,302.9,339.1,305.1
832.5,1717,14.3,14.0,98,12.18,105,9.8,302.9,339.2,305.1
832.1,1721,14.2,14.1,99,12.25,105,9.7,302.9,339.4,305.1
831.6,1726,14.2,14.2,100,12.32,105,9.7,302.9,339.6,305.2
831.2,1730,14.2,14.2,100,12.33,105,9.6,302.9,339.7,305.2
830.8,1734,14.2,14.2,100,12.31,106,9.5,303.0,339.7,305.2
830.3,1739,14.2,14.1,100,12.28,106,9.4,303.0,339.6,305.2
829.9,1743,14.2,14.1,99,12.25,106,9.3,303.0,339.6,305.2
829.5,1747,14.1,14.0,99,12.24,106,9.2,303.0,339.6,305.3
829.1,1752,14.1,14.0,99,12.19,106,9.1,303.1,339.4,305.3
828.6,1756,14.1,13.9,99,12.11,106,9.0,303.1,339.2,305.3
828.2,1761,14.0,13.8,98,12.05,106,8.9,303.1,339.0,305.3
827.7,1765,14.0,13.8,99,12.04,107,8.8,303.1,339.0,305.3
827.3,1770,14.0,13.7,99,12.03,107,8.6,303.1,339.0,305.3
826.9,1774,13.9,13.7,99,12.03,107,8.5,303.1,339.0,305.3
826.4,1779,13.9,13.7,99,12.03,107,8.4,303.1,339.1,305.3
826.0,1783,13.9,13.7,99,12.06,107,8.4,303.2,339.2,305.4
825.6,1787,13.9,13.7,99,12.06,107,8.3,303.2,339.2,305.4
825.1,1792,13.8,13.7,99,12.06,107,8.2,303.2,339.2,305.4
824.7,1797,13.8,13.7,99,12.06,107,8.1,303.2,339.2,305.4
824.2,1801,13.8,13.7,100,12.08,107,8.1,303.3,339.3,305.5
823.7,1806,13.8,13.8,100,12.11,107,8.0,303.3,339.5,305.5
823.2,1811,13.8,13.8,100,12.11,108,8.0,303.4,339.5,305.6
822.7,1817,13.8,13.7,100,12.08,108,8.0,303.4,339.5,305.6
822.2,1822,13.8,13.6,99,12.03,108,8.0,303.4,339.4,305.6
821.7,1827,13.7,13.6,99,12.00,108,8.0,303.4,339.3,305.6
821.1,1833,13.7,13.6,99,11.98,108,8.0,303.4,339.2,305.6
820.6,1838,13.6,13.5,99,11.93,108,8.0,303.4,339.1,305.6
820.1,1844,13.6,13.4,99,11.88,108,8.0,303.5,339.0,305.6
819.5,1850,13.6,13.4,99,11.84,109,8.0,303.5,338.9,305.6
819.0,1855,13.5,13.3,99,11.83,109,8.0,303.5,338.9,305.7
818.5,1861,13.5,13.3,99,11.83,109,8.0,303.5,338.9,305.7
817.9,1866,13.4,13.3,99,11.85,110,8.1,303.5,339.0,305.7
817.4,1871,13.4,13.4,100,11.89,110,8.1,303.6,339.1,305.7
816.9,1877,13.4,13.4,100,11.90,110,8.1,303.6,339.2,305.8
816.3,1882,13.4,13.4,100,11.91,111,8.1,303.6,339.3,305.8
815.8,1888,13.4,13.4,100,11.90,111,8.1,303.7,339.3,305.8
815.3,1894,13.3,13.3,100,11.88,111,8.1,303.7,339.2,305.8
814.7,1899,13.3,13.3,100,11.86,112,8.1,303.7,339.2,305.9
814.2,1905,13.2,13.2,100,11.83,112,8.1,303.7,339.1,305.9
