PRES,HGHT,TEMP,DWPT,RELH,MIXR,DRCT,SPED,THTA,THTE,THTV
1015.7,31,27.4,20.3,65,14.90,40,5.7,299.2,342.9,301.9
1015.4,34,27.0,20.5,67,15.09,47,3.8,298.9,343.1,301.6
1014.9,38,26.4,20.4,69,15.00,51,3.4,298.3,342.1,301.0
1014.1,44,25.6,20.2,72,14.82,53,3.5,297.6,340.7,300.2
1013.3,51,24.9,20.0,74,14.64,53,3.7,297.0,339.5,299.6
1012.8,56,24.6,19.8,75,14.51,53,3.9,296.6,338.7,299.2
1012.4,60,24.5,19.7,75,14.41,53,4.1,296.6,338.3,299.1
1011.8,65,24.4,19.6,74,14.30,53,4.3,296.6,338.0,299.1
1011.3,69,24.4,19.4,74,14.20,53,4.4,296.6,337.7,299.1
1010.7,74,24.3,19.4,74,14.13,53,4.5,296.6,337.5,299.1
1010.2,78,24.3,19.3,74,14.09,54,4.6,296.6,337.4,299.1
1009.7,83,24.2,19.3,74,14.09,54,4.7,296.6,337.4,299.1
1009.2,87,24.2,19.3,74,14.08,54,4.8,296.6,337.4,299.1
1008.7,92,24.3,19.3,73,14.08,55,4.8,296.7,337.6,299.2
1008.1,96,24.4,19.3,73,14.13,55,4.8,296.9,337.9,299.4
1007.6,101,24.5,19.3,73,14.14,55,4.8,297.0,338.1,299.5
1007.0,106,24.4,19.2,73,14.08,56,4.8,297.0,337.9,299.5
1006.4,111,24.2,19.2,73,14.02,56,4.8,296.8,337.5,299.3
1005.8,116,24.0,19.1,74,14.01,56,4.8,296.7,337.3,299.2
1005.3,121,23.9,19.2,75,14.02,56,4.7,296.6,337.3,299.1
1004.7,126,23.9,19.2,75,14.04,57,4.7,296.6,337.3,299.1
1004.1,132,23.8,19.2,75,14.06,57,4.6,296.6,337.4,299.1
1003.5,137,23.7,19.2,76,14.06,57,4.5,296.6,337.3,299.1
1002.9,142,23.7,19.2,76,14.06,58,4.5,296.6,337.4,299.1
1002.2,148,23.7,19.2,76,14.09,58,4.4,296.6,337.5,299.1
1001.6,153,23.6,19.2,76,14.10,58,4.4,296.6,337.5,299.1
1001.0,159,23.5,19.1,76,14.08,58,4.3,296.6,337.4,299.1
1000.4,164,23.5,19.1,76,14.03,58,4.3,296.6,337.2,299.1
1000.0,167,23.4,19.0,76,14.00,58,4.3,296.6,337.1,299.0
999.8,169,23.4,19.0,76,13.99,58,4.2,296.6,337.1,299.1
999.3,174,23.4,19.0,77,13.98,58,4.2,296.6,337.1,299.1
998.8,178,23.3,19.0,77,13.97,58,4.2,296.6,337.1,299.1
998.3,183,23.3,19.0,77,13.97,58,4.2,296.6,337.1,299.1
997.7,187,23.2,19.0,77,13.97,58,4.2,296.6,337.1,299.1
997.2,192,23.2,19.0,77,13.97,58,4.2,296.6,337.1,299.1
996.7,196,23.2,18.9,77,13.95,58,4.2,296.6,337.0,299.1
996.1,201,23.1,18.9,77,13.90,57,4.2,296.6,336.9,299.1
995.6,206,23.1,18.8,77,13.83,57,4.3,296.6,336.7,299.1
995.0,211,23.0,18.7,77,13.80,57,4.3,296.6,336.6,299.0
994.5,216,23.0,18.7,77,13.79,56,4.4,296.6,336.6,299.0
993.9,220,22.9,18.7,77,13.78,56,4.5,296.6,336.5,299.0
993.4,225,22.9,18.7,77,13.78,55,4.5,296.6,336.5,299.1
992.9,229,22.9,18.7,77,13.77,55,4.6,296.6,336.6,299.1
992.5,234,22.8,18.7,77,13.78,55,4.7,296.6,336.6,299.1
992.0,238,22.8,18.7,78,13.81,54,4.7,296.6,336.6,299.1
991.5,242,22.7,18.7,78,13.81,54,4.8,296.6,336.6,299.0
991.1,246,22.7,18.6,78,13.77,54,4.9,296.6,336.5,299.0
990.6,250,22.7,18.6,78,13.74,54,4.9,296.6,336.4,299.1
990.1,254,22.6,18.5,78,13.67,53,5.0,296.6,336.3,299.1
989.6,259,22.6,18.4,77,13.57,53,5.0,296.6,336.0,299.1
989.1,263,22.6,18.3,77,13.49,53,5.1,296.7,335.8,299.1
988.5,268,22.6,18.2,77,13.46,53,5.1,296.7,335.7,299.1
988.0,273,22.5,18.3,77,13.48,53,5.1,296.7,335.8,299.1
987.4,278,22.5,18.3,77,13.53,53,5.1,296.7,335.9,299.1
986.8,283,22.4,18.3,78,13.54,52,5.1,296.7,336.0,299.1
986.2,288,22.3,18.3,78,13.52,52,5.1,296.7,335.9,299.1
985.6,294,22.3,18.2,78,13.47,52,5.1,296.7,335.8,299.1
985.0,299,22.3,18.2,78,13.48,52,5.1,296.7,335.8,299.1
984.4,305,22.2,18.3,79,13.55,52,5.1,296.7,336.0,299.1
983.8,310,22.1,18.3,79,13.60,52,5.1,296.7,336.1,299.1
983.2,316,22.1,18.3,79,13.57,52,5.0,296.7,336.0,299.1
982.6,321,22.0,18.1,79,13.44,52,5.0,296.7,335.6,299.0
981.9,326,22.0,18.0,78,13.31,51,5.0,296.7,335.3,299.0
981.3,332,21.9,17.9,78,13.23,51,5.0,296.7,335.1,299.0
980.8,337,21.9,17.8,78,13.21,51,5.0,296.7,335.0,299.0
980.2,342,21.9,17.8,78,13.22,51,5.0,296.7,335.1,299.0
979.7,346,21.8,17.9,78,13.28,51,5.0,296.7,335.2,299.1
979.2,351,21.8,18.0,79,13.36,50,5.0,296.7,335.5,299.1
978.7,355,21.7,18.1,80,13.44,50,5.0,296.7,335.7,299.1
978.2,360,21.7,18.2,80,13.54,50,5.0,296.7,335.9,299.1
977.7,364,21.6,18.3,81,13.64,49,5.1,296.7,336.2,299.1
977.2,369,21.6,18.3,82,13.69,49,5.1,296.6,336.3,299.1
976.7,373,21.5,18.3,82,13.65,48,5.2,296.6,336.2,299.1
976.2,377,21.5,18.2,82,13.59,48,5.2,296.6,336.0,299.1
975.7,382,21.4,18.2,82,13.62,48,5.3,296.6,336.1,299.0
975.3,386,21.3,18.4,83,13.76,48,5.4,296.6,336.5,299.0
974.8,390,21.3,18.4,84,13.83,48,5.5,296.6,336.7,299.1
974.3,394,21.2,18.5,84,13.88,47,5.6,296.6,336.8,299.1
973.9,398,21.2,18.6,85,13.94,47,5.6,296.6,337.0,299.1
973.5,402,21.1,18.6,85,13.96,47,5.7,296.6,337.0,299.0
973.0,406,21.1,18.6,86,13.98,47,5.8,296.6,337.1,299.0
972.6,410,21.1,18.6,86,14.00,47,5.9,296.6,337.1,299.0
972.2,413,21.0,18.6,86,13.99,47,6.0,296.5,337.1,299.0
971.8,417,21.0,18.6,86,13.97,48,6.1,296.5,337.0,299.0
971.4,420,21.0,18.5,86,13.96,48,6.2,296.6,337.0,299.0
971.0,424,20.9,18.5,86,13.96,48,6.2,296.6,337.0,299.0
970.6,427,20.9,18.5,86,13.94,48,6.3,296.6,337.0,299.0
970.2,431,20.9,18.4,86,13.88,48,6.3,296.6,336.8,299.0
969.8,434,20.9,18.3,85,13.75,49,6.4,296.6,336.5,299.0
969.4,438,20.8,18.1,84,13.62,49,6.4,296.6,336.1,299.0
969.0,441,20.8,18.1,84,13.57,49,6.4,296.6,336.0,299.1
968.6,445,20.8,18.1,84,13.58,50,6.4,296.6,336.0,299.1
968.2,449,20.8,18.0,84,13.53,50,6.4,296.7,335.9,299.1
967.7,453,20.8,17.9,84,13.43,51,6.4,296.7,335.6,299.1
967.3,457,20.7,17.8,83,13.33,51,6.4,296.7,335.4,299.0
966.8,461,20.7,17.7,83,13.28,51,6.3,296.7,335.2,299.1
966.4,465,20.7,17.6,83,13.24,52,6.3,296.7,335.1,299.1
965.9,469,20.6,17.6,83,13.23,52,6.3,296.7,335.1,299.1
965.4,474,20.6,17.6,83,13.23,52,6.2,296.7,335.1,299.1
965.0,478,20.6,17.6,83,13.22,53,6.2,296.7,335.1,299.1
964.5,483,20.5,17.5,83,13.19,53,6.1,296.7,335.0,299.0
964.0,487,20.5,17.5,83,13.13,53,6.1,296.7,334.8,299.0
963.5,491,20.4,17.4,83,13.06,54,6.1,296.7,334.6,299.0
963.0,496,20.4,17.4,83,13.06,54,6.0,296.7,334.6,299.0
962.5,500,20.4,17.4,83,13.09,54,6.0,296.7,334.7,299.1
962.0,504,20.3,17.4,83,13.09,54,5.9,296.7,334.7,299.1
961.5,509,20.3,17.3,83,13.06,55,5.9,296.7,334.6,299.1
961.1,513,20.3,17.2,83,12.99,55,5.9,296.7,334.4,299.1
960.6,517,20.2,17.2,83,12.99,55,5.9,296.8,334.5,299.1
960.1,521,20.2,17.3,84,13.06,55,5.8,296.8,334.7,299.1
959.7,526,20.1,17.4,84,13.13,55,5.8,296.7,334.9,299.1
959.2,530,20.1,17.4,85,13.15,55,5.8,296.7,334.9,299.1
958.7,534,20.0,17.4,85,13.14,55,5.8,296.7,334.9,299.1
958.3,538,20.0,17.4,85,13.12,55,5.8,296.7,334.8,299.1
957.9,542,20.0,17.4,85,13.13,55,5.8,296.7,334.8,299.1
957.4,546,19.9,17.4,85,13.13,55,5.8,296.7,334.8,299.1
957.0,550,19.9,17.4,85,13.15,56,5.8,296.7,334.9,299.1
956.6,553,19.8,17.4,86,13.16,56,5.8,296.7,334.9,299.1
956.2,557,19.8,17.4,86,13.16,56,5.8,296.7,334.9,299.1
955.8,561,19.8,17.3,86,13.12,56,5.8,296.7,334.8,299.1
955.3,565,19.8,17.2,85,13.07,56,5.8,296.8,334.7,299.1
954.9,569,19.7,17.2,85,13.04,56,5.9,296.8,334.6,299.1
954.4,573,19.7,17.2,85,13.04,56,5.9,296.8,334.6,299.1
954.0,577,19.7,17.2,86,13.04,56,5.9,296.8,334.6,299.1
953.5,581,19.6,17.2,86,13.03,56,5.9,296.8,334.6,299.1
953.1,585,19.6,17.2,86,13.02,57,5.9,296.8,334.6,299.1
952.6,590,19.5,17.1,86,13.01,57,5.9,296.8,334.5,299.1
952.1,594,19.5,17.1,86,13.00,57,5.9,296.8,334.5,299.1
951.7,598,19.5,17.1,86,12.99,57,5.9,296.8,334.5,299.1
951.2,603,19.4,17.1,86,12.99,57,5.9,296.8,334.5,299.1
950.7,607,19.4,17.0,86,12.96,57,5.9,296.8,334.4,299.1
950.2,612,19.4,16.9,86,12.88,57,5.9,296.8,334.2,299.1
949.7,616,19.3,16.8,85,12.79,57,5.9,296.8,334.0,299.1
949.1,621,19.3,16.8,85,12.77,57,6.0,296.8,333.9,299.1
948.6,626,19.2,16.8,86,12.78,58,6.0,296.8,333.9,299.1
948.1,630,19.2,16.7,85,12.71,58,6.0,296.8,333.8,299.1
947.6,635,19.2,16.5,84,12.56,58,6.0,296.9,333.4,299.1
947.1,639,19.2,16.4,84,12.45,58,6.0,296.9,333.1,299.1
946.6,644,19.2,16.2,83,12.36,58,6.0,296.9,332.9,299.1
946.2,648,19.2,16.1,83,12.29,58,6.0,297.0,332.7,299.2
945.7,652,19.2,16.1,82,12.26,58,6.0,297.0,332.7,299.2
945.2,656,19.1,16.1,82,12.25,58,6.0,297.0,332.6,299.2
944.8,661,19.1,16.0,82,12.22,58,6.0,297.0,332.6,299.2
944.3,665,19.1,16.0,82,12.23,58,6.1,297.1,332.6,299.2
943.7,670,19.0,16.1,83,12.25,57,6.1,297.1,332.7,299.3
943.2,675,19.0,16.1,83,12.26,57,6.1,297.1,332.7,299.3
942.7,680,19.0,16.0,83,12.25,57,6.1,297.1,332.7,299.3
942.1,685,18.9,16.0,83,12.25,57,6.1,297.1,332.7,299.3
941.5,690,18.9,16.0,84,12.24,57,6.1,297.1,332.7,299.3
940.9,696,18.8,15.9,83,12.19,57,6.1,297.1,332.6,299.3
940.3,701,18.8,15.9,83,12.14,57,6.1,297.1,332.4,299.3
939.7,707,18.7,15.8,83,12.12,57,6.1,297.1,332.4,299.3
939.1,712,18.7,15.8,83,12.13,57,6.1,297.1,332.4,299.3
938.5,718,18.7,15.9,84,12.18,57,6.1,297.1,332.6,299.3
937.9,723,18.6,16.0,85,12.29,57,6.1,297.1,332.9,299.3
937.3,729,18.6,16.1,86,12.41,57,6.1,297.1,333.2,299.4
936.7,735,18.5,16.2,86,12.44,57,6.1,297.2,333.4,299.4
936.1,740,18.5,16.0,86,12.34,57,6.1,297.2,333.1,299.4
935.6,745,18.5,15.8,85,12.19,57,6.0,297.2,332.7,299.4
935.0,750,18.4,15.6,84,12.02,57,6.0,297.2,332.2,299.4
934.5,755,18.4,15.4,82,11.84,57,6.0,297.3,331.8,299.4
934.0,759,18.4,15.2,81,11.67,57,6.0,297.3,331.3,299.4
933.5,764,18.4,14.8,80,11.44,57,6.0,297.3,330.7,299.4
933.0,768,18.4,14.5,78,11.20,58,6.0,297.4,330.1,299.4
932.5,773,18.4,14.4,77,11.12,58,5.9,297.4,329.9,299.4
932.0,777,18.4,14.4,78,11.17,57,5.9,297.5,330.1,299.5
931.5,782,18.4,14.5,78,11.21,57,5.9,297.5,330.2,299.5
931.0,787,18.3,14.5,78,11.20,57,5.9,297.5,330.2,299.5
930.4,793,18.3,14.4,78,11.17,57,5.8,297.5,330.1,299.5
929.8,798,18.3,14.4,78,11.15,57,5.8,297.5,330.1,299.5
929.2,803,18.2,14.4,78,11.14,57,5.7,297.5,330.1,299.5
928.7,809,18.2,14.3,78,11.12,57,5.7,297.5,330.0,299.5
928.1,814,18.1,14.3,78,11.12,57,5.7,297.6,330.0,299.5
927.5,819,18.1,14.3,79,11.12,57,5.6,297.6,330.0,299.5
927.0,824,18.1,14.3,79,11.10,57,5.6,297.6,330.0,299.6
926.4,829,18.0,14.2,78,11.06,57,5.5,297.6,329.9,299.6
925.9,834,18.0,14.1,78,10.99,57,5.5,297.6,329.7,299.6
925.4,838,18.0,14.0,78,10.93,57,5.4,297.6,329.6,299.6
925.0,843,17.9,14.0,78,10.91,57,5.4,297.6,329.5,299.6
924.5,847,17.9,14.0,78,10.91,57,5.3,297.6,329.5,299.6
924.1,851,17.9,14.0,78,10.93,57,5.3,297.6,329.6,299.6
923.7,855,17.8,14.0,78,10.96,57,5.2,297.6,329.7,299.6
923.2,859,17.8,14.0,79,10.97,57,5.2,297.7,329.7,299.6
922.8,863,17.8,14.0,79,10.98,57,5.2,297.7,329.7,299.6
922.4,867,17.7,14.0,79,10.98,57,5.1,297.7,329.8,299.6
921.9,871,17.7,14.0,79,10.98,57,5.1,297.7,329.8,299.6
921.5,875,17.7,14.0,79,10.96,57,5.1,297.7,329.7,299.6
921.0,880,17.6,13.9,79,10.91,58,5.1,297.7,329.6,299.6
920.4,885,17.6,13.8,79,10.86,58,5.1,297.7,329.5,299.7
919.9,890,17.6,13.8,78,10.82,58,5.1,297.7,329.4,299.7
919.4,895,17.5,13.7,78,10.80,58,5.1,297.7,329.3,299.7
918.9,900,17.5,13.7,78,10.78,59,5.1,297.8,329.3,299.7
918.4,904,17.5,13.7,78,10.77,59,5.1,297.8,329.3,299.7
917.9,909,17.4,13.6,78,10.75,59,5.1,297.8,329.2,299.7
917.4,914,17.4,13.6,78,10.74,60,5.2,297.8,329.2,299.7
916.8,918,17.4,13.6,79,10.76,60,5.2,297.8,329.3,299.7
916.3,923,17.3,13.6,79,10.77,60,5.2,297.8,329.3,299.8
915.8,928,17.3,13.6,79,10.75,61,5.3,297.8,329.3,299.8
915.2,933,17.3,13.5,79,10.68,61,5.3,297.9,329.1,299.8
914.7,939,17.2,13.3,78,10.55,62,5.3,297.9,328.8,299.8
914.1,944,17.2,13.1,77,10.44,62,5.4,297.9,328.5,299.8
913.5,949,17.2,13.1,77,10.40,62,5.4,297.9,328.4,299.8
913.0,955,17.2,13.0,77,10.39,62,5.4,297.9,328.4,299.8
912.4,960,17.1,13.0,77,10.37,63,5.4,298.0,328.4,299.8
911.9,964,17.1,13.0,77,10.36,63,5.4,298.0,328.4,299.8
911.4,969,17.1,13.0,77,10.37,63,5.5,298.0,328.4,299.9
911.0,973,17.0,13.0,77,10.37,64,5.5,298.0,328.4,299.9
910.5,978,17.0,13.0,77,10.37,64,5.5,298.0,328.5,299.9
910.1,982,17.0,13.0,77,10.38,64,5.5,298.0,328.5,299.9
909.7,985,17.0,13.0,77,10.39,65,5.5,298.1,328.5,299.9
909.3,989,16.9,13.0,78,10.42,65,5.5,298.1,328.6,299.9
908.9,993,16.9,13.1,78,10.49,65,5.5,298.1,328.8,300.0
908.5,996,16.9,13.3,80,10.66,66,5.5,298.1,329.3,300.0
908.1,1000,16.8,13.7,82,10.89,66,5.5,298.1,330.0,300.0
907.7,1004,16.8,13.9,83,11.08,67,5.5,298.1,330.5,300.0
907.2,1009,16.7,14.0,84,11.15,67,5.5,298.0,330.7,300.0
906.7,1013,16.7,14.0,84,11.14,68,5.4,298.0,330.6,300.0
906.2,1018,16.6,13.8,83,11.01,68,5.4,298.0,330.3,300.0
905.7,1023,16.6,13.4,81,10.75,69,5.4,298.1,329.6,300.0
905.2,1028,16.6,13.1,80,10.50,69,5.4,298.1,328.9,300.0
904.7,1033,16.6,13.0,79,10.43,70,5.4,298.2,328.7,300.0
904.1,1038,16.6,13.1,80,10.55,70,5.4,298.2,329.1,300.1
903.7,1042,16.5,13.4,82,10.78,71,5.4,298.2,329.8,300.1
903.2,1047,16.4,13.7,84,11.01,71,5.4,298.1,330.4,300.1
902.7,1051,16.4,14.0,86,11.17,71,5.4,298.1,330.8,300.1
902.2,1056,16.3,14.0,86,11.20,72,5.3,298.1,330.9,300.1
901.7,1060,16.3,13.9,86,11.17,72,5.3,298.1,330.8,300.1
901.3,1065,16.2,13.9,86,11.15,72,5.3,298.1,330.7,300.1
900.8,1069,16.2,13.9,86,11.16,72,5.3,298.1,330.8,300.1
900.3,1074,16.2,13.9,87,11.17,72,5.3,298.1,330.8,300.1
899.8,1079,16.1,13.9,87,11.17,72,5.3,298.1,330.8,300.1
899.3,1083,16.1,13.9,87,11.14,72,5.2,298.1,330.7,300.1
898.8,1088,16.0,13.8,87,11.10,72,5.2,298.1,330.6,300.1
898.4,1092,16.0,13.7,86,11.04,72,5.2,298.1,330.5,300.1
898.0,1096,16.0,13.6,86,10.96,71,5.1,298.1,330.3,300.1
897.5,1100,16.0,13.4,85,10.84,71,5.1,298.2,329.9,300.1
897.1,1104,16.0,13.1,83,10.64,70,5.0,298.2,329.4,300.1
896.7,1108,16.0,12.9,82,10.48,70,5.0,298.3,329.0,300.2
896.3,1112,16.0,12.9,82,10.48,69,5.0,298.3,329.1,300.2
895.8,1116,16.0,13.0,82,10.54,68,4.9,298.3,329.3,300.2
895.4,1121,15.9,12.8,82,10.45,67,4.9,298.3,329.0,300.2
894.9,1125,15.9,12.5,80,10.26,66,4.8,298.4,328.5,300.2
894.4,1130,15.9,12.4,80,10.15,65,4.8,298.4,328.2,300.2
894.0,1134,15.9,12.3,79,10.11,64,4.7,298.4,328.1,300.2
893.5,1139,15.9,12.3,79,10.11,62,4.7,298.5,328.2,300.3
893.0,1143,15.8,12.3,80,10.14,61,4.7,298.5,328.3,300.3
892.6,1147,15.8,12.4,80,10.17,60,4.6,298.5,328.4,300.3
892.2,1151,15.8,12.4,80,10.16,59,4.6,298.5,328.3,300.3
891.7,1156,15.7,12.3,80,10.15,58,4.6,298.5,328.3,300.3
891.2,1160,15.7,12.3,80,10.15,57,4.6,298.5,328.3,300.3
890.8,1164,15.6,12.3,81,10.14,56,4.6,298.5,328.2,300.3
890.3,1169,15.6,12.3,81,10.12,55,4.6,298.5,328.2,300.3
889.9,1173,15.5,12.2,81,10.09,54,4.6,298.5,328.1,300.3
889.4,1178,15.5,12.1,80,10.04,53,4.6,298.5,328.0,300.3
889.0,1182,15.5,12.0,80,9.99,53,4.6,298.5,327.9,300.3
888.5,1186,15.4,12.0,80,9.96,52,4.6,298.5,327.8,300.3
888.1,1191,15.4,11.9,80,9.91,52,4.6,298.5,327.6,300.3
887.6,1195,15.4,11.8,79,9.86,52,4.6,298.5,327.5,300.3
887.1,1200,15.3,11.8,79,9.82,52,4.6,298.5,327.4,300.3
886.6,1205,15.3,11.7,79,9.80,52,4.6,298.5,327.4,300.3
886.0,1210,15.3,11.6,79,9.76,53,4.7,298.6,327.3,300.3
885.5,1215,15.2,11.6,79,9.71,53,4.7,298.6,327.1,300.3
885.0,1220,15.2,11.5,78,9.65,54,4.7,298.6,327.0,300.3
884.5,1225,15.2,11.4,78,9.60,55,4.7,298.6,326.9,300.3
884.0,1230,15.1,11.3,78,9.55,56,4.7,298.6,326.7,300.3
883.5,1234,15.1,11.2,77,9.48,56,4.7,298.6,326.5,300.3
883.1,1238,15.1,11.0,77,9.40,58,4.8,298.7,326.4,300.4
882.6,1242,15.1,11.0,77,9.38,59,4.8,298.7,326.3,300.4
882.2,1246,15.1,11.0,77,9.39,60,4.8,298.7,326.4,300.4
881.8,1250,15.1,11.1,77,9.44,61,4.8,298.8,326.6,300.5
881.4,1254,15.0,11.1,77,9.48,62,4.9,298.8,326.7,300.5
881.0,1258,15.0,11.2,78,9.52,63,4.9,298.8,326.9,300.5
880.5,1263,15.0,11.2,78,9.54,64,4.9,298.8,327.0,300.5
880.1,1267,15.0,11.2,78,9.54,65,5.0,298.8,327.0,300.6
879.6,1272,14.9,11.2,78,9.53,66,5.0,298.8,326.9,300.5
879.1,1277,14.9,11.1,78,9.51,67,5.1,298.8,326.9,300.5
878.5,1282,14.8,11.1,78,9.48,68,5.1,298.8,326.8,300.5
878.0,1287,14.8,11.0,78,9.45,69,5.1,298.8,326.7,300.5
877.6,1291,14.8,11.0,78,9.42,70,5.2,298.9,326.6,300.5
877.1,1296,14.7,11.0,78,9.41,70,5.2,298.9,326.6,300.6
876.7,1300,14.7,11.0,78,9.42,71,5.3,298.9,326.6,300.6
876.2,1304,14.7,10.9,78,9.39,72,5.3,298.9,326.6,300.6
875.8,1308,14.6,10.8,78,9.33,72,5.4,298.9,326.4,300.6
875.4,1312,14.6,10.7,77,9.28,72,5.4,298.9,326.3,300.6
874.9,1317,14.6,10.7,77,9.27,73,5.4,298.9,326.3,300.6
874.5,1321,14.6,10.8,78,9.31,73,5.5,298.9,326.4,300.6
874.0,1326,14.5,10.9,79,9.39,73,5.5,299.0,326.7,300.6
873.5,1330,14.5,11.1,80,9.52,73,5.5,299.0,327.0,300.7
873.0,1335,14.4,11.2,81,9.63,73,5.5,299.0,327.4,300.7
872.5,1340,14.4,11.2,81,9.61,73,5.6,299.0,327.3,300.7
872.0,1345,14.4,11.0,80,9.53,73,5.6,299.0,327.1,300.7
871.5,1350,14.3,11.1,81,9.58,73,5.6,299.0,327.3,300.7
870.9,1356,14.3,11.5,83,9.82,73,5.6,299.0,328.0,300.8
870.4,1361,14.3,11.9,86,10.10,73,5.6,299.0,328.8,300.9
869.9,1365,14.2,12.0,87,10.21,73,5.6,299.1,329.1,300.9
869.5,1370,14.2,12.0,86,10.16,73,5.6,299.1,329.0,300.9
869.0,1374,14.2,11.9,86,10.11,73,5.6,299.1,328.9,300.9
868.6,1378,14.2,11.8,86,10.06,74,5.6,299.1,328.8,300.9
868.2,1382,14.2,11.8,86,10.05,74,5.6,299.1,328.8,301.0
867.8,1386,14.1,11.8,86,10.07,74,5.6,299.2,328.9,301.0
867.5,1389,14.1,11.9,86,10.11,74,5.5,299.2,329.0,301.0
867.1,1393,14.1,11.9,86,10.13,74,5.5,299.2,329.1,301.0
866.7,1397,14.1,11.8,86,10.11,74,5.5,299.2,329.0,301.0
866.4,1400,14.1,11.8,86,10.06,74,5.4,299.3,328.9,301.1
866.0,1404,14.1,11.7,86,10.05,75,5.4,299.3,328.9,301.1
865.5,1408,14.1,11.7,86,10.06,75,5.4,299.3,329.0,301.1
865.1,1412,14.1,11.8,86,10.07,75,5.3,299.4,329.1,301.2
864.7,1417,14.0,11.7,86,10.07,75,5.3,299.4,329.1,301.2
864.2,1421,14.0,11.7,86,10.05,76,5.2,299.4,329.0,301.2
863.7,1426,14.0,11.7,86,10.03,76,5.2,299.4,329.0,301.2
863.2,1431,14.0,11.7,86,10.03,76,5.2,299.4,329.0,301.2
862.7,1435,13.9,11.7,86,10.04,76,5.1,299.4,329.1,301.2
862.2,1440,13.9,11.7,87,10.05,76,5.1,299.4,329.1,301.2
861.7,1445,13.8,11.6,87,10.04,76,5.1,299.4,329.0,301.2
861.2,1450,13.8,11.6,87,10.00,77,5.1,299.4,329.0,301.2
860.8,1455,13.7,11.5,86,9.95,77,5.1,299.4,328.8,301.2
860.3,1460,13.7,11.4,86,9.91,77,5.1,299.5,328.7,301.2
859.8,1464,13.7,11.4,86,9.90,77,5.1,299.5,328.7,301.3
859.4,1468,13.7,11.4,86,9.89,76,5.1,299.5,328.7,301.3
859.0,1472,13.6,11.4,86,9.89,76,5.1,299.5,328.7,301.3
858.6,1476,13.6,11.4,86,9.89,76,5.1,299.5,328.7,301.3
858.2,1480,13.6,11.4,86,9.89,76,5.2,299.5,328.8,301.3
857.8,1484,13.6,11.4,87,9.90,76,5.2,299.6,328.8,301.3
857.4,1488,13.5,11.4,87,9.94,75,5.2,299.6,328.9,301.4
856.9,1493,13.5,11.5,88,10.00,75,5.3,299.6,329.1,301.4
856.4,1498,13.4,11.6,88,10.05,75,5.3,299.6,329.2,301.4
855.9,1503,13.4,11.5,88,10.03,75,5.4,299.6,329.2,301.4
855.3,1508,13.4,11.4,88,9.96,74,5.5,299.6,329.0,301.4
854.8,1514,13.3,11.3,88,9.89,74,5.5,299.6,328.8,301.4
854.3,1519,13.3,11.2,87,9.84,74,5.6,299.6,328.7,301.4
853.8,1524,13.3,11.1,86,9.74,74,5.6,299.7,328.4,301.4
853.3,1528,13.3,10.6,84,9.46,73,5.7,299.7,327.7,301.4
852.8,1533,13.3,9.9,80,9.03,73,5.7,299.8,326.5,301.4
852.4,1538,13.3,9.5,78,8.80,73,5.8,299.9,326.0,301.4
851.9,1542,13.3,9.9,80,9.01,72,5.8,299.9,326.6,301.5
851.5,1546,13.3,10.3,82,9.29,72,5.8,299.9,327.4,301.6
851.1,1550,13.3,10.4,83,9.34,72,5.9,299.9,327.6,301.6
850.7,1555,13.2,10.3,82,9.27,71,5.9,299.9,327.4,301.6
850.2,1559,13.2,10.2,82,9.21,71,5.9,299.9,327.2,301.6
850.0,1561,13.2,10.2,82,9.21,71,5.9,299.9,327.2,301.6
849.8,1563,13.2,10.2,82,9.21,71,5.9,299.9,327.2,301.6
849.4,1567,13.1,10.2,82,9.22,70,6.0,299.9,327.3,301.6
848.9,1572,13.1,10.1,82,9.20,70,6.0,299.9,327.2,301.6
848.5,1576,13.0,10.0,82,9.12,70,6.0,299.9,327.0,301.6
848.0,1581,13.0,9.8,81,9.03,69,6.0,300.0,326.7,301.6
847.6,1585,13.0,9.7,81,8.95,69,6.0,300.0,326.5,301.6
847.1,1590,12.9,9.6,80,8.89,68,6.0,300.0,326.4,301.6
846.6,1595,12.9,9.5,80,8.83,67,6.0,300.0,326.2,301.6
846.2,1599,12.9,9.4,79,8.80,67,6.0,300.0,326.1,301.6
845.7,1604,12.9,9.4,79,8.79,66,6.0,300.0,326.2,301.6
845.2,1609,12.9,9.4,79,8.78,66,6.0,300.1,326.2,301.7
844.7,1614,12.8,9.4,79,8.79,65,6.0,300.1,326.2,301.7
844.2,1619,12.8,9.4,80,8.83,65,6.0,300.2,326.4,301.8
843.8,1623,12.8,9.5,80,8.87,64,6.1,300.2,326.5,301.8
843.3,1628,12.8,9.5,81,8.90,64,6.1,300.2,326.6,301.8
842.9,1632,12.8,9.6,81,8.92,63,6.1,300.2,326.7,301.8
842.5,1636,12.7,9.6,81,8.97,63,6.1,300.2,326.9,301.9
842.1,1640,12.7,9.6,81,8.96,62,6.2,300.3,326.9,301.9
841.8,1643,12.7,9.5,81,8.91,62,6.2,300.3,326.8,301.9
841.4,1646,12.7,9.4,80,8.86,62,6.2,300.3,326.7,301.9
841.1,1650,12.7,9.4,80,8.82,62,6.3,300.3,326.6,301.9
840.7,1653,12.7,9.3,80,8.77,62,6.3,300.4,326.5,302.0
840.4,1657,12.7,9.2,79,8.71,62,6.4,300.4,326.3,302.0
840.0,1661,12.7,9.1,79,8.66,62,6.4,300.4,326.2,302.0
839.6,1665,12.6,9.0,78,8.62,62,6.4,300.4,326.1,302.0
839.1,1669,12.6,8.9,78,8.59,62,6.5,300.5,326.0,302.0
838.7,1674,12.6,8.9,78,8.55,62,6.5,300.5,325.9,302.0
838.2,1679,12.6,8.8,78,8.50,63,6.5,300.5,325.8,302.0
