PRES,HGHT,TEMP,DWPT,RELH,MIXR,DRCT,SPED,THTA,THTE,THTV
1015.4,31,23.2,19.0,77,13.71,23,3.1,295.1,334.6,297.5
1014.8,36,23.4,19.0,76,13.75,42,3.0,295.3,334.9,297.7
1014.1,42,23.4,18.9,76,13.71,46,3.2,295.3,334.9,297.7
1013.4,48,23.4,18.9,76,13.66,46,3.4,295.4,334.8,297.8
1012.6,54,23.4,18.8,75,13.61,46,3.6,295.5,334.8,297.9
1011.9,61,23.4,18.7,75,13.57,45,3.9,295.5,334.7,297.9
1011.1,67,23.3,18.7,75,13.54,44,4.1,295.6,334.6,298.0
1010.4,74,23.3,18.6,75,13.50,43,4.4,295.6,334.5,297.9
1009.6,81,23.2,18.6,75,13.50,43,4.6,295.6,334.5,298.0
1008.8,88,23.1,18.6,76,13.48,42,4.8,295.5,334.5,297.9
1008.0,94,23.1,18.6,76,13.46,42,5.0,295.5,334.4,297.9
1007.2,101,23.0,18.5,76,13.43,41,5.2,295.6,334.3,297.9
1006.4,108,23.0,18.5,76,13.42,41,5.4,295.6,334.3,297.9
1005.6,115,22.9,18.5,76,13.43,41,5.6,295.6,334.4,297.9
1004.9,122,22.9,18.5,77,13.47,41,5.8,295.6,334.5,298.0
1004.1,128,22.8,18.5,77,13.49,40,5.9,295.6,334.6,298.0
1003.4,135,22.7,18.5,77,13.48,40,6.1,295.6,334.5,298.0
1002.6,141,22.7,18.4,77,13.42,40,6.2,295.6,334.4,298.0
1001.9,148,22.6,18.4,77,13.40,40,6.3,295.6,334.3,298.0
1001.2,154,22.6,18.5,77,13.47,40,6.4,295.6,334.5,298.0
1000.4,161,22.5,18.5,78,13.55,40,6.5,295.6,334.7,298.0
1000.0,164,22.5,18.5,78,13.56,40,6.5,295.6,334.8,298.0
999.7,167,22.4,18.6,79,13.57,41,6.6,295.6,334.8,298.0
998.9,173,22.4,18.6,79,13.60,41,6.7,295.6,334.9,298.0
998.2,180,22.3,18.6,79,13.62,41,6.8,295.6,335.0,298.0
997.5,186,22.3,18.5,79,13.59,41,6.8,295.6,334.9,298.0
996.9,191,22.2,18.4,79,13.52,42,6.9,295.6,334.7,298.0
996.3,197,22.2,18.3,79,13.43,42,6.9,295.6,334.4,298.0
995.7,202,22.1,18.3,79,13.37,42,7.0,295.6,334.2,298.0
995.1,207,22.0,18.2,79,13.34,42,7.0,295.6,334.1,298.0
994.5,212,22.0,18.2,79,13.35,43,7.0,295.6,334.2,298.0
993.9,218,21.9,18.2,79,13.37,43,7.1,295.6,334.2,298.0
993.3,223,21.9,18.2,80,13.38,43,7.1,295.6,334.2,298.0
992.7,228,21.8,18.2,80,13.40,43,7.1,295.6,334.3,298.0
992.0,234,21.8,18.3,80,13.44,43,7.1,295.6,334.4,298.0
991.4,239,21.7,18.3,81,13.43,43,7.1,295.6,334.4,298.0
990.8,245,21.7,18.2,80,13.37,43,7.1,295.6,334.2,298.0
990.2,250,21.6,18.1,80,13.28,43,7.0,295.6,334.0,298.0
989.6,255,21.6,18.0,80,13.23,43,7.0,295.6,333.8,297.9
989.0,260,21.5,18.0,80,13.20,43,7.0,295.6,333.7,297.9
988.5,265,21.5,17.9,80,13.15,43,7.0,295.6,333.6,297.9
987.9,270,21.4,17.7,80,13.03,43,7.0,295.6,333.2,297.9
987.3,275,21.4,17.6,79,12.94,42,6.9,295.6,333.0,297.9
986.8,280,21.4,17.5,79,12.89,42,6.9,295.6,332.9,297.9
986.2,285,21.3,17.5,79,12.86,42,6.9,295.6,332.8,297.9
985.6,290,21.3,17.5,79,12.87,41,6.9,295.7,332.9,297.9
985.0,295,21.2,17.5,79,12.89,41,6.8,295.7,332.9,297.9
984.4,301,21.2,17.4,79,12.82,40,6.8,295.6,332.7,297.9
983.8,306,21.1,17.3,79,12.72,40,6.8,295.6,332.4,297.9
983.2,312,21.1,17.2,79,12.65,40,6.7,295.6,332.2,297.9
982.5,317,21.0,17.1,79,12.62,39,6.7,295.6,332.1,297.9
981.9,323,21.0,17.1,79,12.62,39,6.7,295.7,332.1,297.9
981.3,328,20.9,17.1,79,12.63,39,6.7,295.7,332.2,297.9
980.7,334,20.9,17.2,79,12.66,39,6.6,295.7,332.3,297.9
980.1,339,20.8,17.2,80,12.67,39,6.6,295.7,332.3,297.9
979.5,345,20.8,17.2,80,12.74,39,6.6,295.7,332.5,297.9
978.9,350,20.7,17.3,81,12.79,39,6.6,295.6,332.6,297.9
978.3,355,20.6,17.2,81,12.76,39,6.5,295.6,332.5,297.9
977.7,360,20.6,17.1,81,12.68,39,6.5,295.6,332.3,297.9
977.1,365,20.6,17.1,80,12.64,39,6.5,295.7,332.2,297.9
976.5,370,20.5,17.1,81,12.66,39,6.5,295.7,332.3,297.9
976.0,375,20.5,17.1,81,12.70,40,6.5,295.6,332.4,297.9
975.4,380,20.4,17.2,82,12.73,40,6.5,295.6,332.4,297.9
974.9,385,20.3,17.1,82,12.72,40,6.5,295.6,332.4,297.9
974.4,390,20.3,17.1,82,12.70,40,6.5,295.6,332.3,297.9
973.8,394,20.2,17.1,82,12.71,41,6.5,295.6,332.3,297.9
973.3,399,20.2,17.1,83,12.73,41,6.5,295.6,332.4,297.9
972.8,404,20.1,17.2,83,12.75,42,6.5,295.6,332.5,297.9
972.2,409,20.1,17.2,83,12.76,42,6.5,295.6,332.5,297.9
971.6,414,20.0,17.1,83,12.76,42,6.5,295.6,332.5,297.9
971.0,419,20.0,17.1,84,12.76,43,6.5,295.6,332.5,297.9
970.4,425,19.9,17.1,84,12.75,43,6.5,295.6,332.5,297.9
969.8,430,19.9,17.1,84,12.75,44,6.5,295.6,332.5,297.9
969.2,435,19.9,17.1,84,12.78,44,6.5,295.6,332.6,297.9
968.6,441,19.8,17.2,85,12.82,44,6.5,295.6,332.7,297.9
968.0,446,19.8,17.1,85,12.81,45,6.5,295.6,332.6,297.9
967.4,451,19.7,17.1,85,12.81,45,6.5,295.6,332.7,297.9
966.9,457,19.6,17.2,86,12.83,45,6.6,295.6,332.7,297.9
966.3,462,19.6,17.2,86,12.84,45,6.6,295.6,332.7,297.9
965.7,467,19.5,17.1,86,12.83,46,6.6,295.6,332.6,297.8
965.2,472,19.5,17.1,86,12.82,46,6.6,295.6,332.6,297.8
964.6,477,19.4,17.1,86,12.82,46,6.6,295.6,332.6,297.9
964.1,482,19.4,17.2,87,12.88,47,6.6,295.6,332.8,297.9
963.5,487,19.4,17.2,87,12.95,47,6.6,295.6,333.0,297.9
962.9,492,19.3,17.3,88,12.97,47,6.7,295.6,333.1,297.9
962.4,497,19.3,17.2,88,12.95,48,6.7,295.6,333.1,297.9
961.8,502,19.2,17.2,88,12.93,48,6.7,295.7,333.0,297.9
961.3,507,19.2,17.2,88,12.93,48,6.7,295.7,333.0,297.9
960.7,512,19.2,17.2,88,12.95,49,6.7,295.7,333.1,298.0
960.1,517,19.1,17.2,89,12.97,49,6.7,295.7,333.1,298.0
959.6,522,19.1,17.2,89,12.97,49,6.7,295.7,333.1,298.0
959.0,527,19.0,17.2,89,12.98,50,6.7,295.7,333.2,298.0
958.4,532,19.0,17.2,90,13.01,50,6.7,295.7,333.3,298.0
957.9,537,18.9,17.2,90,13.00,51,6.7,295.7,333.2,298.0
957.3,542,18.9,17.2,90,12.97,51,6.7,295.7,333.1,298.0
956.8,547,18.8,17.1,90,12.95,51,6.7,295.7,333.1,298.0
956.3,552,18.8,17.1,90,12.94,52,6.7,295.7,333.0,298.0
955.7,557,18.7,17.1,90,12.95,52,6.7,295.7,333.1,298.0
955.2,561,18.7,17.1,90,12.95,53,6.7,295.7,333.1,298.0
954.6,566,18.7,17.1,91,12.95,53,6.8,295.7,333.1,298.0
954.0,572,18.6,17.1,91,12.94,53,6.8,295.7,333.1,298.0
953.5,577,18.5,17.1,91,12.93,54,6.8,295.7,333.1,298.0
952.9,582,18.5,17.0,91,12.93,54,6.8,295.7,333.0,298.0
952.2,588,18.4,17.0,91,12.92,55,6.8,295.7,333.0,298.0
951.6,594,18.4,17.0,92,12.91,55,6.8,295.7,333.0,298.0
951.0,599,18.3,17.0,92,12.91,55,6.9,295.7,333.0,298.0
950.4,605,18.3,17.0,92,12.90,56,6.9,295.7,332.9,298.0
949.8,610,18.2,16.9,92,12.89,56,6.9,295.7,332.9,298.0
949.1,616,18.2,16.9,92,12.88,57,6.9,295.7,332.9,298.0
948.5,621,18.1,16.9,93,12.89,57,7.0,295.7,332.9,298.0
947.9,627,18.1,16.9,93,12.92,57,7.0,295.7,333.0,298.0
947.4,632,18.0,17.0,94,12.94,58,7.1,295.7,333.1,298.0
946.8,637,18.0,17.0,94,12.94,58,7.1,295.7,333.1,298.0
946.2,643,17.9,17.0,94,12.95,58,7.2,295.7,333.1,298.0
945.6,648,17.9,16.9,94,12.95,58,7.2,295.7,333.1,298.0
945.1,653,17.8,16.9,94,12.93,59,7.3,295.7,333.1,298.0
944.5,658,17.8,16.9,94,12.90,59,7.3,295.7,333.0,298.0
944.0,663,17.7,16.8,94,12.87,59,7.4,295.7,332.9,298.0
943.4,668,17.7,16.8,94,12.85,59,7.4,295.7,332.8,298.0
942.9,673,17.7,16.7,94,12.80,59,7.5,295.7,332.7,298.0
942.3,678,17.7,16.7,94,12.76,59,7.6,295.8,332.7,298.0
941.7,683,17.6,16.6,94,12.72,60,7.6,295.8,332.6,298.1
941.1,689,17.6,16.6,94,12.72,60,7.7,295.8,332.6,298.1
940.6,694,17.6,16.6,94,12.74,60,7.7,295.8,332.7,298.1
940.0,699,17.5,16.6,95,12.78,60,7.8,295.8,332.8,298.1
939.4,705,17.4,16.7,96,12.83,60,7.9,295.8,332.9,298.1
938.8,710,17.3,16.7,96,12.84,60,7.9,295.8,332.9,298.1
938.2,715,17.3,16.7,96,12.81,60,8.0,295.8,332.8,298.0
937.6,721,17.2,16.6,96,12.80,60,8.0,295.8,332.8,298.1
937.1,726,17.2,16.6,96,12.80,60,8.1,295.8,332.8,298.1
936.5,731,17.1,16.6,97,12.82,60,8.1,295.8,332.8,298.1
936.0,736,17.1,16.6,97,12.82,60,8.1,295.8,332.8,298.1
935.5,740,17.1,16.6,97,12.81,60,8.2,295.8,332.8,298.1
934.9,745,17.0,16.6,97,12.78,60,8.2,295.8,332.8,298.1
934.4,750,17.0,16.5,97,12.75,60,8.3,295.8,332.7,298.1
933.9,755,17.0,16.4,97,12.70,60,8.3,295.8,332.5,298.1
933.4,760,16.9,16.3,96,12.60,61,8.3,295.8,332.3,298.1
932.8,764,16.9,16.1,95,12.44,61,8.3,295.9,331.8,298.1
932.3,769,16.9,15.9,94,12.27,61,8.4,295.9,331.4,298.1
931.8,774,16.9,15.8,93,12.20,61,8.4,295.9,331.2,298.1
931.3,779,16.8,15.8,94,12.21,61,8.4,295.9,331.3,298.1
930.7,784,16.8,15.8,94,12.23,61,8.4,295.9,331.3,298.1
930.2,789,16.7,15.8,94,12.21,61,8.5,295.9,331.3,298.1
929.6,794,16.7,15.7,94,12.17,61,8.5,295.9,331.2,298.1
929.1,799,16.6,15.7,94,12.15,61,8.5,295.9,331.1,298.1
928.5,804,16.6,15.7,94,12.14,61,8.5,296.0,331.1,298.1
928.0,809,16.6,15.6,94,12.12,61,8.5,296.0,331.1,298.1
927.4,814,16.5,15.6,94,12.10,61,8.6,296.0,331.0,298.1
926.9,819,16.5,15.6,94,12.09,61,8.6,296.0,331.0,298.1
926.4,824,16.5,15.6,94,12.09,61,8.6,296.0,331.0,298.1
925.8,829,16.4,15.5,94,12.06,61,8.6,296.0,330.9,298.2
925.3,834,16.4,15.4,94,11.95,61,8.6,296.0,330.6,298.1
925.0,837,16.4,15.2,93,11.83,61,8.6,296.0,330.3,298.1
924.8,839,16.3,15.1,92,11.76,61,8.7,296.0,330.1,298.1
924.3,843,16.4,14.8,91,11.56,61,8.7,296.1,329.6,298.1
923.7,848,16.4,14.7,90,11.47,61,8.7,296.1,329.4,298.2
923.2,853,16.3,14.7,90,11.50,61,8.8,296.2,329.5,298.2
922.7,858,16.3,14.8,91,11.54,61,8.8,296.2,329.7,298.2
922.2,863,16.3,14.8,91,11.55,61,8.8,296.2,329.7,298.2
921.6,868,16.2,14.8,91,11.56,61,8.9,296.2,329.7,298.2
921.1,873,16.2,14.8,92,11.56,61,8.9,296.2,329.7,298.3
920.5,878,16.1,14.8,92,11.56,61,8.9,296.2,329.7,298.3
919.9,883,16.1,14.8,92,11.56,61,9.0,296.2,329.7,298.3
919.4,889,16.0,14.8,92,11.56,61,9.0,296.2,329.7,298.3
918.8,894,16.0,14.8,92,11.56,61,9.1,296.2,329.7,298.3
918.2,899,15.9,14.7,93,11.55,61,9.1,296.2,329.7,298.3
917.7,904,15.9,14.7,93,11.56,61,9.2,296.2,329.7,298.3
917.1,910,15.8,14.7,93,11.56,61,9.2,296.2,329.8,298.3
916.5,915,15.8,14.7,93,11.57,61,9.3,296.2,329.8,298.3
915.9,921,15.8,14.7,93,11.56,60,9.4,296.2,329.8,298.3
915.3,927,15.7,14.6,93,11.51,60,9.4,296.3,329.7,298.3
914.6,933,15.7,14.5,92,11.41,60,9.5,296.3,329.5,298.4
914.0,939,15.7,14.4,92,11.34,60,9.5,296.4,329.3,298.4
913.3,945,15.7,14.3,91,11.28,60,9.6,296.4,329.2,298.4
912.6,951,15.6,14.2,91,11.24,60,9.7,296.4,329.1,298.4
912.0,957,15.6,14.2,91,11.23,60,9.7,296.4,329.0,298.4
911.3,964,15.5,14.2,92,11.23,59,9.8,296.5,329.1,298.5
910.7,970,15.5,14.1,92,11.21,59,9.8,296.4,329.0,298.4
910.0,976,15.4,14.1,92,11.18,59,9.9,296.5,328.9,298.5
909.3,982,15.4,14.1,92,11.17,59,10.0,296.5,328.9,298.5
908.7,988,15.3,14.1,92,11.18,59,10.0,296.5,329.0,298.5
908.0,995,15.3,14.1,93,11.22,59,10.1,296.5,329.1,298.5
907.3,1001,15.2,14.1,93,11.24,59,10.1,296.5,329.2,298.5
906.6,1007,15.2,14.1,93,11.22,59,10.2,296.5,329.1,298.5
906.0,1014,15.1,14.1,93,11.21,59,10.2,296.5,329.1,298.5
905.3,1020,15.1,14.1,94,11.22,58,10.3,296.5,329.1,298.5
904.6,1027,15.0,14.0,94,11.19,58,10.3,296.5,329.1,298.5
903.9,1033,15.0,13.9,93,11.12,58,10.4,296.6,328.9,298.6
903.2,1040,15.0,13.8,92,11.02,58,10.4,296.7,328.7,298.6
902.5,1046,15.0,13.6,92,10.94,58,10.5,296.7,328.6,298.7
901.8,1053,15.0,13.6,91,10.89,58,10.5,296.7,328.4,298.7
901.2,1059,14.9,13.5,91,10.87,58,10.5,296.8,328.4,298.7
900.6,1064,14.9,13.5,92,10.89,58,10.6,296.8,328.5,298.7
900.0,1070,14.8,13.6,92,10.91,57,10.6,296.8,328.5,298.7
899.4,1075,14.8,13.6,93,10.93,57,10.6,296.8,328.6,298.7
898.8,1081,14.7,13.6,93,10.95,57,10.7,296.8,328.6,298.7
898.3,1086,14.7,13.6,93,10.97,57,10.7,296.8,328.7,298.7
897.7,1091,14.6,13.6,94,10.96,57,10.8,296.8,328.7,298.7
897.1,1097,14.5,13.5,94,10.93,57,10.8,296.8,328.6,298.7
896.6,1102,14.5,13.5,94,10.91,56,10.8,296.8,328.5,298.7
896.0,1107,14.5,13.5,94,10.92,56,10.9,296.8,328.6,298.7
895.5,1112,14.4,13.5,94,10.93,56,10.9,296.8,328.6,298.7
894.9,1118,14.4,13.5,95,10.93,56,10.9,296.8,328.6,298.7
894.3,1123,14.3,13.5,95,10.94,56,11.0,296.8,328.6,298.7
893.8,1129,14.3,13.5,95,10.93,55,11.0,296.8,328.6,298.8
893.2,1134,14.2,13.5,95,10.93,55,11.0,296.8,328.6,298.8
892.5,1140,14.2,13.4,95,10.91,55,11.1,296.8,328.6,298.8
891.9,1146,14.1,13.4,95,10.89,55,11.1,296.8,328.5,298.8
891.3,1152,14.1,13.4,96,10.88,55,11.2,296.8,328.5,298.8
890.6,1159,14.0,13.3,96,10.87,55,11.2,296.8,328.5,298.8
890.0,1165,13.9,13.3,96,10.86,55,11.3,296.8,328.4,298.7
889.3,1171,13.9,13.3,96,10.85,55,11.3,296.8,328.4,298.8
888.7,1176,13.9,13.3,96,10.83,55,11.4,296.8,328.4,298.8
888.1,1182,13.8,13.2,96,10.83,55,11.5,296.9,328.4,298.8
887.6,1188,13.8,13.2,96,10.81,55,11.5,296.9,328.4,298.8
887.0,1193,13.8,13.2,96,10.79,55,11.6,296.9,328.3,298.8
886.5,1198,13.7,13.1,96,10.77,55,11.6,296.9,328.3,298.8
885.9,1203,13.7,13.1,96,10.75,55,11.7,297.0,328.3,298.9
885.4,1208,13.7,13.1,96,10.76,55,11.8,297.0,328.3,298.9
884.9,1213,13.6,13.1,96,10.76,55,11.8,297.0,328.3,298.9
884.3,1219,13.6,13.1,96,10.75,55,11.9,297.0,328.4,298.9
883.8,1224,13.6,13.0,97,10.74,55,12.0,297.0,328.3,298.9
883.2,1229,13.5,13.0,97,10.72,55,12.1,297.0,328.3,299.0
882.7,1234,13.5,13.0,97,10.71,55,12.1,297.1,328.3,299.0
882.2,1239,13.5,13.0,97,10.70,55,12.2,297.1,328.3,299.0
881.7,1244,13.4,12.9,97,10.70,55,12.2,297.1,328.2,299.0
881.1,1249,13.4,12.9,97,10.68,55,12.3,297.1,328.2,299.0
880.6,1254,13.3,12.8,97,10.64,56,12.4,297.1,328.1,299.0
880.1,1259,13.3,12.8,97,10.61,56,12.4,297.1,328.1,299.0
879.6,1264,13.3,12.8,97,10.61,56,12.5,297.1,328.1,299.0
879.0,1269,13.3,12.8,97,10.62,56,12.5,297.2,328.1,299.0
878.5,1274,13.2,12.8,97,10.64,56,12.5,297.2,328.2,299.1
878.0,1279,13.2,12.8,98,10.66,56,12.6,297.2,328.3,299.1
877.5,1284,13.1,12.8,98,10.63,56,12.6,297.2,328.2,299.1
877.0,1289,13.1,12.7,97,10.56,56,12.6,297.2,328.0,299.1
876.5,1294,13.1,12.5,96,10.46,57,12.6,297.3,327.8,299.1
876.0,1299,13.1,12.4,96,10.41,57,12.6,297.3,327.7,299.2
875.4,1304,13.1,12.4,95,10.40,57,12.6,297.4,327.8,299.2
874.9,1309,13.1,12.4,96,10.41,57,12.6,297.4,327.8,299.3
874.3,1315,13.1,12.4,96,10.41,58,12.6,297.4,327.8,299.3
873.7,1320,13.0,12.4,96,10.40,58,12.6,297.4,327.8,299.3
873.1,1326,12.9,12.3,96,10.37,58,12.5,297.4,327.7,299.3
872.5,1332,12.9,12.3,96,10.33,58,12.5,297.4,327.6,299.3
871.9,1338,12.9,12.2,96,10.30,59,12.5,297.4,327.6,299.3
871.3,1344,12.8,12.2,96,10.29,59,12.4,297.5,327.6,299.3
870.7,1350,12.8,12.2,96,10.30,59,12.4,297.5,327.6,299.3
870.1,1356,12.8,12.2,96,10.31,60,12.3,297.5,327.7,299.4
869.4,1362,12.7,12.2,97,10.34,60,12.3,297.5,327.8,299.4
868.8,1368,12.7,12.3,97,10.37,60,12.2,297.5,327.8,299.4
868.2,1373,12.6,12.3,98,10.39,61,12.2,297.5,327.9,299.4
867.7,1379,12.6,12.2,98,10.36,61,12.1,297.5,327.8,299.4
867.1,1384,12.5,12.1,97,10.28,61,12.0,297.6,327.6,299.4
866.6,1389,12.5,12.0,96,10.21,62,12.0,297.6,327.5,299.4
866.1,1394,12.6,11.9,96,10.18,62,11.9,297.7,327.5,299.5
865.6,1399,12.6,11.9,96,10.17,62,11.9,297.7,327.5,299.6
865.1,1404,12.6,11.9,96,10.17,62,11.8,297.8,327.6,299.6
864.5,1409,12.5,11.9,96,10.17,63,11.8,297.8,327.6,299.6
864.0,1415,12.5,11.9,96,10.18,63,11.7,297.8,327.7,299.7
863.4,1420,12.5,11.9,96,10.17,63,11.6,297.8,327.6,299.7
862.8,1426,12.4,11.8,96,10.14,63,11.6,297.8,327.6,299.7
862.3,1431,12.4,11.8,96,10.13,63,11.5,297.9,327.5,299.7
861.7,1437,12.3,11.8,96,10.13,63,11.5,297.9,327.5,299.7
861.1,1443,12.3,11.8,97,10.13,63,11.4,297.9,327.6,299.7
860.5,1448,12.2,11.8,97,10.13,63,11.4,297.9,327.6,299.7
860.0,1454,12.2,11.7,97,10.13,63,11.3,297.9,327.6,299.7
859.4,1459,12.2,11.7,97,10.12,62,11.2,297.9,327.6,299.7
858.9,1465,12.1,11.7,97,10.11,62,11.2,297.9,327.6,299.7
858.3,1470,12.1,11.7,98,10.11,62,11.1,297.9,327.5,299.7
857.8,1475,12.0,11.7,98,10.10,62,11.0,297.9,327.5,299.7
857.2,1481,11.9,11.6,98,10.09,61,11.0,297.9,327.5,299.7
856.6,1486,11.9,11.6,98,10.06,61,10.9,297.9,327.4,299.7
856.1,1492,11.9,11.6,98,10.04,60,10.9,297.9,327.4,299.7
855.5,1497,11.8,11.5,98,10.02,60,10.8,298.0,327.4,299.8
854.9,1503,11.8,11.5,98,10.02,60,10.7,298.0,327.4,299.8
854.4,1509,11.7,11.5,98,10.02,59,10.7,298.0,327.4,299.8
853.8,1514,11.7,11.5,99,10.04,59,10.6,298.0,327.4,299.8
853.3,1520,11.6,11.5,99,10.03,58,10.6,298.0,327.4,299.8
852.7,1525,11.6,11.5,99,10.02,58,10.6,298.0,327.4,299.8
852.2,1530,11.6,11.4,99,10.02,57,10.5,298.0,327.4,299.8
851.7,1535,11.5,11.4,99,10.00,57,10.5,298.1,327.4,299.8
851.1,1540,11.6,11.4,99,9.98,56,10.5,298.1,327.4,299.9
850.6,1545,11.6,11.4,98,9.98,56,10.5,298.2,327.5,300.0
850.1,1550,11.7,11.3,98,9.95,56,10.5,298.3,327.6,300.1
850.0,1552,11.7,11.3,97,9.93,55,10.5,298.4,327.5,300.2
849.7,1555,11.7,11.2,97,9.88,55,10.5,298.4,327.5,300.2
849.2,1559,11.8,11.1,96,9.82,55,10.6,298.5,327.4,300.3
848.8,1564,11.8,11.0,95,9.78,55,10.6,298.6,327.4,300.4
848.3,1568,11.8,11.0,95,9.77,55,10.6,298.7,327.4,300.5
847.9,1572,11.8,11.0,95,9.78,54,10.7,298.7,327.5,300.5
847.5,1577,11.8,11.0,95,9.80,54,10.7,298.8,327.6,300.5
847.0,1581,11.8,11.1,95,9.82,54,10.8,298.8,327.7,300.6
846.6,1585,11.8,11.1,96,9.84,54,10.9,298.8,327.8,300.6
846.2,1589,11.8,11.1,96,9.84,54,10.9,298.8,327.8,300.6
845.7,1594,11.7,11.0,95,9.81,55,11.0,298.8,327.7,300.6
845.3,1599,11.7,11.0,95,9.80,55,11.1,298.9,327.7,300.6
844.8,1603,11.7,11.0,95,9.78,55,11.1,298.9,327.7,300.7
844.3,1608,11.7,10.9,95,9.76,55,11.2,298.9,327.7,300.7
843.8,1613,11.6,10.9,95,9.75,55,11.2,298.9,327.7,300.7
843.3,1618,11.6,10.9,95,9.74,56,11.3,298.9,327.7,300.7
842.8,1623,11.6,10.8,95,9.72,56,11.3,299.0,327.6,300.7
842.2,1628,11.5,10.7,95,9.67,57,11.4,299.0,327.5,300.7
841.7,1634,11.5,10.6,94,9.60,57,11.4,299.0,327.3,300.7
841.2,1639,11.5,10.6,94,9.56,58,11.4,299.1,327.3,300.8
840.7,1644,11.5,10.5,94,9.56,58,11.4,299.1,327.3,300.8
840.1,1650,11.5,10.6,94,9.57,59,11.4,299.2,327.4,300.9
839.6,1655,11.5,10.6,94,9.59,59,11.4,299.2,327.5,300.9
839.0,1661,11.4,10.6,94,9.60,60,11.4,299.2,327.5,301.0
838.4,1666,11.4,10.5,94,9.58,60,11.4,299.2,327.5,301.0
837.9,1672,11.4,10.5,95,9.56,61,11.4,299.2,327.5,301.0
837.3,1677,11.3,10.4,94,9.52,61,11.4,299.3,327.4,301.0
836.8,1683,11.3,10.3,94,9.47,62,11.3,299.3,327.3,301.0
836.3,1688,11.3,10.3,93,9.43,62,11.3,299.3,327.2,301.0
835.8,1693,11.2,10.2,93,9.38,62,11.2,299.3,327.1,301.0
835.3,1697,11.2,10.1,93,9.34,63,11.2,299.4,327.0,301.1
834.9,1702,11.2,10.1,93,9.32,63,11.1,299.4,327.0,301.1
834.4,1707,11.2,10.1,93,9.33,63,11.0,299.5,327.0,301.1
834.0,1711,11.2,10.1,93,9.36,64,11.0,299.5,327.2,301.2
833.6,1715,11.2,10.1,93,9.38,64,10.9,299.5,327.2,301.2
833.1,1720,11.1,10.1,93,9.37,64,10.9,299.5,327.2,301.2
832.7,1724,11.1,10.1,93,9.36,64,10.8,299.5,327.2,301.2
832.3,1728,11.1,10.0,93,9.32,64,10.8,299.5,327.1,301.2
831.8,1733,11.1,9.9,92,9.26,64,10.7,299.6,327.0,301.3
831.3,1738,11.2,9.8,91,9.19,64,10.7,299.7,327.0,301.4
830.9,1742,11.2,9.7,91,9.16,64,10.6,299.8,327.0,301.5
830.4,1747,11.2,9.7,90,9.16,64,10.6,299.9,327.0,301.6
829.9,1753,11.2,9.7,91,9.17,64,10.6,299.9,327.1,301.6
829.3,1758,11.2,9.7,91,9.16,64,10.5,299.9,327.1,301.6
828.8,1763,11.1,9.7,91,9.14,64,10.5,299.9,327.0,301.6
828.4,1768,11.1,9.6,91,9.13,64,10.5,299.9,327.0,301.6
827.9,1772,11.1,9.6,91,9.11,64,10.5,300.0,327.0,301.6
827.4,1777,11.1,9.6,91,9.10,64,10.5,300.0,327.0,301.7
827.0,1782,11.1,9.6,90,9.10,64,10.4,300.1,327.1,301.7
826.5,1786,11.1,9.6,90,9.11,63,10.4,300.1,327.2,301.8
826.1,1791,11.1,9.6,91,9.12,63,10.4,300.2,327.2,301.8
825.6,1796,11.0,9.6,91,9.13,63,10.4,300.2,327.3,301.8
825.1,1801,11.0,9.6,91,9.14,63,10.3,300.2,327.3,301.8
824.6,1806,10.9,9.6,92,9.15,63,10.3,300.2,327.3,301.8
824.0,1812,10.9,9.6,92,9.14,63,10.3,300.2,327.3,301.8
823.5,1817,10.8,9.6,92,9.12,63,10.2,300.1,327.2,301.8
822.9,1823,10.8,9.5,92,9.09,63,10.2,300.2,327.2,301.8
822.4,1828,10.7,9.4,92,9.06,63,10.1,300.2,327.0,301.8
821.8,1834,10.7,9.4,92,9.03,63,10.1,300.2,327.0,301.8
821.2,1840,10.6,9.3,92,9.01,63,10.1,300.2,327.0,301.9
820.7,1846,10.6,9.3,91,8.98,63,10.0,300.2,326.9,301.9
820.1,1851,10.6,9.2,91,8.95,63,9.9,300.3,326.9,301.9
819.6,1857,10.6,9.2,91,8.93,63,9.9,300.3,326.9,302.0
819.0,1862,10.6,9.1,90,8.89,64,9.8,300.4,326.8,302.0
818.5,1868,10.6,9.0,90,8.85,64,9.8,300.5,326.8,302.1
818.0,1873,10.6,9.0,90,8.82,64,9.7,300.5,326.8,302.1
817.5,1878,10.6,8.9,90,8.82,64,9.6,300.5,326.8,302.1
817.0,1883,10.5,8.9,90,8.81,64,9.5,300.6,326.8,302.2
816.5,1888,10.5,8.9,90,8.79,64,9.5,300.6,326.7,302.2
816.0,1893,10.5,8.8,90,8.77,64,9.4,300.6,326.7,302.2
815.6,1898,10.4,8.8,89,8.74,64,9.3,300.6,326.6,302.2
815.1,1902,10.4,8.7,89,8.71,64,9.3,300.6,326.6,302.2
814.7,1907,10.4,8.7,89,8.69,64,9.2,300.6,326.5,302.2
814.2,1912,10.3,8.7,89,8.70,64,9.1,300.6,326.5,302.2
813.7,1916,10.3,8.7,90,8.70,63,9.1,300.6,326.5,302.2
813.3,1921,10.2,8.7,90,8.69,63,9.0,300.6,326.5,302.2
812.8,1926,10.2,8.6,90,8.66,63,9.0,300.6,326.4,302.2
812.4,1931,10.2,8.5,89,8.61,63,8.9,300.7,326.3,302.2
811.9,1935,10.2,8.4,89,8.57,63,8.8,300.7,326.2,302.3
811.4,1940,10.2,8.4,89,8.56,62,8.8,300.7,326.3,302.3
810.9,1945,10.1,8.4,89,8.58,62,8.8,300.7,326.3,302.3
810.5,1950,10.1,8.5,90,8.60,62,8.7,300.7,326.3,302.3
