PRES,HGHT,TEMP,DWPT,RELH,MIXR,DRCT,SPED,THTA,THTE,THTV
1013.3,31,23.1,21.6,91,16.20,288,2.0,295.1,341.8,298.0
1012.8,35,23.4,21.6,90,16.27,328,1.0,295.5,342.3,298.3
1012.2,40,23.5,21.7,89,16.33,347,0.9,295.7,342.8,298.5
1011.4,47,24.0,21.8,88,16.49,357,1.0,296.2,343.8,299.1
1010.8,53,24.1,21.7,86,16.34,2,1.0,296.3,343.5,299.2
1010.2,57,24.0,21.5,86,16.19,6,1.1,296.3,343.2,299.2
1009.6,63,24.0,21.4,86,16.12,10,1.2,296.3,343.0,299.2
1008.9,68,24.0,21.4,85,16.08,15,1.3,296.4,342.9,299.3
1008.3,74,24.0,21.3,85,16.02,20,1.4,296.5,342.8,299.3
1007.7,79,24.1,21.3,84,15.98,25,1.5,296.6,342.9,299.4
1007.1,85,24.2,21.2,83,15.96,29,1.6,296.7,343.0,299.6
1006.5,90,24.2,21.1,83,15.85,33,1.7,296.8,342.7,299.6
1005.9,95,24.3,21.0,82,15.78,36,1.8,296.9,342.7,299.7
1005.3,100,24.5,21.0,81,15.79,40,2.0,297.2,343.0,300.0
1004.7,105,24.5,21.0,81,15.73,43,2.1,297.2,342.9,300.0
1004.2,110,24.5,21.0,81,15.79,46,2.2,297.3,343.1,300.1
1003.6,115,24.4,21.0,81,15.80,48,2.4,297.2,343.1,300.0
1003.1,120,24.3,21.0,82,15.79,50,2.5,297.2,343.0,300.0
1002.5,124,24.3,20.9,82,15.75,52,2.7,297.2,342.9,300.0
1002.0,129,24.3,20.8,81,15.59,54,2.8,297.3,342.6,300.0
1001.5,134,24.5,20.6,79,15.45,56,2.9,297.5,342.5,300.3
1000.9,138,24.7,20.5,77,15.34,58,3.0,297.8,342.4,300.5
1000.4,143,24.7,20.4,77,15.27,59,3.1,297.8,342.3,300.6
1000.0,147,24.7,20.4,77,15.26,59,3.1,297.8,342.3,300.6
999.9,148,24.7,20.4,77,15.27,60,3.2,297.8,342.3,300.6
999.3,153,24.7,20.5,77,15.32,61,3.3,297.9,342.5,300.6
998.8,157,24.6,20.5,78,15.41,63,3.4,297.8,342.7,300.6
998.2,162,24.5,20.6,79,15.49,64,3.5,297.8,342.9,300.6
997.7,167,24.5,20.6,79,15.52,65,3.6,297.8,343.0,300.6
997.2,171,24.4,20.6,79,15.49,65,3.6,297.8,343.0,300.6
996.6,176,24.4,20.6,79,15.47,66,3.7,297.9,342.9,300.6
996.1,181,24.4,20.5,79,15.45,67,3.7,297.9,342.9,300.6
995.5,186,24.4,20.5,79,15.45,68,3.7,297.9,342.9,300.7
994.9,191,24.3,20.5,79,15.45,69,3.7,297.9,342.9,300.7
994.3,197,24.3,20.5,79,15.44,69,3.7,297.9,342.9,300.7
993.7,202,24.2,20.4,79,15.38,70,3.8,297.9,342.7,300.6
993.1,208,24.1,20.3,79,15.31,71,3.8,297.9,342.5,300.6
992.5,213,24.1,20.3,79,15.30,72,3.8,297.9,342.4,300.6
991.9,218,24.0,20.3,80,15.31,72,3.8,297.9,342.5,300.6
991.3,223,24.0,20.3,80,15.32,73,3.8,297.9,342.5,300.6
990.7,228,23.9,20.3,80,15.32,74,3.8,297.9,342.5,300.6
990.1,234,23.9,20.3,80,15.32,74,3.8,297.9,342.5,300.6
989.5,239,23.8,20.3,80,15.30,75,3.8,297.9,342.5,300.6
988.9,244,23.8,20.2,81,15.27,75,3.8,297.9,342.4,300.6
988.3,250,23.7,20.2,81,15.27,76,3.8,297.9,342.4,300.6
987.7,255,23.7,20.3,81,15.32,76,3.8,297.9,342.5,300.6
987.2,260,23.6,20.3,82,15.37,76,3.8,297.9,342.7,300.6
986.6,265,23.6,20.3,82,15.38,77,3.8,297.9,342.7,300.6
986.0,270,23.5,20.3,82,15.40,77,3.8,297.9,342.7,300.6
985.4,275,23.5,20.4,83,15.46,77,3.8,297.9,342.9,300.7
984.9,280,23.5,20.4,83,15.47,77,3.8,297.9,342.9,300.6
984.3,285,23.4,20.3,83,15.44,77,3.8,297.9,342.8,300.6
983.8,290,23.3,20.3,83,15.43,77,3.9,297.9,342.8,300.6
983.3,295,23.3,20.3,83,15.45,77,3.9,297.9,342.9,300.6
982.7,300,23.2,20.3,84,15.47,77,3.9,297.9,342.9,300.6
982.2,305,23.2,20.3,84,15.46,77,3.9,297.9,342.9,300.6
981.6,309,23.1,20.3,84,15.43,77,3.9,297.9,342.8,300.6
981.1,314,23.1,20.2,84,15.40,77,3.9,297.9,342.7,300.6
980.5,320,23.1,20.2,84,15.40,76,4.0,297.9,342.7,300.6
979.9,325,23.0,20.2,84,15.43,76,4.0,297.9,342.8,300.6
979.3,330,23.0,20.3,85,15.46,76,4.0,297.9,342.9,300.6
978.7,336,22.9,20.2,85,15.45,76,4.0,297.9,342.9,300.6
978.1,341,22.9,20.2,85,15.43,76,4.0,297.9,342.8,300.6
977.5,346,22.8,20.2,85,15.42,75,4.0,297.9,342.8,300.6
976.9,352,22.7,20.2,85,15.41,75,4.1,297.9,342.8,300.6
976.3,357,22.7,20.2,86,15.41,75,4.1,297.9,342.8,300.6
975.7,362,22.6,20.2,86,15.42,75,4.1,297.9,342.8,300.6
975.2,367,22.6,20.2,86,15.42,75,4.1,297.9,342.8,300.6
974.6,372,22.5,20.2,86,15.43,74,4.1,297.9,342.8,300.6
974.1,377,22.5,20.1,87,15.42,74,4.1,297.9,342.8,300.6
973.5,382,22.4,20.1,87,15.40,74,4.1,297.9,342.7,300.6
973.0,387,22.4,20.1,87,15.40,74,4.1,297.9,342.7,300.6
972.5,391,22.4,20.1,87,15.42,74,4.1,297.9,342.8,300.6
972.0,396,22.3,20.1,88,15.45,74,4.1,297.9,342.8,300.6
971.4,401,22.3,20.1,88,15.44,73,4.1,297.9,342.8,300.6
970.9,405,22.2,20.1,88,15.44,73,4.1,297.9,342.8,300.6
970.4,410,22.2,20.1,88,15.44,73,4.1,297.9,342.8,300.6
969.9,414,22.1,20.1,88,15.43,73,4.0,297.9,342.8,300.6
969.4,419,22.1,20.1,88,15.43,73,4.0,297.9,342.8,300.6
968.9,423,22.0,20.0,88,15.41,73,4.0,297.9,342.7,300.6
968.4,428,22.0,20.0,89,15.40,73,4.0,297.9,342.7,300.6
967.9,432,22.0,20.0,89,15.41,72,4.0,297.9,342.7,300.6
967.4,437,21.9,20.0,89,15.41,72,4.0,297.9,342.7,300.6
966.8,442,21.9,20.0,89,15.41,72,4.0,297.9,342.7,300.6
966.3,447,21.8,20.0,89,15.39,72,4.0,297.9,342.7,300.6
965.8,451,21.8,19.9,89,15.33,72,4.0,297.9,342.5,300.6
965.2,456,21.7,19.8,89,15.27,72,4.0,297.9,342.3,300.6
964.7,461,21.7,19.8,89,15.20,72,4.1,297.9,342.1,300.6
964.2,466,21.6,19.7,89,15.18,71,4.1,297.9,342.1,300.6
963.6,471,21.6,19.8,89,15.23,71,4.1,297.9,342.3,300.6
963.1,476,21.5,19.8,90,15.30,71,4.1,297.9,342.4,300.6
962.5,481,21.5,19.9,90,15.35,71,4.1,297.9,342.6,300.6
962.0,486,21.4,19.9,91,15.34,71,4.1,297.9,342.5,300.6
961.5,490,21.4,19.8,91,15.32,71,4.2,297.9,342.5,300.6
961.0,495,21.3,19.8,91,15.33,71,4.2,297.9,342.5,300.6
960.4,500,21.3,19.9,91,15.36,71,4.2,297.9,342.6,300.6
959.9,504,21.3,19.9,92,15.42,70,4.2,297.9,342.8,300.6
959.4,509,21.2,19.9,93,15.47,70,4.2,297.9,342.9,300.6
958.9,514,21.2,19.9,93,15.48,70,4.2,297.9,342.9,300.6
958.4,518,21.1,19.9,93,15.49,70,4.3,297.9,343.0,300.6
957.9,522,21.1,19.9,93,15.48,70,4.3,297.9,343.0,300.6
957.5,527,21.0,19.9,93,15.48,70,4.3,297.9,342.9,300.6
957.0,531,21.0,19.9,93,15.46,70,4.3,297.9,342.9,300.6
956.5,535,21.0,19.8,93,15.42,70,4.3,297.9,342.8,300.6
956.1,539,20.9,19.8,93,15.38,69,4.3,297.9,342.6,300.6
955.6,544,20.9,19.8,93,15.36,69,4.3,297.9,342.6,300.6
955.1,548,20.8,19.7,93,15.33,69,4.2,297.9,342.5,300.6
954.7,552,20.8,19.7,93,15.30,69,4.2,297.9,342.4,300.6
954.2,556,20.8,19.7,93,15.27,68,4.2,297.9,342.4,300.6
953.7,561,20.7,19.6,93,15.26,68,4.2,297.9,342.3,300.6
953.3,565,20.7,19.6,94,15.27,68,4.2,297.9,342.3,300.6
952.8,569,20.7,19.6,94,15.24,67,4.1,297.9,342.3,300.6
952.3,573,20.6,19.5,93,15.15,67,4.1,297.9,342.0,300.6
951.9,578,20.6,19.4,93,15.07,66,4.1,297.9,341.8,300.6
951.4,582,20.6,19.3,93,15.01,66,4.1,297.9,341.7,300.6
950.9,586,20.5,19.3,92,14.97,66,4.0,297.9,341.6,300.6
950.4,591,20.5,19.3,93,14.98,65,4.0,298.0,341.6,300.6
950.0,595,20.5,19.3,93,15.00,65,4.0,298.0,341.7,300.6
949.5,599,20.4,19.3,93,15.02,64,4.0,297.9,341.7,300.6
949.1,603,20.4,19.3,94,15.01,64,3.9,297.9,341.7,300.6
948.7,607,20.3,19.3,94,14.99,63,3.9,297.9,341.6,300.6
948.2,611,20.3,19.3,94,14.99,63,3.9,298.0,341.6,300.6
947.8,615,20.3,19.2,94,14.95,63,3.9,297.9,341.5,300.6
947.3,619,20.3,19.1,93,14.83,62,3.9,298.0,341.2,300.6
946.9,623,20.2,18.9,92,14.64,62,3.9,298.0,340.7,300.6
946.4,628,20.2,18.8,91,14.54,62,3.8,298.0,340.4,300.6
945.9,632,20.2,18.7,91,14.50,62,3.8,298.1,340.3,300.6
945.4,636,20.2,18.7,91,14.49,62,3.8,298.1,340.3,300.6
944.9,641,20.1,18.6,91,14.42,62,3.8,298.1,340.1,300.6
944.5,645,20.1,18.5,90,14.31,61,3.8,298.1,339.8,300.6
944.0,650,20.1,18.4,90,14.21,61,3.8,298.1,339.6,300.6
943.4,655,20.1,18.3,89,14.15,62,3.8,298.2,339.4,300.7
942.9,659,20.1,18.3,90,14.17,62,3.8,298.2,339.5,300.7
942.4,664,20.0,18.3,90,14.20,62,3.8,298.2,339.6,300.7
941.9,669,20.0,18.3,90,14.16,62,3.8,298.2,339.5,300.7
941.3,674,19.9,18.2,90,14.12,62,3.8,298.2,339.4,300.7
940.8,679,19.9,18.2,90,14.11,62,3.8,298.2,339.4,300.7
940.3,684,19.8,18.2,90,14.12,62,3.8,298.2,339.4,300.7
939.8,689,19.8,18.2,90,14.10,63,3.8,298.2,339.3,300.7
939.2,693,19.7,18.1,90,14.04,63,3.8,298.2,339.1,300.7
938.7,698,19.7,18.0,90,13.95,63,3.8,298.2,338.9,300.7
938.2,703,19.7,18.0,90,13.94,64,3.8,298.2,338.9,300.7
937.7,707,19.7,18.0,90,13.98,64,3.8,298.3,339.1,300.8
937.2,712,19.6,18.0,90,14.02,65,3.8,298.3,339.2,300.8
936.7,717,19.6,18.0,91,14.04,65,3.8,298.3,339.2,300.8
936.2,722,19.5,18.0,91,13.97,66,3.8,298.2,339.0,300.7
935.7,726,19.5,17.8,90,13.84,66,3.8,298.3,338.7,300.7
935.1,731,19.5,17.6,89,13.70,67,3.8,298.3,338.3,300.7
934.6,736,19.5,17.5,88,13.58,67,3.8,298.3,338.0,300.7
934.1,740,19.4,17.3,88,13.44,68,3.9,298.3,337.6,300.7
933.6,745,19.4,17.0,86,13.21,69,3.9,298.4,337.0,300.7
933.1,750,19.4,16.7,84,12.92,69,3.9,298.4,336.2,300.7
932.7,754,19.5,16.4,82,12.69,70,4.0,298.5,335.6,300.8
932.2,759,19.5,16.2,81,12.54,70,4.0,298.6,335.3,300.8
931.7,763,19.5,16.0,80,12.37,71,4.0,298.6,334.8,300.8
931.2,768,19.5,15.7,79,12.17,71,4.1,298.7,334.3,300.8
930.7,772,19.5,15.6,78,12.03,72,4.1,298.7,334.0,300.9
930.2,777,19.5,15.5,78,11.98,72,4.2,298.8,333.9,300.9
929.7,782,19.5,15.5,78,11.99,72,4.2,298.8,333.9,300.9
929.2,787,19.4,15.5,78,12.02,73,4.3,298.8,334.0,300.9
928.6,791,19.4,15.6,79,12.08,73,4.4,298.8,334.2,300.9
928.1,796,19.3,15.6,79,12.11,73,4.4,298.8,334.3,300.9
927.6,801,19.3,15.6,79,12.07,74,4.5,298.8,334.2,300.9
927.0,806,19.2,15.4,78,11.92,74,4.5,298.8,333.7,300.9
926.4,812,19.2,14.9,76,11.55,74,4.6,298.8,332.7,300.9
925.9,817,19.3,14.3,73,11.11,75,4.6,299.0,331.6,301.0
925.3,822,19.4,14.0,71,10.95,75,4.7,299.1,331.3,301.0
925.0,825,19.3,14.1,72,11.02,75,4.7,299.1,331.5,301.1
924.8,827,19.3,14.2,72,11.07,75,4.7,299.1,331.6,301.1
924.2,833,19.3,14.4,73,11.20,76,4.7,299.1,332.0,301.1
923.6,838,19.2,14.3,73,11.18,76,4.8,299.1,331.9,301.1
923.0,844,19.2,14.1,72,11.00,77,4.8,299.1,331.5,301.1
922.5,849,19.2,13.8,71,10.78,77,4.8,299.1,330.9,301.1
921.9,854,19.2,13.6,70,10.66,78,4.9,299.2,330.6,301.1
921.4,859,19.1,13.6,70,10.67,78,4.9,299.2,330.6,301.1
920.9,864,19.1,13.6,70,10.69,79,4.9,299.2,330.7,301.1
920.4,868,19.1,13.6,70,10.67,80,4.9,299.2,330.6,301.1
920.0,872,19.0,13.5,70,10.65,81,4.9,299.2,330.6,301.2
919.5,876,19.0,13.5,70,10.60,81,5.0,299.3,330.5,301.2
919.1,880,19.0,13.4,70,10.54,82,5.0,299.3,330.3,301.2
918.7,884,19.0,13.2,69,10.46,83,5.0,299.3,330.1,301.2
918.2,888,19.0,13.1,69,10.35,84,5.0,299.4,329.9,301.2
917.8,892,19.0,12.9,68,10.27,85,5.0,299.4,329.7,301.2
917.4,896,19.0,12.9,68,10.23,85,5.1,299.4,329.6,301.3
917.0,900,19.0,12.8,67,10.20,86,5.1,299.5,329.6,301.3
916.5,905,19.1,12.8,67,10.18,87,5.1,299.6,329.6,301.4
916.1,909,19.1,12.8,67,10.17,88,5.2,299.6,329.7,301.5
915.6,913,19.0,12.8,67,10.20,89,5.2,299.6,329.8,301.5
915.1,918,19.0,12.8,67,10.23,89,5.2,299.7,329.9,301.5
914.6,923,19.0,12.8,67,10.22,90,5.3,299.7,329.9,301.5
914.1,928,19.0,12.7,67,10.15,90,5.3,299.7,329.7,301.5
913.5,933,18.9,12.6,67,10.11,91,5.3,299.7,329.6,301.6
913.0,937,18.9,12.6,67,10.10,91,5.4,299.7,329.6,301.6
912.5,942,18.9,12.6,67,10.07,92,5.4,299.7,329.5,301.6
912.0,947,18.8,12.5,66,10.00,92,5.4,299.8,329.3,301.6
911.6,951,18.8,12.3,66,9.93,92,5.5,299.8,329.1,301.6
911.1,955,18.8,12.3,66,9.91,93,5.5,299.8,329.1,301.6
910.7,960,18.7,12.3,66,9.92,93,5.6,299.8,329.1,301.6
910.2,964,18.7,12.4,67,9.96,93,5.6,299.8,329.3,301.6
909.8,968,18.7,12.5,67,10.06,93,5.6,299.8,329.6,301.7
909.4,972,18.7,12.7,68,10.19,93,5.6,299.9,330.0,301.7
909.0,975,18.7,12.8,69,10.26,93,5.7,299.9,330.2,301.7
908.6,979,18.7,12.8,69,10.29,94,5.7,299.9,330.4,301.8
908.1,983,18.7,12.8,69,10.27,94,5.7,299.9,330.3,301.8
907.7,987,18.6,12.7,69,10.24,94,5.7,300.0,330.3,301.8
907.3,992,18.6,12.7,68,10.22,94,5.7,300.0,330.2,301.8
906.8,996,18.6,12.7,68,10.20,94,5.7,300.0,330.2,301.8
906.4,1000,18.6,12.6,68,10.19,94,5.7,300.0,330.1,301.8
906.0,1004,18.5,12.6,69,10.19,94,5.7,300.0,330.2,301.8
905.5,1008,18.5,12.7,69,10.21,94,5.7,300.0,330.2,301.9
905.1,1013,18.5,12.7,69,10.25,94,5.7,300.0,330.4,301.9
904.6,1017,18.4,12.8,70,10.32,95,5.7,300.0,330.6,301.9
904.2,1021,18.4,12.8,70,10.34,95,5.7,300.1,330.6,301.9
903.8,1025,18.4,12.7,70,10.29,95,5.6,300.1,330.5,301.9
903.3,1029,18.4,12.7,69,10.25,95,5.6,300.1,330.4,301.9
902.8,1034,18.3,12.7,70,10.28,95,5.6,300.1,330.5,302.0
902.4,1038,18.3,12.9,71,10.40,96,5.6,300.1,330.9,302.0
901.8,1043,18.3,13.1,72,10.55,96,5.5,300.2,331.4,302.1
901.3,1048,18.2,13.2,72,10.64,96,5.5,300.2,331.6,302.1
900.7,1054,18.2,13.2,73,10.65,96,5.5,300.2,331.7,302.1
900.2,1059,18.2,13.1,73,10.61,96,5.5,300.2,331.6,302.1
899.6,1065,18.1,13.1,73,10.59,96,5.5,300.2,331.5,302.1
899.1,1070,18.1,13.1,73,10.61,96,5.4,300.2,331.6,302.1
898.6,1074,18.0,13.1,73,10.63,96,5.4,300.2,331.6,302.1
898.1,1079,18.0,13.2,73,10.65,96,5.4,300.2,331.7,302.1
897.7,1083,17.9,13.2,74,10.70,96,5.4,300.2,331.8,302.1
897.3,1087,17.9,13.3,75,10.78,96,5.4,300.2,332.1,302.2
896.9,1090,17.9,13.4,75,10.85,96,5.4,300.2,332.3,302.2
896.5,1094,17.8,13.5,76,10.89,96,5.4,300.2,332.4,302.2
896.1,1098,17.8,13.5,76,10.89,95,5.4,300.2,332.4,302.2
895.7,1101,17.8,13.5,76,10.90,95,5.4,300.2,332.5,302.2
895.3,1105,17.8,13.5,76,10.90,95,5.4,300.2,332.5,302.2
894.9,1110,17.7,13.4,76,10.83,94,5.4,300.3,332.3,302.2
894.4,1114,17.7,13.3,75,10.78,94,5.4,300.3,332.2,302.2
894.0,1119,17.7,13.3,75,10.77,93,5.5,300.3,332.1,302.2
893.5,1123,17.6,13.2,75,10.75,93,5.5,300.3,332.1,302.2
893.0,1128,17.6,13.1,75,10.69,93,5.5,300.3,331.9,302.2
892.5,1133,17.6,13.1,75,10.64,92,5.5,300.3,331.8,302.2
892.0,1137,17.5,13.0,75,10.59,92,5.5,300.3,331.6,302.2
891.5,1142,17.5,12.9,74,10.52,92,5.5,300.3,331.5,302.2
891.1,1146,17.5,12.9,75,10.55,91,5.5,300.3,331.6,302.2
890.6,1151,17.4,13.1,76,10.69,91,5.5,300.3,332.0,302.3
890.1,1155,17.3,13.2,77,10.81,91,5.5,300.3,332.3,302.3
889.7,1160,17.3,13.3,77,10.84,91,5.5,300.3,332.4,302.3
889.2,1164,17.3,13.2,77,10.82,91,5.5,300.3,332.3,302.3
888.8,1168,17.2,13.1,77,10.73,91,5.4,300.3,332.1,302.3
888.4,1172,17.2,12.9,76,10.61,91,5.4,300.3,331.7,302.2
887.9,1177,17.2,12.7,75,10.45,91,5.4,300.4,331.3,302.2
887.5,1181,17.2,12.5,74,10.32,91,5.4,300.4,330.9,302.2
887.1,1185,17.2,12.4,73,10.23,92,5.4,300.4,330.7,302.3
886.6,1189,17.1,12.4,74,10.23,92,5.3,300.4,330.8,302.3
886.2,1193,17.1,12.5,74,10.30,92,5.3,300.4,331.0,302.3
885.8,1197,17.1,12.5,75,10.36,93,5.3,300.4,331.1,302.3
885.3,1202,17.0,12.6,75,10.40,94,5.3,300.5,331.3,302.3
884.9,1206,17.0,12.6,75,10.43,94,5.3,300.5,331.3,302.3
884.4,1210,16.9,12.6,76,10.42,95,5.3,300.5,331.3,302.3
884.0,1215,16.9,12.6,76,10.39,96,5.3,300.4,331.2,302.3
883.5,1219,16.9,12.5,75,10.34,96,5.3,300.4,331.1,302.3
883.1,1223,16.8,12.4,75,10.27,97,5.3,300.4,330.9,302.3
882.6,1228,16.8,12.2,75,10.19,98,5.3,300.5,330.7,302.3
882.1,1232,16.8,12.1,74,10.12,99,5.3,300.5,330.5,302.3
881.7,1237,16.8,12.1,74,10.11,100,5.3,300.5,330.5,302.4
881.2,1241,16.7,12.1,74,10.13,101,5.3,300.6,330.6,302.4
880.7,1246,16.7,12.1,74,10.10,101,5.3,300.6,330.5,302.4
880.3,1250,16.7,11.9,73,10.01,102,5.3,300.6,330.3,302.4
879.8,1255,16.7,11.8,73,9.93,103,5.4,300.6,330.1,302.4
879.3,1260,16.7,11.7,72,9.87,103,5.4,300.7,330.0,302.5
878.9,1264,16.7,11.7,72,9.84,104,5.4,300.7,329.9,302.5
878.4,1269,16.6,11.6,72,9.81,104,5.4,300.7,329.9,302.5
878.0,1273,16.6,11.5,72,9.78,105,5.4,300.8,329.8,302.5
877.5,1277,16.6,11.5,72,9.78,105,5.5,300.8,329.8,302.6
877.0,1282,16.6,11.5,72,9.77,105,5.5,300.8,329.8,302.6
876.6,1286,16.6,11.5,72,9.74,105,5.5,300.8,329.8,302.6
876.1,1291,16.5,11.4,72,9.73,106,5.5,300.8,329.7,302.6
875.7,1295,16.5,11.4,72,9.74,106,5.4,300.8,329.8,302.6
875.2,1300,16.4,11.5,72,9.76,106,5.4,300.8,329.8,302.6
874.8,1304,16.4,11.5,73,9.81,106,5.4,300.8,330.0,302.6
874.3,1308,16.4,11.7,74,9.93,106,5.4,300.9,330.4,302.7
873.8,1313,16.3,12.1,76,10.19,105,5.3,300.9,331.1,302.7
873.3,1318,16.3,12.7,79,10.64,105,5.3,300.9,332.4,302.8
872.8,1323,16.2,13.5,84,11.18,105,5.2,300.9,334.0,302.9
872.3,1328,16.2,13.8,86,11.42,104,5.2,300.8,334.6,302.9
871.8,1332,16.1,13.7,86,11.40,104,5.1,300.8,334.6,302.9
871.4,1337,16.1,13.7,86,11.40,103,5.0,300.8,334.6,302.9
870.9,1342,16.1,13.8,86,11.45,103,5.0,300.9,334.8,302.9
870.4,1347,16.0,13.8,87,11.51,102,4.9,300.9,334.9,302.9
869.9,1351,16.0,13.9,87,11.52,102,4.8,300.9,335.0,302.9
869.5,1356,15.9,13.8,87,11.49,101,4.8,300.9,334.9,302.9
869.0,1360,15.9,13.8,87,11.46,100,4.7,300.9,334.8,302.9
868.6,1364,15.8,13.7,87,11.43,100,4.6,300.8,334.7,302.9
868.2,1369,15.8,13.7,87,11.43,99,4.6,300.9,334.7,302.9
867.7,1373,15.8,13.7,88,11.45,98,4.5,300.9,334.8,302.9
867.3,1377,15.7,13.8,88,11.48,98,4.4,300.9,334.9,303.0
866.8,1382,15.7,13.8,88,11.50,97,4.4,300.9,334.9,303.0
866.3,1387,15.7,13.8,89,11.51,97,4.4,300.9,335.0,303.0
865.8,1392,15.6,13.8,89,11.51,97,4.3,300.9,335.0,303.0
865.3,1397,15.6,13.8,89,11.52,96,4.3,300.9,335.0,303.0
864.8,1402,15.5,13.8,89,11.54,96,4.3,300.9,335.1,303.0
864.2,1407,15.5,13.8,90,11.54,96,4.2,300.9,335.1,303.0
863.7,1413,15.4,13.8,90,11.54,96,4.2,300.9,335.1,303.0
863.1,1418,15.4,13.8,90,11.54,96,4.2,300.9,335.1,303.0
862.6,1424,15.4,13.7,90,11.50,96,4.2,301.0,335.0,303.0
862.0,1429,15.3,13.6,90,11.46,97,4.2,301.0,334.9,303.0
861.5,1434,15.3,13.6,90,11.41,97,4.2,301.0,334.8,303.0
861.0,1439,15.2,13.5,90,11.39,98,4.2,301.0,334.7,303.0
860.5,1444,15.2,13.5,90,11.39,98,4.3,301.0,334.7,303.0
860.0,1449,15.2,13.6,90,11.44,99,4.3,301.0,334.9,303.1
859.6,1453,15.1,13.6,91,11.48,100,4.3,301.0,335.0,303.1
859.1,1457,15.1,13.6,91,11.49,100,4.3,301.0,335.0,303.1
858.7,1462,15.0,13.6,91,11.47,101,4.4,301.0,335.0,303.1
858.3,1466,15.0,13.6,91,11.46,102,4.4,301.0,334.9,303.1
857.8,1470,14.9,13.6,91,11.46,103,4.4,301.0,334.9,303.1
857.4,1474,14.9,13.6,92,11.48,103,4.5,301.0,335.0,303.1
857.0,1479,14.9,13.6,92,11.51,104,4.5,301.0,335.1,303.1
856.6,1483,14.8,13.6,93,11.54,105,4.6,301.0,335.2,303.1
856.1,1487,14.8,13.6,93,11.55,105,4.6,301.0,335.2,303.1
855.7,1491,14.8,13.6,93,11.55,106,4.6,301.0,335.2,303.1
855.3,1496,14.7,13.6,93,11.56,107,4.7,301.0,335.3,303.1
854.8,1501,14.7,13.7,93,11.57,107,4.7,301.0,335.3,303.1
854.3,1505,14.7,13.7,94,11.59,108,4.7,301.1,335.4,303.2
853.8,1510,14.6,13.7,94,11.62,108,4.7,301.1,335.5,303.2
853.3,1515,14.6,13.7,94,11.62,108,4.8,301.1,335.5,303.2
852.8,1520,14.5,13.7,95,11.60,109,4.8,301.1,335.4,303.2
852.3,1525,14.5,13.6,95,11.58,109,4.8,301.1,335.4,303.2
851.8,1530,14.4,13.6,95,11.56,109,4.8,301.1,335.3,303.2
851.3,1535,14.4,13.5,94,11.50,110,4.8,301.1,335.1,303.2
850.8,1540,14.4,13.4,94,11.41,110,4.8,301.1,334.9,303.2
850.4,1544,14.4,13.2,93,11.31,110,4.7,301.1,334.7,303.2
850.0,1548,14.4,13.2,92,11.27,110,4.7,301.2,334.6,303.2
849.5,1553,14.4,13.1,92,11.24,111,4.7,301.2,334.6,303.3
849.1,1557,14.4,13.1,92,11.23,111,4.7,301.3,334.6,303.3
848.6,1562,14.4,13.1,92,11.21,111,4.7,301.3,334.6,303.4
848.2,1566,14.4,13.0,92,11.20,112,4.6,301.4,334.6,303.4
847.7,1571,14.3,13.0,92,11.17,112,4.6,301.4,334.5,303.4
847.3,1576,14.3,12.9,91,11.11,112,4.6,301.4,334.4,303.4
846.8,1580,14.3,12.8,91,11.05,113,4.6,301.4,334.3,303.4
846.4,1585,14.3,12.7,90,10.97,113,4.6,301.5,334.1,303.5
845.9,1589,14.3,12.6,89,10.89,113,4.6,301.5,333.9,303.5
845.5,1593,14.3,12.5,89,10.83,114,4.6,301.6,333.7,303.5
845.1,1597,14.3,12.4,88,10.77,114,4.6,301.6,333.6,303.6
844.7,1601,14.3,12.4,88,10.74,114,4.6,301.7,333.6,303.6
844.3,1606,14.3,12.3,88,10.73,115,4.6,301.7,333.6,303.6
843.8,1610,14.3,12.3,88,10.70,115,4.7,301.7,333.6,303.7
843.3,1615,14.3,12.2,87,10.63,115,4.7,301.8,333.4,303.7
842.9,1620,14.3,12.0,86,10.52,115,4.8,301.9,333.2,303.8
842.4,1625,14.3,11.9,85,10.42,115,4.8,301.9,333.0,303.8
841.8,1630,14.3,11.8,85,10.38,115,4.9,301.9,332.9,303.8
841.3,1635,14.3,11.7,84,10.31,115,5.0,302.0,332.7,303.8
840.8,1640,14.3,11.5,83,10.17,115,5.1,302.0,332.3,303.9
840.3,1645,14.3,11.2,82,10.00,115,5.1,302.1,331.9,303.9
839.8,1650,14.4,11.0,80,9.85,114,5.2,302.2,331.6,304.0
839.3,1655,14.4,10.8,79,9.77,114,5.3,302.3,331.5,304.1
838.8,1661,14.4,10.8,79,9.72,113,5.4,302.4,331.4,304.1
838.3,1666,14.4,10.6,78,9.65,113,5.5,302.4,331.3,304.1
837.8,1670,14.4,10.5,78,9.57,112,5.7,302.4,331.1,304.2
837.4,1675,14.4,10.5,77,9.54,112,5.8,302.5,331.0,304.2
836.9,1679,14.3,10.4,77,9.54,111,5.9,302.5,331.0,304.2
836.5,1683,14.3,10.5,78,9.55,111,6.0,302.5,331.1,304.2
836.2,1687,14.3,10.5,78,9.57,110,6.1,302.5,331.2,304.2
835.8,1691,14.3,10.6,78,9.62,110,6.1,302.5,331.3,304.3
835.4,1695,14.3,10.6,78,9.63,109,6.2,302.6,331.4,304.3
835.1,1698,14.2,10.5,78,9.56,109,6.3,302.6,331.2,304.3
834.7,1702,14.3,10.2,77,9.43,108,6.4,302.6,330.9,304.4
834.2,1707,14.3,10.0,75,9.29,108,6.4,302.8,330.6,304.4
833.8,1711,14.4,9.9,75,9.22,108,6.5,302.8,330.5,304.5
