PRES,HGHT,TEMP,DWPT,RELH,MIXR,DRCT,SPED,THTA,THTE,THTV
1017.1,31,25.0,19.2,70,13.87,35,3.1,296.7,337.0,299.2
1016.8,33,25.5,19.2,68,13.92,31,2.1,297.3,337.8,299.7
1016.1,39,24.1,19.0,73,13.69,27,1.6,295.9,335.5,298.3
1015.5,44,23.8,19.0,75,13.77,24,1.5,295.6,335.4,298.1
1014.8,50,23.9,19.2,75,13.89,23,1.6,295.8,335.9,298.3
1014.1,56,23.9,19.0,74,13.78,23,1.7,295.9,335.7,298.3
1013.2,64,23.7,18.8,74,13.57,23,1.8,295.8,335.0,298.2
1012.5,70,23.7,18.7,73,13.54,23,1.8,295.8,335.0,298.2
1011.7,77,23.8,18.7,73,13.57,23,1.9,296.0,335.2,298.4
1010.9,84,23.7,18.6,73,13.44,23,1.9,295.9,334.8,298.3
1010.2,91,23.6,18.5,73,13.39,23,2.0,295.9,334.6,298.3
1009.4,98,23.6,18.4,73,13.35,23,2.0,295.9,334.5,298.3
1008.5,105,23.5,18.4,73,13.35,23,2.0,295.9,334.5,298.3
1007.7,112,23.5,18.5,74,13.41,24,2.0,296.0,334.8,298.4
1006.9,119,23.4,18.5,74,13.40,24,2.0,296.0,334.8,298.4
1006.0,126,23.4,18.4,74,13.37,24,2.0,296.0,334.7,298.4
1005.2,134,23.3,18.4,74,13.33,25,2.0,296.0,334.5,298.3
1004.3,141,23.2,18.3,74,13.32,25,2.0,296.0,334.5,298.3
1003.4,149,23.2,18.4,75,13.38,26,2.0,296.0,334.7,298.4
1002.6,156,23.1,18.4,75,13.42,26,2.0,296.0,334.9,298.4
1001.7,164,23.0,18.4,75,13.43,27,2.0,296.0,334.9,298.4
1000.9,171,22.7,18.3,76,13.31,28,1.9,295.8,334.3,298.2
1000.0,179,22.7,18.3,76,13.33,30,1.9,295.8,334.3,298.2
999.2,186,22.6,18.3,76,13.33,30,1.9,295.8,334.4,298.2
998.3,193,22.6,18.3,76,13.33,31,1.8,295.9,334.4,298.3
997.5,200,22.5,18.2,77,13.31,33,1.8,295.9,334.4,298.2
996.7,207,22.4,18.2,77,13.28,34,1.8,295.8,334.2,298.2
996.0,214,22.2,18.1,77,13.19,35,1.8,295.7,333.9,298.1
995.2,221,22.2,18.1,78,13.26,37,1.8,295.8,334.1,298.1
994.5,227,22.1,18.2,78,13.31,38,1.7,295.7,334.2,298.1
993.7,234,21.9,18.1,79,13.25,40,1.7,295.6,333.8,297.9
992.9,241,21.7,18.1,80,13.27,41,1.7,295.5,333.8,297.8
992.0,249,21.7,18.2,80,13.33,42,1.7,295.5,334.0,297.9
991.2,256,21.6,18.1,81,13.32,44,1.8,295.5,333.9,297.8
990.3,264,21.5,18.1,81,13.30,45,1.8,295.5,333.9,297.9
989.5,271,21.5,18.0,81,13.27,46,1.8,295.5,333.9,297.9
988.6,279,21.4,18.0,81,13.24,48,1.8,295.5,333.8,297.9
987.8,286,21.3,18.0,81,13.26,49,1.9,295.5,333.8,297.9
986.9,293,21.4,18.1,82,13.34,50,1.9,295.6,334.1,298.0
986.1,300,21.3,18.0,82,13.30,51,1.9,295.6,334.0,298.0
985.3,308,21.2,17.9,82,13.23,52,2.0,295.6,333.8,297.9
984.5,314,21.1,18.0,82,13.27,53,2.0,295.6,333.9,297.9
983.8,321,21.1,18.0,82,13.31,54,2.1,295.6,334.1,298.0
983.0,328,21.0,18.0,83,13.33,55,2.2,295.6,334.1,298.0
982.2,335,20.9,18.0,83,13.34,56,2.2,295.6,334.1,298.0
981.5,342,20.9,18.0,84,13.36,56,2.3,295.6,334.2,298.0
980.7,348,20.8,18.0,84,13.39,57,2.3,295.6,334.3,298.0
980.0,355,20.7,18.0,84,13.35,58,2.4,295.6,334.1,297.9
979.2,362,20.6,17.9,85,13.31,59,2.4,295.5,334.0,297.9
978.5,368,20.6,17.9,85,13.32,60,2.5,295.6,334.0,297.9
977.7,375,20.6,17.9,85,13.32,61,2.5,295.6,334.1,298.0
977.0,382,20.6,17.9,85,13.34,62,2.5,295.7,334.2,298.0
976.2,388,20.5,17.9,85,13.35,63,2.6,295.7,334.3,298.1
975.6,394,20.5,17.9,85,13.32,64,2.6,295.7,334.2,298.1
974.9,400,20.4,17.8,85,13.25,65,2.6,295.7,333.9,298.0
974.3,405,20.2,17.6,85,13.10,66,2.6,295.6,333.4,297.9
973.7,411,20.1,17.5,85,13.03,67,2.6,295.5,333.1,297.8
973.1,416,20.1,17.4,85,12.97,69,2.6,295.5,333.0,297.8
972.6,421,20.1,17.4,84,12.92,71,2.6,295.6,332.9,297.8
972.0,426,20.1,17.4,85,12.96,73,2.6,295.6,333.0,297.9
971.4,431,20.0,17.5,85,13.04,75,2.5,295.6,333.3,297.9
970.8,436,20.0,17.5,86,13.10,77,2.5,295.6,333.4,297.9
970.2,442,19.9,17.5,86,13.11,80,2.5,295.6,333.4,297.9
969.6,447,19.8,17.5,86,13.06,82,2.5,295.6,333.3,297.9
969.0,453,19.8,17.4,86,12.98,85,2.5,295.6,333.0,297.9
968.4,458,19.7,17.3,86,12.91,88,2.5,295.6,332.9,297.9
967.8,463,19.7,17.3,86,12.91,91,2.5,295.6,332.9,297.9
967.2,469,19.6,17.3,87,12.97,94,2.6,295.6,333.0,297.9
966.6,474,19.6,17.4,87,13.03,97,2.6,295.6,333.2,297.9
966.1,479,19.5,17.4,87,13.05,99,2.7,295.6,333.3,297.9
965.5,483,19.5,17.3,87,13.00,102,2.7,295.6,333.1,297.9
965.0,489,19.4,17.3,87,12.97,104,2.8,295.6,333.0,297.9
964.4,494,19.4,17.3,88,13.00,107,2.9,295.6,333.1,297.9
963.8,499,19.3,17.3,88,13.02,109,3.0,295.6,333.2,297.9
963.3,504,19.3,17.3,88,12.97,111,3.1,295.6,333.0,297.9
962.7,509,19.3,17.2,88,12.89,112,3.2,295.6,332.8,297.9
962.2,513,19.2,17.1,87,12.84,114,3.3,295.6,332.7,297.9
961.6,518,19.2,17.0,87,12.81,115,3.4,295.6,332.7,297.9
961.1,523,19.2,17.0,87,12.76,116,3.5,295.7,332.5,297.9
960.6,528,19.2,16.9,86,12.70,117,3.6,295.7,332.4,298.0
960.1,532,19.2,16.9,86,12.69,118,3.7,295.8,332.5,298.0
959.5,537,19.1,16.9,87,12.75,119,3.8,295.7,332.6,298.0
959.0,542,19.1,17.0,88,12.78,119,3.9,295.7,332.6,298.0
958.5,546,19.0,16.9,88,12.74,120,4.0,295.7,332.5,298.0
958.0,551,19.0,16.8,88,12.70,121,4.1,295.7,332.4,298.0
957.5,556,18.9,16.8,88,12.68,121,4.1,295.7,332.4,298.0
957.0,560,18.9,16.8,88,12.67,122,4.2,295.7,332.3,298.0
956.5,564,18.9,16.8,88,12.68,122,4.3,295.7,332.4,298.0
956.1,568,18.8,16.8,88,12.70,122,4.4,295.7,332.5,298.0
955.7,572,18.8,16.8,88,12.72,123,4.4,295.7,332.5,298.0
955.3,575,18.7,16.9,89,12.76,123,4.5,295.7,332.6,298.0
954.9,579,18.7,16.9,89,12.81,123,4.5,295.7,332.7,298.0
954.4,583,18.7,16.9,90,12.82,124,4.6,295.7,332.8,298.0
954.0,587,18.6,16.9,90,12.79,124,4.6,295.7,332.7,298.0
953.6,591,18.6,16.8,89,12.75,124,4.7,295.7,332.6,298.0
953.2,595,18.6,16.7,89,12.66,124,4.7,295.8,332.4,298.0
952.7,599,18.6,16.6,88,12.57,125,4.8,295.8,332.2,298.0
952.2,603,18.6,16.5,88,12.52,125,4.8,295.9,332.1,298.1
951.8,607,18.6,16.5,88,12.50,125,4.8,295.9,332.0,298.1
951.3,611,18.5,16.5,88,12.49,125,4.9,295.9,332.0,298.1
950.9,615,18.5,16.5,88,12.49,125,4.9,295.9,332.0,298.1
950.4,619,18.5,16.5,88,12.51,124,4.9,295.9,332.1,298.1
950.0,623,18.4,16.5,88,12.52,124,4.9,295.9,332.1,298.1
949.6,627,18.4,16.5,88,12.50,124,5.0,295.9,332.1,298.1
949.1,631,18.4,16.5,89,12.50,123,5.0,295.9,332.1,298.1
948.7,635,18.3,16.5,89,12.50,123,5.0,295.9,332.1,298.1
948.2,639,18.3,16.4,89,12.46,122,5.0,295.9,332.0,298.1
947.8,643,18.3,16.3,89,12.43,121,5.0,295.9,331.9,298.1
947.3,648,18.2,16.3,89,12.43,121,5.1,295.9,331.9,298.1
946.7,653,18.2,16.3,89,12.44,120,5.1,295.9,331.9,298.1
946.2,657,18.1,16.4,89,12.47,119,5.1,295.9,332.0,298.1
945.7,662,18.1,16.3,90,12.46,118,5.1,295.9,331.9,298.1
945.2,666,18.0,16.3,89,12.40,117,5.1,295.9,331.8,298.1
944.8,671,18.0,16.2,89,12.36,116,5.1,295.9,331.7,298.1
944.3,675,18.0,16.2,89,12.35,115,5.1,295.9,331.6,298.1
943.8,679,17.9,16.2,90,12.34,114,5.1,295.9,331.6,298.1
943.4,683,17.9,16.2,90,12.34,113,5.1,295.9,331.6,298.1
942.9,687,17.8,16.2,90,12.36,113,5.1,295.9,331.7,298.1
942.5,691,17.8,16.2,91,12.40,112,5.1,295.9,331.8,298.1
942.0,695,17.7,16.2,91,12.41,111,5.1,295.9,331.8,298.1
941.6,699,17.7,16.1,90,12.32,110,5.1,295.9,331.5,298.1
941.1,704,17.6,16.0,90,12.28,109,5.0,295.9,331.4,298.1
940.6,708,17.6,16.1,91,12.32,108,5.0,295.9,331.6,298.1
940.2,713,17.6,16.1,91,12.34,108,5.0,295.9,331.6,298.1
939.7,717,17.5,16.1,91,12.33,107,4.9,295.9,331.6,298.1
939.2,721,17.5,16.0,91,12.28,106,4.9,295.9,331.4,298.1
938.7,726,17.5,16.0,91,12.24,105,4.9,295.9,331.3,298.1
938.2,730,17.4,15.9,91,12.21,105,4.8,295.9,331.2,298.1
937.8,734,17.4,15.9,91,12.20,104,4.8,295.9,331.2,298.1
937.3,738,17.3,15.9,91,12.22,103,4.7,295.9,331.3,298.1
936.9,743,17.3,15.9,92,12.24,102,4.6,295.9,331.3,298.1
936.4,747,17.3,15.9,92,12.25,102,4.6,295.9,331.4,298.1
935.9,751,17.2,16.0,92,12.29,101,4.5,295.9,331.5,298.1
935.5,755,17.2,16.0,93,12.33,100,4.5,295.9,331.6,298.1
935.0,760,17.1,16.0,93,12.33,99,4.4,295.9,331.6,298.1
934.5,764,17.1,16.0,93,12.30,98,4.3,295.9,331.5,298.1
934.1,768,17.0,15.9,93,12.28,97,4.3,295.9,331.4,298.1
933.6,772,17.0,15.9,93,12.29,96,4.2,295.9,331.5,298.1
933.1,777,17.0,15.9,94,12.30,95,4.2,295.9,331.5,298.1
932.7,781,16.9,16.0,94,12.32,94,4.1,295.9,331.6,298.1
932.3,785,16.9,16.0,94,12.32,94,4.0,295.9,331.6,298.1
931.8,789,16.9,16.0,94,12.34,93,4.0,295.9,331.6,298.1
931.4,793,16.8,16.0,95,12.37,92,3.9,295.9,331.7,298.1
931.0,796,16.8,16.0,95,12.39,91,3.9,295.9,331.8,298.1
930.6,800,16.8,16.0,95,12.39,90,3.9,295.9,331.8,298.1
930.2,804,16.7,16.0,95,12.38,89,3.8,295.9,331.8,298.1
929.8,807,16.7,16.0,96,12.37,88,3.8,295.9,331.7,298.1
929.5,810,16.7,15.9,96,12.35,88,3.8,295.9,331.7,298.1
929.1,813,16.6,15.9,96,12.33,88,3.7,295.9,331.6,298.1
928.8,817,16.6,15.9,96,12.33,87,3.7,295.9,331.6,298.1
928.4,820,16.6,15.9,96,12.35,87,3.7,295.9,331.7,298.1
928.1,823,16.6,16.0,96,12.38,87,3.7,295.9,331.8,298.1
927.7,827,16.5,16.0,97,12.40,87,3.7,295.9,331.8,298.2
927.3,831,16.5,16.0,97,12.40,88,3.7,295.9,331.8,298.1
926.8,835,16.5,15.9,97,12.39,88,3.8,296.0,331.8,298.2
926.3,839,16.4,15.9,97,12.39,89,3.8,296.0,331.8,298.2
925.8,844,16.3,15.9,97,12.39,90,3.8,295.9,331.8,298.1
925.3,849,16.3,15.9,98,12.38,91,3.9,295.9,331.7,298.1
925.0,852,16.2,15.9,98,12.36,91,3.9,295.9,331.7,298.1
924.8,853,16.2,15.8,98,12.33,92,3.9,295.9,331.6,298.1
924.3,858,16.2,15.8,97,12.29,93,4.0,295.9,331.5,298.1
923.8,863,16.1,15.7,98,12.26,94,4.0,295.9,331.4,298.1
923.2,868,16.1,15.7,97,12.24,96,4.1,295.9,331.3,298.1
922.7,873,16.1,15.7,98,12.24,97,4.2,295.9,331.4,298.1
922.2,878,16.0,15.7,98,12.29,98,4.2,295.9,331.5,298.1
921.6,883,16.0,15.8,99,12.31,99,4.3,295.9,331.6,298.1
921.1,888,15.9,15.7,99,12.30,100,4.4,295.9,331.5,298.1
920.5,893,15.9,15.7,99,12.27,102,4.4,295.9,331.5,298.1
920.0,898,15.8,15.7,99,12.26,103,4.5,295.9,331.4,298.1
919.5,903,15.8,15.6,99,12.22,104,4.5,295.9,331.3,298.1
919.0,907,15.7,15.5,99,12.17,105,4.5,295.9,331.1,298.1
918.5,912,15.7,15.5,99,12.14,105,4.6,296.0,331.1,298.1
918.0,916,15.7,15.5,99,12.17,106,4.6,296.0,331.2,298.2
917.6,920,15.7,15.6,99,12.23,107,4.5,296.0,331.5,298.2
917.1,925,15.7,15.5,99,12.18,108,4.5,296.1,331.4,298.3
916.7,929,15.8,15.2,96,11.90,108,4.5,296.2,330.7,298.3
916.2,933,15.9,14.6,92,11.45,109,4.4,296.3,329.6,298.4
915.8,937,16.0,14.2,90,11.22,110,4.3,296.5,329.1,298.5
915.3,941,16.0,14.2,89,11.16,110,4.2,296.6,329.0,298.6
914.8,946,16.1,14.1,88,11.10,111,4.1,296.7,329.0,298.7
914.3,950,16.2,14.0,87,11.04,111,3.9,296.8,328.9,298.8
913.8,955,16.2,13.9,86,10.97,111,3.7,296.9,328.8,298.8
913.3,960,16.2,13.7,85,10.87,111,3.6,296.9,328.6,298.8
912.7,965,16.2,13.5,84,10.70,112,3.4,297.0,328.2,298.9
912.2,970,16.2,13.3,83,10.57,112,3.2,297.0,327.9,298.9
911.7,975,16.2,13.2,82,10.50,112,3.0,297.1,327.8,299.0
911.1,980,16.2,13.0,81,10.39,112,2.8,297.2,327.5,299.0
910.6,985,16.3,12.7,79,10.15,111,2.6,297.3,327.0,299.1
910.1,990,16.4,12.1,75,9.77,111,2.4,297.5,326.1,299.2
909.6,995,16.7,11.3,71,9.29,111,2.2,297.8,325.0,299.4
909.0,1000,16.9,10.3,65,8.68,110,2.0,298.1,323.7,299.6
908.5,1005,17.2,9.0,58,7.94,109,1.9,298.4,322.0,299.9
908.0,1009,17.6,7.4,51,7.11,108,1.7,298.9,320.1,300.2
907.6,1014,18.1,6.0,45,6.49,106,1.6,299.4,318.8,300.6
907.1,1018,18.4,5.4,43,6.22,105,1.5,299.8,318.5,300.9
906.6,1022,18.5,5.1,41,6.10,103,1.4,300.0,318.3,301.1
906.2,1027,18.6,5.1,41,6.09,101,1.3,300.0,318.4,301.1
905.8,1031,18.6,5.3,42,6.15,99,1.2,300.1,318.6,301.2
905.3,1035,18.5,5.4,42,6.20,97,1.2,300.1,318.8,301.2
904.9,1039,18.5,5.4,42,6.22,95,1.2,300.1,318.8,301.2
904.4,1043,18.5,5.4,42,6.23,93,1.2,300.1,318.9,301.2
903.9,1048,18.4,5.4,42,6.21,91,1.2,300.1,318.8,301.2
903.5,1053,18.4,5.2,42,6.13,90,1.2,300.1,318.6,301.2
902.9,1057,18.4,4.9,41,6.01,89,1.2,300.2,318.3,301.3
902.4,1062,18.4,4.7,40,5.94,88,1.3,300.3,318.2,301.3
901.9,1067,18.4,4.7,40,5.93,88,1.3,300.3,318.2,301.4
901.4,1072,18.4,4.7,40,5.96,87,1.3,300.3,318.3,301.4
900.9,1077,18.3,4.8,41,6.01,87,1.4,300.3,318.4,301.4
900.4,1081,18.3,4.8,41,6.00,87,1.4,300.3,318.4,301.4
900.0,1086,18.3,4.7,40,5.94,87,1.5,300.4,318.3,301.4
899.5,1090,18.4,4.3,39,5.81,86,1.5,300.5,318.0,301.5
899.1,1094,18.4,3.9,38,5.63,86,1.6,300.6,317.6,301.6
898.7,1098,18.5,3.6,37,5.50,86,1.6,300.7,317.4,301.7
898.2,1102,18.6,3.3,36,5.42,86,1.6,300.8,317.3,301.8
897.8,1106,18.6,3.2,36,5.36,85,1.7,300.9,317.2,301.9
897.4,1110,18.6,2.9,35,5.27,85,1.7,301.0,317.0,301.9
896.9,1115,18.7,2.3,34,5.06,84,1.7,301.1,316.5,302.0
896.5,1119,18.8,1.3,31,4.71,84,1.7,301.2,315.6,302.1
896.0,1124,19.0,0.1,28,4.31,83,1.7,301.4,314.7,302.2
895.5,1129,19.1,-0.8,26,4.02,82,1.7,301.6,314.0,302.3
894.9,1134,19.2,-1.3,25,3.89,82,1.7,301.7,313.8,302.5
894.4,1139,19.2,-1.5,25,3.83,81,1.7,301.9,313.7,302.6
893.9,1144,19.3,-1.7,24,3.78,80,1.7,302.0,313.7,302.7
893.3,1149,19.4,-1.9,24,3.72,79,1.6,302.1,313.7,302.8
892.8,1154,19.4,-2.1,23,3.68,79,1.6,302.2,313.6,302.9
892.3,1159,19.4,-2.2,23,3.65,78,1.6,302.3,313.6,302.9
891.8,1164,19.4,-2.3,23,3.63,78,1.6,302.3,313.6,303.0
891.4,1168,19.4,-2.4,23,3.60,78,1.6,302.3,313.5,303.0
890.9,1172,19.4,-2.5,23,3.57,77,1.5,302.4,313.5,303.0
890.5,1177,19.4,-2.6,22,3.55,77,1.5,302.4,313.5,303.1
890.1,1181,19.4,-2.6,22,3.55,78,1.5,302.4,313.5,303.1
889.6,1185,19.4,-2.7,22,3.53,78,1.4,302.5,313.5,303.1
889.2,1189,19.4,-2.8,22,3.50,78,1.4,302.5,313.4,303.1
888.7,1194,19.4,-3.1,22,3.42,79,1.3,302.6,313.3,303.2
888.3,1198,19.5,-3.6,21,3.30,80,1.3,302.7,313.0,303.3
887.8,1202,19.6,-4.4,19,3.12,81,1.3,302.9,312.7,303.4
887.3,1207,19.7,-5.1,18,2.95,82,1.2,303.0,312.3,303.6
886.9,1212,19.8,-6.1,17,2.74,84,1.2,303.1,311.8,303.7
886.4,1216,19.9,-7.0,16,2.55,85,1.1,303.3,311.4,303.8
885.9,1221,20.0,-7.3,15,2.49,87,1.0,303.4,311.4,303.9
885.4,1226,20.0,-7.2,15,2.51,89,1.0,303.5,311.5,304.0
884.9,1231,20.0,-7.2,15,2.52,91,0.9,303.6,311.6,304.0
884.3,1236,20.0,-7.3,15,2.50,94,0.9,303.7,311.7,304.1
883.8,1242,20.1,-7.4,15,2.47,97,0.8,303.7,311.6,304.2
883.2,1247,20.1,-7.6,15,2.44,100,0.7,303.8,311.6,304.3
882.7,1252,20.1,-7.9,14,2.40,103,0.7,303.9,311.6,304.3
882.1,1257,20.1,-8.0,14,2.36,107,0.6,304.0,311.5,304.4
881.6,1263,20.1,-8.3,14,2.32,111,0.5,304.0,311.5,304.5
881.1,1268,20.2,-8.6,14,2.27,114,0.5,304.1,311.4,304.5
880.5,1273,20.2,-8.9,13,2.22,119,0.4,304.2,311.3,304.6
880.0,1278,20.2,-9.1,13,2.18,123,0.4,304.3,311.3,304.7
879.5,1283,20.2,-9.2,13,2.17,128,0.3,304.3,311.3,304.7
879.0,1288,20.2,-9.3,13,2.16,134,0.2,304.3,311.3,304.7
878.4,1294,20.2,-9.3,13,2.16,141,0.2,304.4,311.3,304.8
877.9,1299,20.2,-9.3,13,2.16,152,0.1,304.4,311.4,304.8
877.4,1304,20.1,-9.2,13,2.16,0,0.0,304.4,311.4,304.8
876.8,1310,20.1,-9.3,13,2.16,0,0.0,304.5,311.5,304.9
876.3,1315,20.1,-9.3,13,2.15,307,0.1,304.5,311.5,304.9
875.7,1320,20.1,-9.4,13,2.14,317,0.2,304.6,311.5,305.0
875.2,1326,20.1,-9.5,13,2.12,324,0.3,304.6,311.5,305.0
874.7,1331,20.1,-9.6,13,2.11,328,0.3,304.7,311.5,305.1
874.2,1336,20.1,-9.8,12,2.09,332,0.4,304.7,311.5,305.1
873.7,1340,20.1,-9.9,12,2.06,335,0.5,304.8,311.4,305.1
873.2,1345,20.1,-10.0,12,2.04,338,0.6,304.8,311.4,305.2
872.7,1350,20.1,-10.2,12,2.02,340,0.7,304.8,311.4,305.2
872.2,1355,20.0,-10.3,12,2.01,342,0.8,304.9,311.4,305.2
871.7,1359,20.0,-10.3,12,2.00,344,1.0,304.9,311.4,305.3
871.3,1364,20.0,-10.5,12,1.98,346,1.1,304.9,311.4,305.3
870.8,1368,20.0,-10.6,12,1.95,347,1.2,305.0,311.4,305.4
870.4,1373,20.1,-10.8,11,1.93,349,1.3,305.1,311.3,305.4
870.0,1377,20.1,-11.0,11,1.90,350,1.4,305.1,311.3,305.5
869.5,1381,20.1,-11.5,11,1.83,351,1.5,305.2,311.2,305.6
869.0,1386,20.2,-11.9,10,1.77,352,1.6,305.3,311.1,305.6
868.6,1391,20.2,-12.1,10,1.74,352,1.8,305.4,311.1,305.7
868.1,1396,20.3,-11.9,10,1.77,353,1.9,305.5,311.3,305.9
867.6,1400,20.3,-11.6,11,1.81,353,2.0,305.6,311.5,305.9
867.1,1405,20.3,-11.3,11,1.85,354,2.0,305.7,311.7,306.0
866.6,1410,20.3,-11.1,11,1.90,354,2.1,305.7,311.9,306.1
866.1,1415,20.3,-10.7,11,1.95,355,2.2,305.8,312.2,306.2
865.6,1420,20.4,-10.4,12,2.00,355,2.3,305.9,312.4,306.2
865.2,1425,20.4,-10.3,12,2.01,355,2.3,305.9,312.5,306.3
864.7,1429,20.3,-10.3,12,2.02,355,2.4,305.9,312.5,306.3
864.2,1434,20.3,-10.2,12,2.03,356,2.4,306.0,312.6,306.3
863.8,1438,20.3,-10.1,12,2.05,356,2.5,306.0,312.7,306.4
863.3,1443,20.4,-9.9,12,2.09,356,2.5,306.1,312.9,306.5
862.8,1448,20.4,-9.6,12,2.13,356,2.5,306.2,313.1,306.6
862.3,1453,20.4,-9.5,12,2.16,356,2.5,306.2,313.2,306.6
861.8,1458,20.4,-9.4,13,2.18,356,2.5,306.3,313.3,306.7
861.3,1463,20.4,-9.3,13,2.19,356,2.5,306.3,313.4,306.7
860.8,1468,20.4,-9.3,13,2.19,355,2.5,306.4,313.5,306.8
860.3,1473,20.4,-9.4,13,2.18,355,2.5,306.4,313.5,306.8
859.9,1477,20.4,-9.4,13,2.18,355,2.5,306.4,313.5,306.8
859.4,1482,20.3,-9.4,13,2.19,354,2.5,306.5,313.6,306.9
859.0,1486,20.3,-9.3,13,2.21,354,2.4,306.5,313.6,306.9
858.6,1490,20.3,-9.2,13,2.22,353,2.4,306.5,313.7,306.9
858.2,1494,20.2,-9.2,13,2.23,353,2.4,306.5,313.7,306.9
857.7,1499,20.2,-9.2,13,2.23,352,2.4,306.5,313.7,306.9
857.3,1503,20.2,-9.2,13,2.22,352,2.3,306.5,313.7,306.9
856.9,1507,20.1,-9.2,13,2.22,351,2.3,306.5,313.7,306.9
856.5,1511,20.1,-9.2,13,2.23,350,2.3,306.5,313.8,306.9
856.1,1515,20.1,-9.1,13,2.24,349,2.3,306.6,313.8,307.0
855.7,1519,20.1,-9.1,13,2.24,349,2.2,306.6,313.9,307.0
855.3,1523,20.1,-9.0,13,2.27,348,2.2,306.7,314.0,307.1
854.9,1527,20.2,-8.6,14,2.34,347,2.2,306.7,314.3,307.2
854.5,1531,20.2,-7.7,15,2.51,347,2.2,306.8,314.9,307.3
854.1,1535,20.3,-6.2,16,2.81,346,2.1,306.9,316.0,307.5
853.7,1539,20.3,-5.4,17,2.99,346,2.1,307.0,316.6,307.6
853.3,1543,20.4,-5.5,17,2.98,346,2.1,307.1,316.7,307.7
852.9,1547,20.4,-5.7,17,2.93,345,2.1,307.2,316.6,307.7
852.6,1551,20.4,-5.8,17,2.91,345,2.1,307.2,316.5,307.7
852.2,1554,20.3,-5.8,17,2.91,345,2.1,307.2,316.6,307.8
851.9,1558,20.3,-5.8,17,2.92,345,2.0,307.2,316.6,307.8
851.5,1562,20.3,-5.8,17,2.92,346,2.0,307.3,316.6,307.8
851.1,1565,20.3,-5.8,17,2.92,346,2.0,307.3,316.7,307.8
850.8,1569,20.3,-5.8,17,2.93,346,2.0,307.3,316.7,307.8
850.4,1573,20.3,-5.8,17,2.92,347,1.9,307.3,316.7,307.8
850.0,1577,20.2,-5.8,17,2.92,347,1.9,307.3,316.7,307.9
849.6,1581,20.2,-5.8,17,2.92,349,1.9,307.3,316.7,307.9
849.1,1585,20.2,-5.8,17,2.93,350,1.9,307.3,316.8,307.9
848.7,1590,20.1,-5.7,17,2.94,351,1.9,307.3,316.8,307.9
848.1,1595,20.1,-5.7,17,2.96,352,1.9,307.4,316.8,307.9
847.6,1601,20.0,-5.7,17,2.96,353,1.9,307.4,316.8,307.9
847.1,1606,20.0,-5.7,17,2.95,354,1.9,307.4,316.8,307.9
846.6,1611,19.9,-5.8,17,2.94,355,1.9,307.4,316.8,307.9
846.1,1616,19.9,-5.8,17,2.94,356,1.9,307.4,316.8,307.9
845.6,1621,19.9,-5.8,17,2.94,358,1.9,307.4,316.8,307.9
845.2,1626,19.8,-5.8,17,2.94,359,1.9,307.4,316.8,307.9
844.7,1630,19.8,-5.8,17,2.93,360,1.9,307.4,316.8,307.9
844.3,1634,19.7,-5.8,17,2.93,1,1.9,307.4,316.8,307.9
843.9,1638,19.7,-5.8,17,2.94,2,2.0,307.4,316.8,307.9
843.5,1642,19.7,-5.8,17,2.95,3,2.0,307.4,316.9,308.0
843.1,1646,19.6,-5.8,17,2.95,3,2.0,307.4,316.9,308.0
842.8,1650,19.6,-5.7,18,2.96,4,2.1,307.4,316.9,308.0
842.4,1654,19.6,-5.7,18,2.96,5,2.1,307.4,316.9,308.0
842.0,1658,19.5,-5.7,18,2.96,5,2.2,307.4,316.9,308.0
841.6,1662,19.5,-5.7,18,2.96,5,2.2,307.4,316.9,308.0
841.2,1666,19.5,-5.7,18,2.97,6,2.3,307.4,317.0,308.0
840.7,1671,19.4,-5.7,18,2.97,6,2.3,307.4,317.0,308.0
840.2,1676,19.4,-5.7,18,2.97,6,2.3,307.4,317.0,308.0
839.8,1681,19.3,-5.7,18,2.97,6,2.4,307.5,317.0,308.0
839.3,1686,19.3,-5.7,18,2.98,6,2.4,307.5,317.0,308.0
838.8,1691,19.3,-5.7,18,2.97,6,2.4,307.5,317.0,308.0
838.2,1696,19.2,-5.8,18,2.97,5,2.5,307.5,317.0,308.0
837.7,1701,19.2,-5.8,18,2.96,5,2.5,307.5,317.0,308.1
837.2,1706,19.2,-5.8,18,2.96,5,2.5,307.5,317.0,308.1
836.8,1711,19.2,-5.8,18,2.95,4,2.5,307.6,317.1,308.1
836.3,1716,19.1,-6.0,18,2.93,4,2.5,307.6,317.0,308.1
835.8,1721,19.1,-6.1,18,2.90,3,2.5,307.6,316.9,308.2
835.3,1726,19.1,-6.2,17,2.87,3,2.4,307.6,316.9,308.2
834.8,1732,19.0,-6.2,17,2.88,2,2.4,307.7,316.9,308.2
834.2,1737,19.0,-6.2,18,2.89,1,2.4,307.7,317.0,308.2
833.7,1743,19.0,-6.2,18,2.89,360,2.3,307.7,317.0,308.2
833.1,1749,18.9,-6.2,18,2.89,359,2.2,307.7,317.0,308.2
832.6,1754,18.9,-6.2,18,2.89,357,2.2,307.7,317.0,308.2
832.0,1760,18.8,-6.2,18,2.89,356,2.1,307.7,317.0,308.3
831.5,1766,18.8,-6.3,18,2.88,354,2.0,307.7,317.0,308.3
831.0,1771,18.7,-6.3,18,2.87,352,2.0,307.7,317.0,308.3
830.5,1776,18.7,-6.4,18,2.86,350,1.9,307.8,317.0,308.3
830.0,1781,18.7,-6.4,18,2.85,347,1.8,307.8,317.0,308.3
829.5,1786,18.6,-6.4,18,2.86,344,1.7,307.8,317.0,308.3
829.0,1792,18.6,-6.3,18,2.87,341,1.7,307.8,317.0,308.3
828.5,1797,18.5,-6.3,18,2.89,338,1.6,307.8,317.1,308.3
828.0,1801,18.5,-6.2,18,2.90,334,1.6,307.8,317.2,308.4
827.5,1806,18.5,-6.2,18,2.90,330,1.5,307.8,317.2,308.4
827.1,1811,18.5,-6.3,18,2.89,326,1.5,307.9,317.2,308.4
826.6,1816,18.4,-6.3,18,2.88,322,1.4,307.9,317.2,308.4
