PRES,HGHT,TEMP,DWPT,RELH,MIXR,DRCT,SPED,THTA,THTE,THTV
1014.7,31,29.7,21.9,63,16.57,77,6.5,301.6,350.7,304.6
1014.2,35,29.3,22.0,65,16.66,79,4.2,301.3,350.6,304.3
1013.8,39,28.9,22.0,66,16.66,80,3.9,300.9,350.1,303.9
1013.0,46,28.4,21.9,68,16.59,80,4.1,300.4,349.3,303.4
1012.1,53,27.8,21.8,70,16.47,80,4.4,299.9,348.3,302.8
1011.4,60,27.2,21.6,71,16.24,79,4.7,299.3,347.0,302.3
1010.8,65,26.6,21.2,72,15.91,79,5.0,298.8,345.4,301.7
1010.1,71,26.1,20.9,73,15.62,79,5.3,298.4,344.0,301.2
1009.5,76,25.8,20.8,74,15.52,79,5.6,298.1,343.4,300.9
1008.8,82,25.6,20.9,75,15.59,79,5.8,298.0,343.5,300.8
1008.2,88,25.5,21.0,76,15.69,79,6.1,297.9,343.7,300.7
1007.6,93,25.4,20.9,76,15.63,79,6.3,297.9,343.5,300.7
1007.0,98,25.4,20.8,76,15.51,79,6.5,297.9,343.1,300.7
1006.4,104,25.3,20.7,76,15.48,79,6.7,297.9,343.0,300.7
1005.8,109,25.3,20.7,76,15.46,79,6.9,297.9,342.9,300.7
1005.3,113,25.2,20.6,76,15.39,79,7.1,297.9,342.8,300.7
1004.7,118,25.2,20.6,76,15.35,79,7.3,297.9,342.6,300.7
1004.2,122,25.1,20.5,76,15.32,79,7.4,297.9,342.6,300.7
1003.7,127,25.1,20.5,76,15.30,79,7.5,297.9,342.5,300.7
1003.2,132,25.0,20.5,76,15.29,79,7.6,297.9,342.5,300.6
1002.6,136,25.0,20.4,76,15.26,79,7.7,297.9,342.4,300.7
1002.1,141,25.0,20.5,76,15.32,79,7.8,297.9,342.6,300.7
1001.5,146,24.9,20.6,77,15.45,79,7.9,297.9,343.0,300.7
1001.0,151,24.9,20.6,77,15.48,79,7.9,297.9,343.1,300.7
1000.4,156,24.8,20.5,77,15.39,79,8.0,297.9,342.8,300.7
1000.0,160,24.8,20.5,77,15.32,79,8.0,297.9,342.6,300.7
999.8,161,24.8,20.4,77,15.29,79,8.0,297.9,342.5,300.7
999.2,166,24.7,20.4,77,15.25,80,8.0,297.9,342.4,300.6
998.6,172,24.7,20.4,77,15.29,80,8.1,297.9,342.5,300.7
998.1,177,24.6,20.4,78,15.32,80,8.1,297.9,342.6,300.7
997.5,181,24.6,20.4,78,15.29,80,8.1,297.9,342.5,300.6
997.0,186,24.5,20.3,78,15.25,80,8.1,297.9,342.4,300.6
996.4,191,24.5,20.3,78,15.24,80,8.1,297.9,342.3,300.6
995.9,196,24.4,20.3,78,15.21,80,8.1,297.9,342.3,300.7
995.4,200,24.4,20.2,78,15.17,80,8.1,297.9,342.2,300.6
994.8,205,24.4,20.2,78,15.14,80,8.2,297.9,342.1,300.6
994.3,210,24.3,20.2,78,15.15,80,8.2,297.9,342.1,300.6
993.8,215,24.3,20.2,78,15.19,80,8.2,297.9,342.2,300.6
993.2,219,24.2,20.2,78,15.21,80,8.2,298.0,342.3,300.7
992.7,224,24.2,20.3,79,15.29,80,8.2,297.9,342.5,300.7
992.1,229,24.1,20.4,80,15.37,79,8.3,297.9,342.7,300.7
991.5,234,24.0,20.4,80,15.36,79,8.3,297.9,342.7,300.7
991.0,239,24.0,20.3,80,15.30,79,8.3,297.9,342.5,300.6
990.4,244,24.0,20.2,80,15.21,79,8.3,297.9,342.2,300.6
989.9,249,23.9,20.1,79,15.11,79,8.3,297.9,341.9,300.6
989.3,254,23.9,20.0,79,15.04,78,8.4,297.9,341.8,300.6
988.8,258,23.8,20.0,79,15.04,78,8.4,297.9,341.8,300.6
988.3,263,23.8,20.0,79,15.09,78,8.4,298.0,341.9,300.6
987.8,267,23.8,20.0,79,15.04,78,8.4,297.9,341.8,300.6
987.4,271,23.7,19.8,79,14.91,77,8.5,297.9,341.4,300.6
986.9,276,23.7,19.7,78,14.82,77,8.5,298.0,341.2,300.6
986.4,280,23.7,19.7,79,14.84,77,8.5,298.0,341.2,300.6
985.9,284,23.6,19.8,79,14.88,77,8.5,298.0,341.3,300.6
985.4,289,23.6,19.8,79,14.92,77,8.5,298.0,341.4,300.6
984.9,293,23.5,19.8,80,14.96,76,8.5,298.0,341.6,300.6
984.4,297,23.5,20.0,81,15.09,76,8.4,297.9,341.9,300.6
983.9,302,23.4,20.1,82,15.19,76,8.4,297.9,342.2,300.6
983.4,307,23.4,20.1,82,15.22,76,8.4,297.9,342.3,300.6
982.9,311,23.3,20.0,82,15.19,76,8.4,297.9,342.2,300.6
982.3,316,23.2,20.0,82,15.16,76,8.3,297.9,342.1,300.6
981.7,321,23.2,20.0,82,15.13,76,8.3,297.9,342.0,300.6
981.2,326,23.1,20.0,82,15.15,76,8.2,297.9,342.0,300.6
980.6,331,23.1,20.0,83,15.19,76,8.2,297.9,342.2,300.6
980.0,337,23.0,20.0,83,15.20,76,8.1,297.9,342.2,300.6
979.5,342,23.0,19.9,83,15.13,76,8.0,297.9,342.0,300.6
978.9,347,23.0,19.8,82,15.02,76,8.0,297.9,341.7,300.6
978.4,351,22.9,19.7,82,14.89,77,7.9,297.9,341.3,300.6
977.9,356,22.9,19.6,81,14.81,77,7.8,297.9,341.1,300.6
977.4,360,22.9,19.6,82,14.83,77,7.8,297.9,341.2,300.6
976.9,364,22.8,19.7,82,14.92,77,7.7,298.0,341.4,300.6
976.4,369,22.8,19.8,83,15.02,78,7.7,298.0,341.7,300.6
976.0,373,22.7,19.9,84,15.11,78,7.6,298.0,342.0,300.6
975.5,377,22.7,19.9,84,15.17,78,7.6,297.9,342.1,300.6
975.0,382,22.6,19.9,85,15.19,78,7.5,297.9,342.2,300.6
974.4,387,22.6,19.8,84,15.12,79,7.5,297.9,342.0,300.6
973.9,391,22.5,19.7,84,15.01,79,7.5,297.9,341.7,300.6
973.4,396,22.5,19.6,84,14.92,79,7.4,297.9,341.4,300.6
972.9,400,22.5,19.6,84,14.88,80,7.4,297.9,341.3,300.6
972.4,405,22.4,19.6,84,14.93,80,7.4,298.0,341.5,300.6
971.9,409,22.4,19.7,85,15.04,80,7.4,297.9,341.8,300.6
971.4,414,22.3,19.8,85,15.12,80,7.4,297.9,342.0,300.6
970.9,418,22.3,19.8,86,15.14,81,7.4,297.9,342.0,300.6
970.4,423,22.2,19.8,86,15.14,81,7.4,297.9,342.1,300.6
969.9,428,22.2,19.8,86,15.13,81,7.5,297.9,342.0,300.6
969.3,432,22.1,19.7,86,15.09,81,7.5,297.9,341.9,300.6
968.8,437,22.1,19.6,86,15.03,81,7.5,297.9,341.7,300.6
968.3,442,22.1,19.6,86,14.99,81,7.6,297.9,341.6,300.6
967.8,447,22.0,19.6,86,15.00,81,7.6,297.9,341.6,300.6
967.3,451,22.0,19.6,87,15.04,81,7.6,297.9,341.7,300.6
966.8,456,21.9,19.7,87,15.07,81,7.7,297.9,341.8,300.6
966.3,460,21.9,19.7,87,15.08,81,7.7,297.9,341.9,300.6
965.8,464,21.8,19.7,87,15.09,81,7.8,297.9,341.9,300.6
965.3,469,21.8,19.7,88,15.11,81,7.8,297.9,342.0,300.6
964.8,473,21.8,19.7,88,15.13,81,7.9,297.9,342.0,300.6
964.3,478,21.7,19.7,88,15.15,81,7.9,297.9,342.1,300.6
963.8,482,21.7,19.7,88,15.13,81,8.0,297.9,342.0,300.6
963.3,487,21.6,19.6,89,15.11,80,8.0,297.9,342.0,300.6
962.8,491,21.6,19.6,89,15.10,80,8.0,297.9,341.9,300.6
962.3,496,21.5,19.6,89,15.08,80,8.1,297.9,341.9,300.6
961.7,501,21.5,19.6,89,15.05,80,8.1,297.9,341.8,300.6
961.2,506,21.4,19.5,89,15.05,80,8.1,297.9,341.8,300.6
960.7,510,21.4,19.5,89,15.06,80,8.2,297.9,341.8,300.6
960.2,515,21.3,19.5,89,15.06,80,8.2,297.9,341.8,300.6
959.7,520,21.3,19.5,89,15.04,80,8.2,297.9,341.7,300.6
959.2,524,21.3,19.5,90,15.04,80,8.2,297.9,341.7,300.6
958.7,529,21.2,19.5,90,15.06,80,8.2,297.9,341.8,300.6
958.2,533,21.2,19.5,90,15.07,80,8.2,297.9,341.9,300.6
957.7,538,21.1,19.5,90,15.02,80,8.2,297.9,341.7,300.6
957.2,542,21.1,19.4,90,14.94,80,8.2,298.0,341.5,300.6
956.7,547,21.1,19.3,90,14.88,80,8.1,298.0,341.3,300.6
956.1,552,21.0,19.2,90,14.85,80,8.1,298.0,341.2,300.6
955.6,556,21.0,19.2,90,14.85,80,8.1,298.0,341.2,300.6
955.1,561,20.9,19.2,90,14.86,81,8.1,298.0,341.3,300.6
954.6,566,20.9,19.3,90,14.88,81,8.0,298.0,341.3,300.6
954.0,571,20.9,19.2,90,14.87,81,8.0,298.0,341.3,300.6
953.5,576,20.8,19.2,90,14.83,81,8.0,298.0,341.2,300.6
952.9,581,20.8,19.2,91,14.82,81,7.9,298.0,341.2,300.6
952.4,586,20.7,19.2,91,14.83,82,7.9,298.0,341.2,300.6
951.8,591,20.7,19.2,91,14.85,82,7.8,298.0,341.3,300.6
951.3,596,20.6,19.2,91,14.86,82,7.8,298.0,341.3,300.6
950.8,600,20.6,19.2,92,14.88,82,7.7,298.0,341.4,300.6
950.3,605,20.5,19.2,92,14.91,83,7.7,298.0,341.4,300.6
949.8,610,20.5,19.2,93,14.94,83,7.7,298.0,341.5,300.6
949.3,614,20.4,19.3,93,14.99,83,7.6,298.0,341.7,300.6
948.8,619,20.4,19.4,94,15.07,83,7.6,298.0,341.9,300.6
948.3,623,20.3,19.4,94,15.13,83,7.6,298.0,342.0,300.7
947.8,628,20.3,19.4,95,15.17,83,7.6,297.9,342.1,300.6
947.3,633,20.2,19.5,95,15.19,83,7.5,297.9,342.2,300.6
946.7,637,20.2,19.5,96,15.21,83,7.5,297.9,342.2,300.6
946.2,642,20.1,19.5,96,15.24,83,7.5,297.9,342.3,300.6
945.7,647,20.1,19.5,97,15.26,83,7.5,297.9,342.4,300.6
945.2,652,20.0,19.5,97,15.24,83,7.5,297.9,342.3,300.6
944.6,657,20.0,19.5,97,15.24,83,7.5,297.9,342.3,300.6
944.1,662,19.9,19.5,97,15.25,82,7.5,297.9,342.3,300.6
943.6,667,19.9,19.5,98,15.26,82,7.5,297.9,342.4,300.6
943.0,671,19.8,19.5,98,15.27,82,7.5,297.9,342.4,300.6
942.5,676,19.8,19.5,98,15.30,82,7.5,297.9,342.5,300.6
942.0,681,19.7,19.5,99,15.34,82,7.5,297.9,342.6,300.7
941.4,686,19.7,19.5,99,15.32,82,7.5,297.9,342.5,300.7
940.9,691,19.6,19.4,99,15.28,81,7.5,297.9,342.4,300.7
940.4,696,19.6,19.3,98,15.19,81,7.5,297.9,342.2,300.6
939.9,700,19.5,19.2,98,15.04,81,7.5,297.9,341.7,300.6
939.3,705,19.5,19.0,97,14.89,81,7.5,297.9,341.3,300.6
938.8,710,19.5,18.9,96,14.75,81,7.5,298.0,340.9,300.6
938.3,715,19.5,18.7,95,14.57,81,7.6,298.0,340.5,300.6
937.8,720,19.5,18.5,94,14.47,81,7.6,298.0,340.2,300.6
937.3,725,19.4,18.5,94,14.43,81,7.6,298.0,340.1,300.6
936.7,729,19.4,18.5,94,14.43,81,7.6,298.1,340.2,300.7
936.2,734,19.4,18.5,95,14.48,81,7.6,298.1,340.3,300.7
935.7,739,19.3,18.5,95,14.49,81,7.7,298.1,340.3,300.7
935.2,743,19.3,18.4,95,14.39,81,7.7,298.1,340.0,300.6
934.8,748,19.3,18.3,94,14.30,81,7.7,298.1,339.8,300.6
934.3,752,19.2,18.2,94,14.21,81,7.7,298.1,339.6,300.7
933.9,756,19.2,18.0,93,14.03,81,7.8,298.1,339.1,300.6
933.4,760,19.2,17.8,91,13.84,81,7.8,298.2,338.6,300.7
933.0,764,19.2,17.6,90,13.71,81,7.8,298.2,338.3,300.7
932.5,768,19.2,17.7,91,13.80,80,7.9,298.3,338.6,300.8
932.1,773,19.2,17.9,92,13.95,80,7.9,298.3,339.0,300.8
931.6,777,19.1,18.0,93,14.06,80,7.9,298.3,339.3,300.8
931.1,782,19.1,17.7,92,13.82,80,7.9,298.3,338.6,300.7
930.6,786,19.1,17.3,89,13.46,80,7.9,298.3,337.6,300.7
930.1,791,19.0,17.1,89,13.34,80,8.0,298.3,337.3,300.7
929.6,795,19.0,17.1,89,13.35,79,8.0,298.3,337.3,300.7
929.1,800,19.0,17.1,89,13.33,79,8.0,298.3,337.3,300.7
928.6,804,19.0,17.1,89,13.30,79,8.0,298.4,337.2,300.7
928.1,809,18.9,17.1,89,13.31,79,8.0,298.4,337.3,300.8
927.7,813,18.9,17.1,89,13.35,79,8.0,298.4,337.4,300.8
927.2,818,18.9,17.1,90,13.36,78,8.0,298.4,337.4,300.8
926.7,822,18.8,17.1,90,13.35,78,8.0,298.4,337.4,300.8
926.2,826,18.8,17.1,90,13.38,78,8.0,298.4,337.5,300.8
925.8,831,18.7,17.1,90,13.40,78,8.0,298.4,337.5,300.8
925.3,836,18.7,17.1,91,13.39,77,7.9,298.4,337.5,300.8
925.0,838,18.7,17.1,91,13.38,77,7.9,298.4,337.5,300.8
924.8,840,18.7,17.1,91,13.37,77,7.9,298.4,337.5,300.8
924.3,845,18.6,17.0,91,13.34,77,7.9,298.4,337.4,300.8
923.7,850,18.6,17.0,91,13.35,77,7.9,298.4,337.4,300.8
923.2,854,18.5,17.1,91,13.37,77,7.8,298.4,337.4,300.8
922.7,859,18.5,17.1,92,13.38,77,7.8,298.4,337.5,300.8
922.3,864,18.4,17.0,92,13.35,77,7.8,298.4,337.4,300.8
921.8,868,18.4,16.9,91,13.28,77,7.8,298.4,337.2,300.7
921.3,872,18.3,16.8,91,13.17,78,7.7,298.4,336.9,300.8
920.9,876,18.3,16.7,90,13.10,78,7.7,298.4,336.7,300.8
920.5,880,18.3,16.7,91,13.12,78,7.7,298.4,336.8,300.8
920.1,884,18.3,16.7,91,13.15,78,7.7,298.4,336.9,300.8
919.7,887,18.3,16.8,91,13.16,79,7.7,298.5,336.9,300.8
919.4,891,18.2,16.8,91,13.18,79,7.7,298.5,337.0,300.8
919.0,894,18.2,16.8,91,13.20,80,7.7,298.5,337.0,300.8
918.6,897,18.2,16.7,91,13.17,80,7.7,298.5,336.9,300.8
918.3,901,18.1,16.7,91,13.12,81,7.7,298.5,336.8,300.8
917.9,905,18.1,16.6,91,13.08,81,7.7,298.5,336.7,300.8
917.5,908,18.1,16.6,90,13.02,82,7.7,298.5,336.6,300.9
917.1,912,18.1,16.4,90,12.92,82,7.8,298.6,336.4,300.9
916.7,916,18.1,16.2,89,12.76,83,7.8,298.6,336.0,300.9
916.3,919,18.2,16.0,87,12.61,83,7.8,298.7,335.6,301.0
915.9,923,18.2,15.9,86,12.51,83,7.9,298.8,335.4,301.0
915.6,926,18.3,15.7,85,12.38,84,7.9,298.8,335.1,301.1
915.2,930,18.3,15.5,84,12.20,84,8.0,298.9,334.7,301.1
914.8,933,18.3,15.5,83,12.18,84,8.0,299.0,334.7,301.2
914.4,937,18.3,15.8,85,12.42,84,8.1,299.0,335.4,301.2
914.0,941,18.2,16.0,87,12.61,84,8.1,298.9,335.9,301.2
913.5,945,18.1,16.0,87,12.60,84,8.2,298.9,335.8,301.2
913.1,950,18.1,15.9,87,12.58,84,8.2,298.9,335.7,301.1
912.6,954,18.0,16.0,88,12.65,84,8.3,298.8,335.9,301.1
912.2,958,17.9,16.1,89,12.72,83,8.3,298.8,336.0,301.1
911.7,963,17.8,16.2,90,12.80,83,8.3,298.7,336.2,301.0
911.3,967,17.7,16.2,91,12.81,83,8.4,298.7,336.2,301.0
910.8,971,17.7,16.1,91,12.78,82,8.4,298.7,336.1,301.0
910.4,975,17.7,16.0,90,12.69,81,8.4,298.7,335.9,301.0
910.0,979,17.7,15.8,89,12.53,81,8.5,298.7,335.4,301.0
909.5,983,17.7,15.5,87,12.29,80,8.5,298.9,334.9,301.1
909.1,987,17.8,15.4,86,12.16,80,8.5,298.9,334.6,301.1
908.6,992,17.8,15.4,86,12.19,79,8.5,299.0,334.7,301.2
908.1,996,17.7,15.5,87,12.27,78,8.5,299.0,335.0,301.2
907.6,1001,17.7,15.5,87,12.29,78,8.4,299.0,335.1,301.2
907.1,1006,17.7,15.4,87,12.22,77,8.4,299.0,334.9,301.2
906.6,1010,17.6,15.3,87,12.17,77,8.4,299.0,334.7,301.2
906.1,1015,17.5,15.3,87,12.14,76,8.3,299.0,334.6,301.2
905.7,1019,17.5,15.3,87,12.12,76,8.3,299.0,334.6,301.2
905.2,1024,17.5,15.3,87,12.16,75,8.3,299.0,334.7,301.2
904.7,1028,17.4,15.4,88,12.29,75,8.2,299.0,335.0,301.2
904.3,1033,17.3,15.6,90,12.43,74,8.1,298.9,335.4,301.2
903.8,1037,17.3,15.8,91,12.58,74,8.1,298.9,335.8,301.2
903.4,1041,17.2,15.9,92,12.67,74,8.0,298.9,336.0,301.1
902.9,1045,17.1,15.8,92,12.58,74,7.9,298.9,335.7,301.1
902.5,1050,17.1,15.6,91,12.44,74,7.9,298.9,335.3,301.1
902.1,1054,17.1,15.5,91,12.41,74,7.8,298.9,335.3,301.1
901.6,1058,17.1,15.6,91,12.45,74,7.8,298.9,335.4,301.2
901.2,1062,17.0,15.6,92,12.48,74,7.7,298.9,335.5,301.1
900.7,1066,17.0,15.6,92,12.47,75,7.7,298.9,335.4,301.1
900.2,1071,16.9,15.5,92,12.42,75,7.6,298.9,335.3,301.1
899.7,1076,16.9,15.5,92,12.44,76,7.6,298.9,335.4,301.1
899.2,1081,16.8,15.6,92,12.46,76,7.6,298.9,335.4,301.1
898.7,1086,16.8,15.5,92,12.45,77,7.6,298.9,335.4,301.1
898.1,1091,16.7,15.5,92,12.42,78,7.6,298.9,335.3,301.1
897.6,1096,16.7,15.5,93,12.43,78,7.6,298.9,335.4,301.2
897.0,1102,16.6,15.6,94,12.54,79,7.6,298.9,335.7,301.2
896.3,1108,16.6,15.9,96,12.75,80,7.7,298.9,336.3,301.2
895.7,1114,16.5,16.1,97,12.94,81,7.7,298.9,336.8,301.2
895.0,1121,16.4,16.2,98,13.02,82,7.8,298.9,337.0,301.2
894.4,1127,16.4,16.1,98,13.01,83,7.8,298.9,337.0,301.3
893.7,1134,16.3,16.1,98,12.95,84,7.9,298.9,336.9,301.3
893.0,1140,16.3,16.0,98,12.93,85,8.0,299.0,336.9,301.3
892.3,1147,16.3,16.1,99,13.01,85,8.1,299.0,337.2,301.4
891.6,1153,16.3,16.1,98,12.99,86,8.2,299.1,337.2,301.5
891.0,1159,16.3,15.8,97,12.81,87,8.3,299.1,336.7,301.4
890.3,1166,16.2,15.9,98,12.89,88,8.4,299.1,336.9,301.4
889.7,1172,16.2,16.2,100,13.11,88,8.4,299.2,337.6,301.5
889.0,1178,16.2,16.2,100,13.11,89,8.5,299.2,337.7,301.6
888.3,1185,16.1,16.1,100,13.04,89,8.6,299.2,337.4,301.5
887.7,1191,16.1,16.1,100,13.04,90,8.7,299.2,337.4,301.6
887.0,1197,16.1,16.1,100,13.11,90,8.8,299.4,337.8,301.7
886.4,1203,16.2,16.2,100,13.22,90,8.9,299.5,338.4,301.9
885.7,1210,16.4,16.4,100,13.34,90,8.9,299.7,338.9,302.1
885.1,1216,16.4,16.4,100,13.41,90,9.0,299.9,339.3,302.3
884.4,1222,16.4,16.4,100,13.37,90,9.0,299.9,339.2,302.3
883.8,1229,16.4,16.4,100,13.37,90,9.1,299.9,339.3,302.3
883.1,1235,16.4,16.3,100,13.33,89,9.1,300.0,339.2,302.4
882.4,1242,16.3,16.1,99,13.19,89,9.2,300.0,338.8,302.3
881.7,1249,16.2,16.2,100,13.25,88,9.2,300.0,339.0,302.4
881.0,1256,16.2,16.2,100,13.23,88,9.2,300.0,338.9,302.3
880.3,1262,16.0,16.0,100,13.13,87,9.3,299.9,338.5,302.3
879.6,1269,15.9,15.9,100,13.04,86,9.3,299.9,338.2,302.2
878.9,1275,15.8,15.8,100,12.96,85,9.3,299.8,337.9,302.1
878.3,1282,15.7,15.7,100,12.84,84,9.3,299.7,337.5,302.0
877.6,1289,15.4,15.4,100,12.63,83,9.4,299.6,336.7,301.8
876.9,1295,15.2,15.2,100,12.50,82,9.4,299.4,336.1,301.6
876.2,1302,15.1,15.1,100,12.38,81,9.4,299.3,335.7,301.5
875.5,1309,15.0,15.0,100,12.32,80,9.5,299.3,335.4,301.5
874.7,1316,15.0,15.0,100,12.32,79,9.5,299.3,335.5,301.6
874.0,1324,15.1,15.1,100,12.44,79,9.6,299.5,336.1,301.8
873.2,1331,15.3,15.3,100,12.63,78,9.6,299.9,337.0,302.1
872.5,1338,15.4,15.4,100,12.72,77,9.7,300.0,337.5,302.3
871.8,1345,15.3,15.3,100,12.64,76,9.7,300.0,337.2,302.3
871.0,1352,15.1,15.1,100,12.51,76,9.8,299.9,336.7,302.1
870.3,1359,15.0,15.0,100,12.40,75,9.8,299.8,336.3,302.0
869.6,1366,14.9,14.9,100,12.31,75,9.9,299.7,335.9,301.9
868.9,1373,14.7,14.7,100,12.23,75,9.9,299.7,335.7,301.9
868.2,1380,14.7,14.7,100,12.17,74,10.0,299.7,335.4,301.8
867.4,1387,14.5,14.5,100,12.09,74,10.1,299.6,335.2,301.8
866.7,1395,14.4,14.4,100,12.00,74,10.2,299.6,334.8,301.7
866.0,1402,14.3,14.3,100,11.94,74,10.2,299.5,334.6,301.7
865.2,1409,14.3,14.3,100,11.94,75,10.3,299.6,334.7,301.8
864.5,1416,14.4,14.4,100,12.00,75,10.4,299.7,335.0,301.9
863.8,1424,14.5,14.5,100,12.08,75,10.5,299.9,335.5,302.1
863.0,1431,14.5,14.5,100,12.15,76,10.6,300.0,335.8,302.2
862.2,1439,14.6,14.6,100,12.17,76,10.7,300.1,336.0,302.3
861.4,1446,14.5,14.5,100,12.17,77,10.9,300.2,336.1,302.4
860.7,1454,14.5,14.5,100,12.17,77,11.0,300.3,336.2,302.5
859.9,1462,14.5,14.5,100,12.19,78,11.1,300.4,336.3,302.6
859.1,1469,14.5,14.5,100,12.20,79,11.3,300.4,336.4,302.6
858.3,1477,14.4,14.4,100,12.14,79,11.4,300.4,336.3,302.6
857.6,1485,14.3,14.2,100,11.98,80,11.6,300.3,335.6,302.5
856.8,1492,14.1,14.1,100,11.89,81,11.7,300.2,335.3,302.4
856.0,1500,14.1,14.1,100,11.93,81,11.9,300.3,335.5,302.5
855.2,1508,14.3,14.3,100,12.04,82,12.1,300.5,336.1,302.7
854.4,1515,14.4,14.4,100,12.19,82,12.2,300.8,336.8,303.0
853.7,1523,14.6,14.6,100,12.35,83,12.4,301.1,337.6,303.3
852.9,1530,14.7,14.7,100,12.46,84,12.5,301.3,338.1,303.5
852.2,1538,14.7,14.6,100,12.38,84,12.7,301.3,337.9,303.5
851.5,1545,14.5,14.4,99,12.21,85,12.8,301.2,337.3,303.4
850.9,1551,14.4,14.2,99,12.07,85,12.9,301.1,336.8,303.3
850.2,1557,14.3,14.1,99,12.02,85,13.0,301.0,336.6,303.2
850.0,1560,14.3,14.2,100,12.08,86,13.1,301.1,336.8,303.3
849.7,1563,14.3,14.3,100,12.15,86,13.1,301.2,337.1,303.4
849.2,1568,14.4,14.4,100,12.26,86,13.2,301.3,337.6,303.5
848.7,1572,14.4,14.4,100,12.25,86,13.2,301.3,337.6,303.6
848.3,1577,14.3,14.3,100,12.20,87,13.3,301.3,337.4,303.5
847.9,1581,14.2,14.2,100,12.08,87,13.3,301.2,337.0,303.4
847.5,1585,14.3,14.3,100,12.15,87,13.3,301.3,337.3,303.5
847.1,1589,14.5,14.5,100,12.32,87,13.3,301.6,338.1,303.8
846.7,1593,14.6,14.5,99,12.32,87,13.3,301.8,338.3,304.0
846.3,1597,14.6,14.0,96,11.94,87,13.2,301.8,337.2,303.9
845.8,1601,14.5,13.1,91,11.31,87,13.2,301.8,335.4,303.8
845.4,1605,14.4,12.1,86,10.55,87,13.1,301.7,333.1,303.6
845.0,1609,14.4,11.5,83,10.17,87,13.0,301.7,332.0,303.6
844.6,1613,14.4,11.6,83,10.19,87,13.0,301.7,332.1,303.6
844.2,1617,14.3,11.7,84,10.28,87,12.9,301.7,332.3,303.6
843.8,1621,14.3,11.7,85,10.31,87,12.8,301.7,332.4,303.6
843.4,1625,14.2,11.7,85,10.31,87,12.7,301.7,332.4,303.5
843.0,1629,14.1,11.7,85,10.28,87,12.6,301.6,332.2,303.5
842.6,1633,14.1,11.6,85,10.23,86,12.5,301.6,332.1,303.5
842.3,1637,14.0,11.5,85,10.20,86,12.4,301.6,332.0,303.5
841.9,1641,14.0,11.5,85,10.20,86,12.4,301.6,332.0,303.5
841.5,1645,14.0,11.6,85,10.22,86,12.3,301.6,332.0,303.5
841.2,1648,13.9,11.6,86,10.25,86,12.2,301.6,332.1,303.5
840.8,1652,13.9,11.6,86,10.26,85,12.2,301.6,332.1,303.4
840.4,1656,13.8,11.6,86,10.26,85,12.1,301.6,332.1,303.4
840.0,1660,13.8,11.6,87,10.24,85,12.1,301.6,332.0,303.4
839.7,1663,13.7,11.6,87,10.24,85,12.1,301.5,332.0,303.4
839.3,1667,13.7,11.5,87,10.24,85,12.0,301.5,332.0,303.4
838.9,1671,13.6,11.5,87,10.24,85,12.0,301.5,332.0,303.4
838.5,1675,13.6,11.5,87,10.23,85,12.0,301.5,331.9,303.4
838.1,1679,13.5,11.5,88,10.21,85,12.0,301.5,331.9,303.3
837.7,1683,13.5,11.4,88,10.18,86,11.9,301.5,331.8,303.3
837.3,1688,13.4,11.4,88,10.17,86,11.9,301.5,331.7,303.3
836.8,1692,13.4,11.4,88,10.17,86,11.9,301.5,331.7,303.3
836.3,1697,13.3,11.4,88,10.16,86,11.9,301.5,331.7,303.3
835.9,1702,13.2,11.4,88,10.15,87,11.8,301.4,331.6,303.3
835.3,1707,13.2,11.4,89,10.17,87,11.8,301.4,331.6,303.3
834.8,1712,13.1,11.4,89,10.17,88,11.7,301.4,331.6,303.2
834.3,1718,13.0,11.4,90,10.17,88,11.7,301.4,331.6,303.2
833.7,1723,12.9,11.3,90,10.17,88,11.6,301.3,331.6,303.2
833.2,1729,12.9,11.3,90,10.17,89,11.5,301.3,331.6,303.2
832.6,1734,12.8,11.3,91,10.15,90,11.5,301.3,331.5,303.2
832.1,1740,12.7,11.3,91,10.16,90,11.4,301.3,331.5,303.1
831.5,1746,12.6,11.3,92,10.17,91,11.3,301.3,331.5,303.1
830.9,1752,12.6,11.3,92,10.17,91,11.2,301.2,331.5,303.1
830.3,1758,12.5,11.3,93,10.19,92,11.0,301.2,331.5,303.1
829.7,1764,12.4,11.4,93,10.24,93,10.9,301.2,331.6,303.0
829.1,1770,12.3,11.5,95,10.34,93,10.8,301.2,331.9,303.0
828.6,1775,12.3,11.7,97,10.51,94,10.7,301.2,332.3,303.1
828.0,1781,12.2,11.9,98,10.60,95,10.6,301.1,332.6,303.0
827.4,1787,12.1,11.9,99,10.67,96,10.4,301.1,332.8,303.0
826.9,1793,12.1,12.0,100,10.72,96,10.3,301.1,332.9,303.1
826.3,1798,12.0,12.0,100,10.72,97,10.2,301.1,332.9,303.1
825.7,1804,12.0,12.0,100,10.70,98,10.1,301.2,333.0,303.1
825.2,1809,12.0,12.0,100,10.72,99,10.0,301.2,333.1,303.2
824.7,1815,12.0,12.0,100,10.74,100,9.9,301.3,333.2,303.2
824.2,1820,12.0,12.0,100,10.76,100,9.9,301.4,333.3,303.3
823.7,1825,12.1,12.0,99,10.73,101,9.8,301.5,333.3,303.4
823.2,1830,12.0,11.7,98,10.55,102,9.8,301.5,332.8,303.4
822.8,1834,11.9,11.2,96,10.24,103,9.7,301.4,331.8,303.2
822.3,1839,11.8,10.8,94,9.97,104,9.7,301.3,331.0,303.1
