PRES,HGHT,TEMP,DWPT,RELH,MIXR,DRCT,SPED,THTA,THTE,THTV
1013.6,31,24.2,19.5,75,14.23,83,4.7,296.2,337.4,298.7
1012.9,37,24.4,19.6,75,14.36,79,3.5,296.5,338.1,299.1
1012.4,41,24.7,19.5,73,14.26,77,3.3,296.8,338.1,299.3
1011.7,47,24.8,19.5,72,14.23,77,3.4,296.9,338.3,299.5
1011.0,53,24.8,19.4,72,14.18,77,3.6,297.0,338.2,299.5
1010.2,60,24.7,19.3,72,14.12,77,3.9,297.0,338.0,299.5
1009.5,66,24.6,19.3,72,14.06,78,4.1,297.0,337.8,299.5
1009.0,70,24.6,19.2,72,14.02,78,4.3,297.0,337.7,299.5
1008.4,76,24.5,19.2,72,14.02,78,4.5,297.0,337.7,299.5
1007.8,81,24.5,19.2,72,14.01,78,4.7,297.0,337.7,299.5
1007.2,86,24.4,19.1,72,13.99,78,4.9,297.0,337.6,299.5
1006.6,91,24.4,19.1,72,13.93,78,5.0,297.0,337.4,299.5
1006.0,96,24.3,19.0,72,13.89,78,5.2,297.0,337.3,299.5
1005.4,102,24.3,19.0,72,13.88,78,5.3,297.0,337.3,299.5
1004.8,107,24.2,19.0,73,13.91,78,5.4,297.0,337.4,299.5
1004.2,113,24.2,19.0,73,13.93,78,5.6,297.0,337.4,299.5
1003.5,118,24.1,19.0,73,13.91,78,5.7,297.0,337.4,299.5
1002.9,124,24.1,18.9,73,13.86,78,5.7,297.0,337.2,299.4
1002.2,130,24.0,18.9,73,13.85,78,5.8,297.0,337.2,299.4
1001.6,136,24.0,19.0,74,13.90,78,5.9,297.0,337.4,299.5
1000.9,141,23.9,19.0,74,13.94,77,5.9,297.0,337.5,299.5
1000.3,146,23.9,19.0,74,13.94,77,5.9,297.0,337.5,299.5
1000.0,149,23.8,18.9,74,13.91,77,5.9,297.0,337.4,299.4
999.7,152,23.8,18.9,74,13.89,77,6.0,297.0,337.3,299.4
999.1,157,23.8,18.9,74,13.88,77,6.0,297.0,337.3,299.5
998.5,162,23.7,18.9,74,13.91,76,6.0,297.0,337.4,299.5
998.0,167,23.7,18.9,75,13.91,76,6.0,297.0,337.4,299.5
997.4,172,23.6,18.9,75,13.92,75,6.0,297.0,337.4,299.5
996.8,177,23.6,18.9,75,13.93,75,6.0,297.0,337.5,299.5
996.2,182,23.5,18.9,75,13.94,75,6.0,297.0,337.5,299.5
995.6,187,23.5,18.9,76,13.94,74,6.0,297.0,337.5,299.5
995.1,192,23.4,18.9,76,13.95,74,6.0,297.0,337.5,299.5
994.5,197,23.4,18.9,76,13.99,73,6.0,297.0,337.6,299.5
993.9,202,23.3,19.0,76,14.01,73,6.0,297.0,337.7,299.5
993.3,208,23.3,19.0,77,14.02,73,6.0,297.0,337.7,299.5
992.7,213,23.2,19.0,77,14.04,72,6.0,297.0,337.8,299.5
992.1,218,23.2,19.0,77,14.08,72,6.0,297.0,337.9,299.5
991.5,224,23.1,19.0,78,14.11,71,6.0,297.0,338.0,299.5
990.9,229,23.1,19.0,78,14.11,71,6.0,297.0,338.0,299.5
990.3,235,23.0,19.0,78,14.10,71,6.0,297.0,337.9,299.5
989.6,240,22.9,19.0,78,14.11,70,6.0,297.0,337.9,299.5
989.0,246,22.9,19.0,79,14.10,70,6.0,297.0,337.9,299.5
988.4,251,22.8,19.0,79,14.11,70,5.9,297.0,337.9,299.5
987.8,256,22.8,19.0,79,14.17,69,5.9,297.0,338.1,299.5
987.3,261,22.7,19.1,80,14.25,69,5.9,297.0,338.3,299.5
986.7,266,22.7,19.2,80,14.29,69,5.9,297.0,338.5,299.5
986.1,271,22.6,19.1,81,14.28,69,5.9,297.0,338.4,299.5
985.6,276,22.6,19.1,81,14.26,69,5.9,296.9,338.3,299.5
985.1,281,22.5,19.1,81,14.23,68,5.9,297.0,338.2,299.5
984.5,286,22.5,19.1,81,14.25,68,5.8,297.0,338.3,299.5
984.0,290,22.4,19.1,81,14.30,68,5.8,297.0,338.5,299.5
983.4,295,22.4,19.1,82,14.31,68,5.8,296.9,338.5,299.5
982.9,300,22.3,19.1,82,14.30,68,5.8,296.9,338.5,299.5
982.4,304,22.3,19.1,82,14.28,68,5.8,297.0,338.4,299.5
981.9,309,22.3,19.1,82,14.27,68,5.7,296.9,338.4,299.5
981.4,313,22.2,19.0,82,14.24,68,5.7,296.9,338.3,299.5
980.9,318,22.2,19.0,82,14.22,68,5.7,297.0,338.2,299.5
980.4,322,22.1,19.0,82,14.22,67,5.7,296.9,338.2,299.5
979.8,327,22.1,19.0,83,14.23,67,5.6,297.0,338.3,299.5
979.3,332,22.1,19.0,83,14.26,67,5.6,297.0,338.4,299.5
978.8,337,22.0,19.0,83,14.29,67,5.6,297.0,338.5,299.5
978.3,341,22.0,19.0,83,14.30,67,5.6,297.0,338.5,299.5
977.7,346,21.9,18.9,83,14.24,67,5.6,297.0,338.3,299.5
977.2,351,21.9,18.8,83,14.13,67,5.6,297.0,338.0,299.5
976.6,356,21.8,18.7,82,14.03,67,5.5,297.0,337.7,299.5
976.1,360,21.8,18.7,82,14.02,67,5.5,297.0,337.7,299.5
975.6,365,21.7,18.8,83,14.13,66,5.5,297.0,338.0,299.5
975.1,370,21.7,18.9,84,14.21,66,5.5,297.0,338.2,299.5
974.6,374,21.6,18.9,84,14.24,66,5.5,297.0,338.3,299.5
974.0,379,21.6,18.9,84,14.21,66,5.5,297.0,338.2,299.5
973.5,383,21.5,18.8,84,14.16,66,5.5,297.0,338.1,299.5
973.0,388,21.5,18.7,84,14.12,66,5.5,297.0,338.0,299.5
972.5,392,21.5,18.7,84,14.10,66,5.5,297.0,337.9,299.5
972.0,397,21.4,18.8,85,14.21,66,5.5,297.0,338.2,299.5
971.5,402,21.4,19.0,86,14.35,66,5.5,297.0,338.6,299.5
970.9,407,21.3,19.0,87,14.38,66,5.5,297.0,338.7,299.5
970.4,412,21.3,18.9,87,14.35,66,5.5,296.9,338.6,299.5
969.8,417,21.2,18.9,87,14.30,66,5.5,297.0,338.5,299.5
969.3,421,21.2,18.9,87,14.30,66,5.5,297.0,338.5,299.5
968.7,426,21.1,18.9,87,14.32,66,5.5,297.0,338.5,299.5
968.2,431,21.1,18.9,87,14.31,67,5.5,296.9,338.5,299.5
967.7,436,21.0,18.8,87,14.28,67,5.5,296.9,338.4,299.5
967.2,440,21.0,18.8,88,14.29,67,5.5,296.9,338.4,299.5
966.7,444,21.0,18.9,88,14.35,67,5.5,297.0,338.6,299.5
966.3,449,20.9,18.9,88,14.40,67,5.5,297.0,338.7,299.5
965.8,453,20.9,18.9,89,14.41,67,5.5,297.0,338.8,299.5
965.3,457,20.8,18.9,89,14.36,68,5.5,297.0,338.6,299.5
964.8,462,20.8,18.8,88,14.30,68,5.5,297.0,338.5,299.5
964.3,466,20.8,18.8,88,14.29,68,5.6,297.0,338.4,299.5
963.8,470,20.7,18.8,89,14.31,68,5.6,297.0,338.5,299.5
963.3,475,20.7,18.8,89,14.33,68,5.6,297.0,338.6,299.5
962.9,479,20.6,18.8,89,14.34,68,5.6,297.0,338.6,299.5
962.4,483,20.6,18.8,90,14.36,69,5.6,297.0,338.6,299.5
961.9,488,20.5,18.9,90,14.39,69,5.7,297.0,338.7,299.5
961.4,492,20.5,18.9,90,14.40,69,5.7,297.0,338.7,299.5
961.0,496,20.4,18.8,90,14.39,69,5.7,296.9,338.7,299.5
960.5,501,20.4,18.8,91,14.39,69,5.7,296.9,338.7,299.5
960.0,505,20.4,18.8,91,14.38,69,5.7,296.9,338.7,299.5
959.5,509,20.3,18.8,91,14.37,69,5.7,296.9,338.6,299.5
959.0,514,20.3,18.8,91,14.35,69,5.8,296.9,338.6,299.5
958.5,519,20.2,18.7,91,14.33,69,5.8,296.9,338.5,299.5
957.9,524,20.2,18.7,91,14.34,69,5.8,297.0,338.6,299.5
957.4,529,20.1,18.7,92,14.36,69,5.8,297.0,338.6,299.5
956.8,534,20.1,18.7,92,14.33,69,5.8,297.0,338.6,299.5
956.2,539,20.0,18.6,92,14.29,69,5.8,297.0,338.4,299.5
955.7,544,20.0,18.6,92,14.25,68,5.8,297.0,338.3,299.5
955.1,550,19.9,18.6,92,14.25,68,5.8,297.0,338.3,299.5
954.5,555,19.9,18.5,92,14.18,68,5.8,297.0,338.1,299.5
953.9,560,19.8,18.2,90,13.94,68,5.8,297.0,337.4,299.4
953.4,565,19.9,17.8,88,13.58,68,5.8,297.0,336.5,299.4
952.8,570,19.9,17.6,86,13.38,68,5.8,297.1,336.0,299.5
952.2,575,19.9,17.8,88,13.63,68,5.8,297.2,336.8,299.6
951.7,580,19.8,18.3,91,14.05,68,5.8,297.1,337.9,299.6
951.2,585,19.6,18.6,93,14.29,68,5.8,297.0,338.5,299.5
950.7,590,19.6,18.6,94,14.29,68,5.7,297.0,338.4,299.5
950.2,594,19.5,18.4,93,14.12,68,5.7,297.0,338.0,299.5
949.6,599,19.5,18.0,91,13.83,68,5.7,297.0,337.2,299.5
949.1,603,19.5,17.6,88,13.43,68,5.7,297.1,336.1,299.5
948.6,608,19.6,17.1,86,13.03,68,5.7,297.2,335.0,299.5
948.1,613,19.6,16.7,83,12.69,68,5.7,297.2,334.2,299.5
947.6,618,19.6,16.5,82,12.55,68,5.7,297.3,333.8,299.5
947.0,622,19.6,16.6,83,12.61,68,5.7,297.3,334.0,299.6
946.5,627,19.5,16.7,84,12.77,69,5.8,297.3,334.5,299.6
946.0,632,19.5,16.9,85,12.88,69,5.8,297.3,334.8,299.6
945.5,637,19.4,16.8,85,12.85,69,5.8,297.3,334.7,299.6
944.9,642,19.4,16.7,84,12.73,69,5.8,297.3,334.4,299.6
944.4,647,19.4,16.5,84,12.60,70,5.8,297.3,334.0,299.6
943.9,652,19.3,16.4,83,12.55,70,5.9,297.3,333.9,299.6
943.3,656,19.3,16.4,83,12.55,70,5.9,297.4,333.9,299.6
942.8,661,19.3,16.4,84,12.56,71,5.9,297.4,333.9,299.6
942.2,667,19.2,16.4,84,12.58,71,6.0,297.4,334.0,299.6
941.7,672,19.2,16.4,84,12.58,71,6.0,297.4,334.0,299.6
941.1,677,19.1,16.5,85,12.61,71,6.0,297.4,334.1,299.6
940.5,682,19.1,16.4,85,12.60,72,6.1,297.4,334.1,299.6
939.9,688,19.0,16.4,85,12.57,72,6.1,297.4,334.0,299.6
939.3,693,19.0,16.3,85,12.53,72,6.1,297.4,333.9,299.6
938.8,698,18.9,16.3,85,12.50,73,6.2,297.4,333.8,299.6
938.2,704,18.9,16.2,85,12.47,73,6.2,297.4,333.7,299.6
937.6,709,18.8,16.2,85,12.47,73,6.2,297.4,333.7,299.6
937.1,714,18.8,16.2,85,12.47,73,6.2,297.4,333.7,299.6
936.5,719,18.7,16.2,85,12.47,74,6.3,297.4,333.7,299.6
935.9,724,18.7,16.2,86,12.47,74,6.3,297.4,333.7,299.6
935.4,729,18.6,16.2,86,12.47,74,6.3,297.4,333.7,299.6
934.8,735,18.6,16.2,86,12.46,74,6.3,297.4,333.7,299.6
934.2,740,18.5,16.1,86,12.45,74,6.4,297.4,333.7,299.6
933.7,745,18.5,16.1,86,12.46,75,6.4,297.4,333.7,299.6
933.1,751,18.4,16.1,86,12.45,75,6.4,297.4,333.7,299.6
932.5,756,18.4,16.1,87,12.45,75,6.4,297.4,333.7,299.6
931.9,762,18.3,16.1,87,12.46,75,6.4,297.4,333.7,299.6
931.2,767,18.3,16.1,87,12.48,75,6.5,297.4,333.8,299.6
930.6,773,18.2,16.1,88,12.48,75,6.5,297.4,333.8,299.6
930.0,779,18.1,16.1,88,12.45,75,6.5,297.4,333.7,299.6
929.4,784,18.1,16.0,88,12.41,75,6.5,297.4,333.6,299.6
928.9,789,18.1,16.0,88,12.38,75,6.5,297.4,333.5,299.6
928.3,795,18.0,15.9,88,12.37,75,6.5,297.4,333.5,299.6
927.7,800,18.0,15.9,88,12.37,75,6.5,297.4,333.5,299.6
927.2,805,17.9,15.9,88,12.37,75,6.5,297.4,333.5,299.6
926.6,810,17.9,15.9,88,12.37,75,6.5,297.4,333.5,299.6
926.1,815,17.8,15.9,88,12.37,75,6.5,297.4,333.5,299.7
925.5,821,17.8,15.9,89,12.37,75,6.6,297.5,333.5,299.7
925.0,825,17.8,15.9,89,12.36,75,6.6,297.5,333.5,299.7
924.9,826,17.8,15.9,89,12.36,75,6.6,297.5,333.5,299.7
924.3,831,17.7,15.8,89,12.34,75,6.6,297.5,333.4,299.7
923.8,837,17.7,15.8,89,12.31,75,6.6,297.5,333.3,299.7
923.2,842,17.6,15.8,89,12.29,75,6.6,297.5,333.3,299.7
922.6,848,17.6,15.7,89,12.28,75,6.6,297.5,333.3,299.7
922.0,853,17.5,15.7,89,12.29,75,6.6,297.5,333.3,299.7
921.4,858,17.5,15.7,90,12.30,74,6.6,297.5,333.3,299.7
920.9,864,17.4,15.7,90,12.28,74,6.6,297.5,333.3,299.7
920.3,869,17.4,15.6,89,12.20,74,6.6,297.5,333.0,299.7
919.7,874,17.3,15.5,89,12.11,74,6.6,297.5,332.8,299.7
919.1,880,17.3,15.4,88,12.05,74,6.6,297.5,332.7,299.7
918.6,885,17.3,15.4,89,12.06,74,6.6,297.6,332.7,299.7
918.0,890,17.2,15.4,89,12.08,74,6.6,297.6,332.8,299.7
917.4,896,17.2,15.4,89,12.04,74,6.6,297.6,332.7,299.7
916.8,901,17.1,15.3,89,11.97,73,6.6,297.6,332.5,299.7
916.2,907,17.1,15.2,88,11.92,73,6.6,297.6,332.4,299.7
915.7,912,17.1,15.2,88,11.91,73,6.6,297.6,332.4,299.8
915.1,917,17.1,15.2,89,11.92,73,6.6,297.7,332.4,299.8
914.6,922,17.0,15.1,89,11.91,73,6.5,297.6,332.4,299.8
914.1,927,17.0,15.1,89,11.88,73,6.5,297.7,332.3,299.8
913.6,932,16.9,15.0,89,11.84,72,6.5,297.7,332.2,299.8
913.1,936,16.9,15.0,88,11.80,72,6.4,297.7,332.1,299.8
912.6,941,16.9,15.0,88,11.81,72,6.4,297.7,332.2,299.8
912.1,946,16.9,15.0,89,11.83,72,6.4,297.7,332.3,299.9
911.5,951,16.8,15.0,89,11.85,71,6.3,297.8,332.4,299.9
911.0,956,16.8,15.0,89,11.89,71,6.3,297.8,332.5,299.9
910.4,961,16.8,15.1,90,11.93,71,6.2,297.8,332.6,299.9
909.8,967,16.7,15.1,90,11.93,70,6.2,297.8,332.6,299.9
909.2,972,16.7,15.0,90,11.85,70,6.1,297.8,332.4,299.9
908.6,978,16.7,14.8,89,11.73,70,6.1,297.9,332.2,300.0
908.0,983,16.7,14.7,88,11.63,69,6.0,297.9,331.9,300.0
907.5,989,16.7,14.6,87,11.56,69,5.9,298.0,331.8,300.1
906.9,994,16.7,14.5,87,11.51,69,5.9,298.0,331.7,300.1
906.3,1000,16.7,14.4,87,11.47,68,5.8,298.1,331.6,300.1
905.8,1005,16.7,14.4,86,11.43,68,5.8,298.1,331.6,300.2
905.3,1010,16.7,14.3,86,11.36,68,5.7,298.2,331.4,300.2
904.7,1015,16.7,14.2,85,11.30,67,5.7,298.2,331.3,300.2
904.2,1020,16.7,14.1,85,11.23,67,5.6,298.3,331.2,300.3
903.7,1024,16.6,14.0,84,11.18,67,5.5,298.3,331.0,300.3
903.2,1029,16.6,14.0,84,11.17,66,5.5,298.3,331.0,300.3
902.7,1034,16.6,14.0,85,11.17,66,5.4,298.3,331.0,300.3
902.2,1039,16.5,13.9,85,11.16,66,5.4,298.3,331.0,300.3
901.7,1044,16.5,13.9,85,11.17,65,5.3,298.4,331.1,300.4
901.1,1049,16.5,13.9,85,11.17,65,5.3,298.4,331.1,300.4
900.6,1054,16.5,13.9,85,11.18,65,5.3,298.4,331.2,300.4
900.0,1060,16.5,13.9,85,11.18,65,5.2,298.5,331.3,300.5
899.4,1065,16.5,13.9,85,11.16,65,5.2,298.5,331.2,300.5
898.8,1071,16.5,13.8,84,11.13,64,5.2,298.6,331.2,300.6
898.2,1076,16.4,13.7,84,11.07,64,5.1,298.6,331.1,300.6
897.7,1082,16.4,13.7,84,11.02,64,5.1,298.6,330.9,300.6
897.1,1087,16.4,13.6,84,11.00,64,5.1,298.6,330.9,300.6
896.5,1092,16.3,13.7,84,11.03,64,5.1,298.6,331.0,300.6
896.0,1098,16.2,13.7,85,11.05,63,5.1,298.5,330.9,300.5
895.4,1103,16.1,13.6,85,11.01,63,5.0,298.5,330.8,300.5
894.9,1108,16.1,13.5,85,10.96,63,5.0,298.6,330.8,300.6
894.3,1114,16.2,13.4,84,10.90,63,5.0,298.7,330.7,300.7
893.8,1119,16.2,13.4,84,10.87,63,5.0,298.7,330.7,300.7
893.2,1124,16.1,13.4,84,10.86,63,5.0,298.8,330.6,300.7
892.6,1129,16.1,13.3,84,10.83,63,5.0,298.8,330.6,300.7
892.1,1135,16.1,13.3,83,10.80,63,5.0,298.8,330.6,300.8
891.6,1140,16.0,13.2,83,10.76,63,5.0,298.8,330.5,300.8
891.0,1145,16.0,13.1,83,10.70,63,5.1,298.9,330.3,300.8
890.5,1150,16.1,13.1,82,10.67,63,5.1,299.0,330.3,300.9
889.9,1155,16.0,13.1,83,10.69,63,5.1,299.0,330.4,300.9
889.4,1160,16.0,13.1,83,10.70,64,5.1,299.0,330.4,300.9
888.9,1166,15.9,13.0,83,10.65,64,5.1,298.9,330.3,300.9
888.3,1171,15.9,12.9,82,10.57,64,5.1,299.0,330.1,300.9
887.8,1176,15.9,12.8,82,10.52,64,5.1,299.0,330.0,300.9
887.2,1181,15.8,12.9,83,10.58,64,5.1,299.0,330.2,300.9
886.7,1187,15.8,13.1,84,10.72,64,5.1,299.0,330.5,300.9
886.1,1192,15.6,13.3,86,10.86,64,5.1,298.9,330.8,300.8
885.5,1198,15.4,13.3,87,10.92,65,5.1,298.8,330.8,300.7
884.9,1203,15.3,13.3,87,10.89,65,5.1,298.7,330.7,300.7
884.4,1209,15.3,13.2,87,10.84,65,5.1,298.7,330.6,300.7
883.8,1214,15.2,13.1,87,10.76,65,5.1,298.7,330.3,300.7
883.2,1220,15.3,12.9,86,10.64,65,5.1,298.8,330.1,300.7
882.6,1225,15.3,12.8,85,10.56,65,5.0,298.9,330.0,300.8
882.1,1231,15.3,12.7,85,10.53,65,5.0,299.0,329.9,300.8
881.5,1236,15.2,12.7,85,10.54,66,5.0,299.0,330.0,300.9
881.0,1242,15.2,12.7,85,10.53,66,4.9,298.9,329.9,300.8
880.4,1247,15.1,12.6,85,10.48,66,4.9,299.0,329.8,300.8
879.8,1252,15.1,12.5,85,10.43,66,4.8,299.0,329.7,300.9
879.3,1258,15.1,12.5,84,10.41,67,4.8,299.0,329.7,300.9
878.7,1264,15.1,12.5,85,10.40,67,4.7,299.1,329.7,300.9
878.1,1269,15.0,12.5,85,10.40,67,4.7,299.1,329.7,300.9
877.5,1275,15.0,12.4,85,10.40,67,4.6,299.1,329.7,301.0
876.9,1281,15.0,12.4,85,10.39,68,4.5,299.1,329.7,301.0
876.3,1287,15.0,12.4,85,10.37,68,4.4,299.2,329.7,301.1
875.7,1292,14.9,12.3,84,10.34,68,4.4,299.2,329.7,301.1
875.2,1298,14.9,12.3,84,10.31,68,4.3,299.2,329.6,301.0
874.7,1303,14.8,12.3,85,10.30,69,4.2,299.2,329.5,301.0
874.2,1307,14.7,12.2,85,10.28,69,4.2,299.2,329.4,301.0
873.7,1312,14.7,12.2,85,10.26,69,4.1,299.2,329.4,301.0
873.2,1316,14.7,12.1,85,10.23,70,4.1,299.2,329.3,301.0
872.8,1321,14.7,12.0,84,10.18,70,4.0,299.2,329.2,301.1
872.4,1325,14.7,12.0,84,10.12,70,4.0,299.3,329.1,301.1
871.9,1329,14.7,11.9,83,10.07,70,4.0,299.3,329.0,301.1
871.5,1333,14.7,11.8,83,10.00,71,4.0,299.4,328.9,301.2
871.1,1337,14.7,11.7,82,9.94,71,4.0,299.4,328.8,301.2
870.7,1341,14.8,11.6,81,9.91,71,4.0,299.5,328.8,301.3
870.2,1346,14.8,11.6,81,9.90,71,4.0,299.6,328.8,301.4
869.8,1350,14.7,11.6,81,9.89,70,4.0,299.6,328.8,301.4
869.4,1354,14.7,11.5,81,9.86,70,4.1,299.6,328.7,301.4
869.0,1358,14.7,11.5,81,9.84,70,4.2,299.6,328.7,301.4
868.6,1361,14.6,11.5,81,9.83,69,4.2,299.6,328.6,301.4
868.2,1365,14.6,11.5,82,9.84,69,4.3,299.6,328.7,301.4
867.8,1369,14.6,11.5,82,9.85,68,4.4,299.6,328.7,301.4
867.4,1373,14.6,11.5,82,9.85,68,4.5,299.7,328.8,301.4
867.0,1377,14.6,11.4,81,9.82,67,4.6,299.7,328.7,301.5
866.5,1382,14.5,11.3,81,9.74,67,4.8,299.7,328.5,301.5
866.1,1386,14.5,11.0,79,9.57,66,4.9,299.7,328.1,301.5
865.6,1391,14.5,10.7,78,9.39,66,5.0,299.8,327.6,301.5
865.1,1395,14.6,10.6,77,9.31,65,5.1,299.9,327.4,301.5
864.7,1400,14.5,10.6,77,9.31,65,5.3,299.9,327.5,301.6
864.2,1405,14.5,10.6,77,9.33,64,5.4,299.9,327.5,301.6
863.7,1409,14.5,10.6,78,9.36,64,5.5,299.9,327.6,301.6
863.3,1414,14.4,10.7,79,9.43,63,5.6,299.9,327.8,301.6
862.8,1418,14.3,10.8,79,9.48,63,5.7,299.8,327.9,301.6
862.3,1423,14.3,10.8,80,9.47,63,5.8,299.8,327.9,301.5
861.9,1427,14.2,10.7,79,9.42,63,5.9,299.8,327.7,301.5
861.4,1432,14.2,10.6,79,9.35,63,6.0,299.8,327.5,301.5
861.0,1436,14.2,10.3,78,9.18,63,6.1,299.9,327.1,301.5
860.5,1441,14.2,9.7,75,8.83,63,6.2,299.9,326.1,301.5
860.0,1445,14.3,8.9,70,8.35,63,6.2,300.1,324.9,301.6
859.6,1450,14.4,8.2,66,7.98,64,6.3,300.2,324.0,301.7
859.1,1454,14.5,8.2,66,7.98,64,6.3,300.4,324.2,301.8
858.6,1459,14.4,8.6,68,8.21,65,6.4,300.4,324.9,301.9
858.2,1464,14.3,9.0,70,8.42,66,6.4,300.3,325.4,301.8
857.7,1469,14.2,9.2,72,8.54,66,6.4,300.3,325.7,301.8
857.1,1474,14.2,9.2,72,8.57,67,6.5,300.2,325.7,301.8
856.6,1479,14.1,9.1,72,8.48,68,6.5,300.2,325.5,301.8
856.1,1484,14.1,8.7,70,8.27,69,6.5,300.2,324.9,301.7
855.5,1490,14.1,8.2,68,8.03,70,6.5,300.3,324.3,301.8
855.0,1495,14.1,8.0,67,7.91,72,6.6,300.4,324.0,301.9
854.5,1500,14.1,8.1,67,7.95,73,6.6,300.4,324.2,301.9
854.1,1504,14.0,8.3,69,8.08,74,6.6,300.4,324.5,301.8
853.6,1509,13.9,8.4,70,8.16,75,6.6,300.4,324.7,301.8
853.2,1513,13.9,8.4,70,8.16,76,6.7,300.3,324.7,301.8
852.9,1516,13.9,8.4,70,8.14,77,6.7,300.4,324.6,301.8
852.5,1520,13.9,8.4,70,8.16,78,6.8,300.4,324.7,301.9
852.2,1523,13.8,8.5,70,8.22,79,6.8,300.4,324.9,301.9
851.8,1527,13.8,8.6,71,8.26,80,6.8,300.4,325.0,301.9
851.4,1530,13.7,8.5,71,8.22,81,6.9,300.4,324.9,301.9
851.0,1534,13.7,8.2,69,8.05,82,6.9,300.4,324.4,301.8
850.6,1539,13.7,7.6,67,7.72,82,7.0,300.4,323.5,301.8
850.1,1543,13.8,6.9,63,7.35,83,7.0,300.6,322.6,302.0
850.0,1544,13.9,6.8,62,7.31,83,7.0,300.7,322.5,302.0
849.6,1548,13.9,6.5,61,7.18,83,7.0,300.7,322.3,302.0
849.1,1553,13.9,6.5,61,7.18,83,7.0,300.8,322.3,302.1
848.6,1558,13.9,6.6,62,7.24,83,7.0,300.8,322.5,302.1
848.1,1564,13.8,6.7,62,7.30,83,7.1,300.8,322.7,302.1
847.6,1569,13.8,6.9,63,7.36,83,7.1,300.8,322.8,302.1
847.1,1574,13.7,7.0,64,7.43,83,7.1,300.8,323.0,302.1
846.6,1579,13.7,7.1,64,7.48,83,7.0,300.8,323.2,302.2
846.1,1583,13.6,7.1,65,7.51,83,7.0,300.8,323.3,302.2
845.6,1588,13.6,7.2,65,7.54,82,7.0,300.8,323.4,302.2
845.2,1593,13.6,7.2,65,7.56,82,7.0,300.8,323.5,302.2
844.7,1597,13.6,7.1,65,7.53,81,7.0,300.9,323.4,302.2
844.3,1602,13.6,6.9,64,7.39,81,6.9,300.9,323.1,302.3
843.8,1606,13.6,6.6,63,7.27,80,6.9,301.0,322.8,302.3
843.4,1610,13.6,6.6,63,7.27,79,6.9,301.0,322.8,302.3
843.0,1615,13.5,6.9,64,7.43,79,6.8,301.0,323.3,302.4
842.5,1619,13.5,7.3,66,7.65,78,6.8,301.0,323.9,302.4
842.1,1623,13.4,7.5,67,7.73,77,6.8,301.0,324.1,302.4
841.7,1628,13.4,7.3,66,7.63,76,6.7,301.0,323.8,302.4
841.2,1632,13.4,7.1,66,7.54,76,6.7,301.1,323.7,302.4
840.7,1637,13.4,7.1,66,7.57,75,6.7,301.1,323.8,302.5
840.3,1641,13.3,7.2,66,7.59,74,6.7,301.1,323.8,302.5
839.8,1646,13.3,7.1,66,7.55,74,6.6,301.1,323.7,302.5
839.4,1651,13.3,7.0,65,7.48,73,6.6,301.1,323.6,302.5
838.9,1655,13.3,6.9,65,7.45,73,6.6,301.2,323.5,302.5
838.5,1659,13.2,6.8,65,7.43,72,6.6,301.2,323.5,302.5
838.1,1663,13.2,6.8,65,7.42,72,6.6,301.2,323.4,302.5
837.7,1667,13.2,6.8,65,7.41,72,6.6,301.2,323.4,302.5
837.4,1671,13.1,6.8,65,7.41,71,6.6,301.2,323.4,302.5
837.0,1674,13.1,6.8,66,7.44,71,6.6,301.2,323.5,302.5
836.7,1677,13.1,6.9,66,7.48,71,6.6,301.2,323.6,302.5
836.4,1681,13.0,7.0,67,7.52,71,6.5,301.2,323.7,302.5
836.0,1684,13.0,7.0,67,7.56,71,6.5,301.2,323.9,302.6
835.7,1688,13.0,7.1,67,7.58,71,6.5,301.2,323.9,302.6
835.3,1691,12.9,7.1,68,7.61,71,6.5,301.2,324.0,302.6
835.0,1695,12.9,7.2,68,7.64,71,6.5,301.2,324.1,302.6
834.6,1699,12.9,7.2,68,7.66,71,6.5,301.2,324.1,302.6
834.2,1703,12.8,7.2,69,7.68,72,6.5,301.2,324.2,302.6
833.7,1707,12.8,7.3,69,7.74,72,6.5,301.2,324.4,302.6
833.3,1712,12.7,7.5,71,7.85,72,6.5,301.2,324.7,302.6
832.8,1717,12.7,7.9,73,8.03,72,6.5,301.2,325.2,302.6
832.3,1722,12.6,8.3,75,8.27,73,6.5,301.1,325.8,302.6
831.8,1727,12.5,8.6,77,8.47,73,6.5,301.1,326.4,302.6
831.4,1731,12.4,8.8,79,8.58,73,6.5,301.0,326.6,302.6
830.9,1736,12.4,8.8,79,8.57,73,6.5,301.0,326.6,302.6
830.5,1740,12.3,8.7,78,8.52,74,6.5,301.0,326.5,302.6
830.0,1745,12.3,8.7,79,8.54,74,6.5,301.0,326.5,302.6
829.6,1749,12.3,8.8,80,8.61,74,6.5,301.0,326.7,302.6
829.2,1753,12.2,8.9,80,8.67,74,6.6,301.0,326.9,302.6
828.8,1757,12.2,9.0,81,8.71,74,6.6,301.0,327.0,302.6
828.4,1761,12.1,9.0,81,8.72,74,6.6,301.0,327.0,302.6
828.0,1765,12.1,9.0,82,8.74,75,6.6,301.0,327.1,302.6
827.6,1769,12.0,9.0,82,8.74,75,6.7,301.0,327.1,302.6
827.3,1773,12.0,9.0,82,8.75,75,6.7,301.0,327.1,302.6
826.9,1777,11.9,9.1,82,8.78,75,6.7,301.0,327.2,302.6
826.5,1780,11.9,9.1,83,8.82,74,6.8,301.0,327.3,302.6
826.1,1784,11.9,9.2,83,8.86,74,6.8,301.0,327.4,302.6
825.7,1788,11.9,9.2,84,8.89,74,6.9,301.0,327.5,302.6
825.3,1792,11.8,9.2,84,8.90,74,6.9,301.0,327.6,302.6
824.9,1796,11.8,9.2,84,8.90,74,7.0,301.0,327.6,302.6
824.5,1801,11.7,9.2,85,8.90,74,7.0,301.0,327.5,302.6
824.1,1804,11.7,9.2,85,8.90,74,7.1,301.0,327.5,302.6
