PRES,HGHT,TEMP,DWPT,RELH,MIXR,DRCT,SPED,THTA,THTE,THTV
1015.1,31,19.5,16.9,85,12.03,293,2.8,291.4,325.6,293.5
1014.4,37,19.7,17.0,84,12.12,324,2.3,291.7,326.1,293.8
1013.8,42,19.6,16.8,84,11.99,331,2.4,291.6,325.7,293.7
1013.4,45,19.8,16.7,82,11.86,333,2.6,291.8,325.5,293.9
1012.8,50,20.0,16.5,81,11.76,334,2.8,292.0,325.5,294.1
1012.1,56,20.1,16.4,80,11.67,334,2.9,292.2,325.5,294.2
1011.5,61,20.1,16.3,79,11.61,333,3.1,292.3,325.4,294.3
1010.9,66,20.1,16.3,79,11.57,334,3.3,292.3,325.4,294.4
1010.3,72,20.0,16.2,79,11.55,334,3.5,292.3,325.3,294.4
1009.7,77,19.9,16.2,79,11.51,334,3.6,292.3,325.1,294.3
1009.1,82,19.9,16.1,78,11.44,335,3.8,292.3,325.0,294.3
1008.5,87,20.0,16.0,77,11.37,335,3.9,292.5,325.0,294.5
1007.9,92,20.2,15.9,76,11.31,336,4.1,292.7,325.0,294.7
1007.3,98,20.3,15.8,75,11.27,336,4.2,292.9,325.1,294.8
1006.6,103,20.4,15.7,74,11.24,336,4.4,293.0,325.2,295.0
1006.0,108,20.5,15.7,74,11.23,337,4.5,293.1,325.3,295.1
1005.4,113,20.4,15.7,75,11.25,337,4.6,293.1,325.3,295.1
1004.8,119,20.4,15.8,75,11.28,338,4.7,293.1,325.4,295.1
1004.2,124,20.3,15.8,75,11.30,338,4.8,293.1,325.5,295.1
1003.6,129,20.2,15.8,76,11.32,338,4.8,293.1,325.5,295.1
1003.0,134,20.1,15.8,76,11.34,339,4.9,293.0,325.5,295.0
1002.4,139,20.0,15.8,77,11.33,339,4.9,293.0,325.4,295.0
1001.8,144,20.0,15.8,77,11.32,340,5.0,292.9,325.3,294.9
1001.3,149,19.9,15.8,77,11.35,340,5.0,293.0,325.4,295.0
1000.7,154,19.9,15.8,77,11.37,341,5.0,293.0,325.5,295.0
1000.1,159,19.9,15.8,77,11.34,341,5.1,293.0,325.5,295.0
1000.0,160,19.9,15.8,77,11.35,342,5.0,293.0,325.5,295.0
999.5,164,20.0,15.8,77,11.35,342,5.0,293.1,325.7,295.1
998.9,170,20.0,15.7,76,11.31,342,5.0,293.2,325.7,295.2
998.3,175,20.0,15.6,76,11.26,342,5.0,293.3,325.6,295.3
997.6,180,20.0,15.6,76,11.26,343,5.0,293.3,325.6,295.3
997.0,186,19.9,15.6,76,11.25,343,5.0,293.3,325.6,295.3
996.4,191,19.9,15.5,76,11.21,344,4.9,293.3,325.5,295.3
995.7,197,19.9,15.5,76,11.18,344,4.9,293.4,325.5,295.4
995.0,203,19.9,15.4,76,11.15,345,4.8,293.4,325.4,295.4
994.3,210,19.9,15.4,75,11.12,345,4.7,293.5,325.4,295.5
993.5,216,19.9,15.3,75,11.10,346,4.7,293.6,325.4,295.5
992.7,223,19.9,15.3,75,11.07,346,4.6,293.6,325.4,295.6
991.9,230,19.9,15.2,75,11.02,347,4.5,293.7,325.4,295.6
991.1,237,19.9,15.2,75,11.02,348,4.4,293.7,325.4,295.7
990.3,245,19.7,15.2,75,11.01,349,4.3,293.7,325.3,295.6
989.4,252,19.7,15.1,75,11.00,350,4.3,293.7,325.3,295.7
988.5,260,19.7,15.0,74,10.90,351,4.2,293.8,325.2,295.7
987.6,268,19.7,14.9,74,10.83,352,4.1,293.9,325.1,295.8
986.7,275,19.8,14.8,73,10.82,353,4.0,294.0,325.2,296.0
985.9,283,19.7,14.9,73,10.84,354,3.9,294.1,325.3,296.0
985.0,291,19.6,14.9,74,10.87,356,3.9,294.0,325.3,295.9
984.1,298,19.5,14.9,75,10.87,358,3.8,294.0,325.3,295.9
983.3,306,19.4,14.8,75,10.83,360,3.7,294.0,325.2,295.9
982.4,313,19.4,14.7,74,10.78,2,3.7,294.0,325.1,296.0
981.6,320,19.4,14.7,74,10.74,5,3.7,294.1,325.1,296.0
980.8,327,19.3,14.6,74,10.74,8,3.6,294.1,325.0,296.0
980.0,334,19.2,14.7,75,10.76,11,3.6,294.0,325.0,295.9
979.2,341,19.2,14.6,75,10.76,14,3.6,294.1,325.1,296.0
978.4,348,19.2,14.6,75,10.72,17,3.7,294.1,325.0,296.0
977.6,355,19.2,14.5,75,10.70,21,3.7,294.2,325.0,296.1
976.9,362,19.1,14.5,75,10.69,24,3.8,294.2,325.0,296.1
976.1,369,19.0,14.6,76,10.77,28,3.9,294.2,325.2,296.1
975.4,375,18.9,14.7,77,10.86,31,4.0,294.1,325.4,296.1
974.6,382,18.8,14.8,78,10.91,34,4.1,294.1,325.5,296.0
973.9,388,18.6,14.8,79,10.91,37,4.3,293.9,325.3,295.9
973.2,394,18.4,14.7,79,10.84,40,4.4,293.9,325.0,295.8
972.5,400,18.5,14.5,78,10.71,43,4.6,293.9,324.8,295.8
971.9,406,18.6,14.4,77,10.66,46,4.8,294.1,324.8,296.0
971.2,412,18.6,14.3,76,10.64,49,5.0,294.2,324.8,296.0
970.5,418,18.5,14.4,77,10.65,51,5.2,294.2,324.9,296.1
969.9,424,18.5,14.4,77,10.69,53,5.5,294.2,325.0,296.1
969.2,429,18.4,14.5,78,10.75,55,5.7,294.2,325.2,296.1
968.6,435,18.4,14.5,78,10.78,57,5.9,294.2,325.3,296.1
967.9,441,18.3,14.5,78,10.79,58,6.1,294.2,325.3,296.1
967.3,447,18.3,14.5,79,10.81,60,6.3,294.2,325.4,296.1
966.6,453,18.3,14.5,79,10.79,61,6.5,294.2,325.3,296.2
966.0,458,18.2,14.4,79,10.76,62,6.7,294.2,325.2,296.1
965.4,464,18.1,14.3,78,10.69,64,6.9,294.2,325.0,296.1
964.8,469,18.1,14.3,79,10.69,64,7.1,294.2,325.1,296.1
964.2,474,18.1,14.4,79,10.72,65,7.2,294.3,325.2,296.2
963.7,479,18.0,14.4,79,10.73,66,7.4,294.2,325.2,296.1
963.2,483,18.0,14.4,80,10.75,67,7.5,294.2,325.2,296.1
962.7,488,17.9,14.4,80,10.75,67,7.6,294.2,325.2,296.1
962.3,491,17.9,14.3,80,10.74,68,7.7,294.3,325.2,296.2
961.8,495,17.9,14.2,79,10.67,68,7.8,294.3,325.1,296.2
961.4,499,17.9,14.1,78,10.56,69,7.9,294.4,324.8,296.2
961.1,502,18.0,13.8,77,10.40,69,7.9,294.5,324.5,296.3
960.7,505,18.1,13.6,75,10.23,69,8.0,294.6,324.1,296.4
960.4,508,18.1,13.4,74,10.10,69,8.0,294.6,323.8,296.4
960.0,511,18.0,13.3,74,10.04,70,8.0,294.6,323.6,296.4
959.7,515,18.0,13.3,74,10.06,70,8.1,294.6,323.7,296.4
959.3,518,18.0,13.3,74,10.08,70,8.1,294.6,323.7,296.4
959.0,521,17.9,13.3,74,10.08,70,8.1,294.6,323.7,296.4
958.7,524,17.9,13.4,75,10.10,70,8.1,294.6,323.8,296.4
958.3,526,17.9,13.4,75,10.11,70,8.1,294.6,323.8,296.4
958.0,529,17.9,13.4,75,10.14,70,8.0,294.6,323.9,296.4
957.7,532,17.8,13.4,75,10.15,70,8.0,294.6,323.9,296.4
957.4,535,17.8,13.4,75,10.14,70,8.0,294.6,323.9,296.4
957.1,538,17.8,13.3,75,10.10,70,8.0,294.6,323.8,296.4
956.8,540,17.7,13.3,75,10.08,70,8.0,294.6,323.7,296.4
956.4,543,17.7,13.4,76,10.13,70,8.0,294.6,323.9,296.4
956.1,546,17.7,13.5,77,10.24,70,8.0,294.6,324.2,296.4
955.8,549,17.6,13.6,77,10.32,70,7.9,294.6,324.4,296.4
955.4,553,17.6,13.7,77,10.33,70,7.9,294.6,324.4,296.4
955.1,556,17.6,13.7,78,10.37,70,7.9,294.6,324.5,296.4
954.7,559,17.5,13.7,78,10.38,70,7.9,294.6,324.5,296.4
954.4,562,17.5,13.7,78,10.36,70,7.9,294.5,324.5,296.4
954.1,565,17.5,13.6,78,10.32,70,7.9,294.5,324.3,296.4
953.8,567,17.4,13.6,78,10.29,70,7.9,294.5,324.3,296.4
953.5,570,17.4,13.5,78,10.23,70,7.9,294.6,324.1,296.4
953.2,572,17.4,13.3,77,10.12,70,7.9,294.6,323.8,296.4
952.9,575,17.4,13.2,77,10.08,70,7.9,294.6,323.7,296.4
952.7,577,17.4,13.3,77,10.10,70,7.9,294.6,323.8,296.4
952.4,580,17.4,13.4,77,10.16,70,7.9,294.6,323.9,296.4
952.1,582,17.3,13.4,78,10.21,69,8.0,294.6,324.1,296.4
951.8,585,17.3,13.4,78,10.18,69,8.0,294.6,324.0,296.4
951.5,587,17.3,13.4,78,10.17,69,8.0,294.6,324.0,296.4
951.3,590,17.2,13.4,78,10.22,68,8.0,294.6,324.1,296.4
951.0,592,17.2,13.5,79,10.29,68,8.0,294.5,324.3,296.4
950.8,594,17.2,13.6,79,10.34,67,8.0,294.5,324.4,296.4
950.6,596,17.2,13.5,79,10.31,67,8.0,294.5,324.3,296.4
950.4,597,17.1,13.5,79,10.26,66,8.0,294.5,324.2,296.4
950.2,599,17.2,13.4,79,10.22,65,8.1,294.6,324.1,296.4
950.0,601,17.2,13.4,79,10.22,65,8.1,294.6,324.1,296.4
949.8,603,17.1,13.4,79,10.25,64,8.1,294.6,324.2,296.4
949.6,605,17.1,13.5,79,10.29,64,8.1,294.6,324.3,296.4
949.4,607,17.1,13.6,80,10.34,63,8.0,294.6,324.4,296.4
949.2,609,17.1,13.6,80,10.37,62,8.0,294.6,324.5,296.4
948.9,611,17.0,13.6,80,10.39,61,8.0,294.6,324.6,296.4
948.7,613,17.0,13.6,80,10.38,61,8.0,294.5,324.5,296.4
948.4,616,17.0,13.6,81,10.39,60,8.0,294.6,324.6,296.4
948.1,618,17.0,13.7,81,10.44,60,8.0,294.6,324.7,296.4
947.8,621,16.9,13.8,82,10.49,59,7.9,294.6,324.9,296.4
947.4,624,16.9,13.8,82,10.55,59,7.9,294.6,325.0,296.4
947.1,627,16.9,13.9,82,10.57,58,7.9,294.6,325.1,296.4
946.8,630,16.8,13.8,82,10.51,58,7.9,294.5,324.9,296.4
946.4,633,16.8,13.6,82,10.41,58,7.8,294.5,324.6,296.4
946.1,636,16.8,13.5,81,10.31,58,7.8,294.6,324.3,296.4
945.8,639,16.8,13.3,80,10.20,57,7.7,294.6,324.0,296.4
945.5,641,16.8,13.2,80,10.14,57,7.7,294.6,323.9,296.4
945.3,644,16.8,13.3,80,10.17,57,7.7,294.6,324.0,296.4
945.0,646,16.7,13.3,80,10.23,58,7.7,294.6,324.2,296.4
944.7,649,16.7,13.4,81,10.26,58,7.6,294.6,324.2,296.4
944.4,652,16.7,13.3,81,10.23,58,7.6,294.6,324.2,296.4
944.1,655,16.7,13.2,80,10.13,58,7.6,294.6,323.9,296.4
943.8,657,16.6,13.1,79,10.06,59,7.6,294.6,323.7,296.4
943.5,660,16.6,13.1,80,10.06,59,7.6,294.6,323.7,296.4
943.1,663,16.6,13.1,80,10.08,60,7.6,294.6,323.8,296.4
942.8,666,16.6,13.1,80,10.08,60,7.6,294.6,323.8,296.4
942.5,669,16.5,13.0,80,10.06,61,7.7,294.6,323.7,296.4
942.1,672,16.5,13.0,80,10.06,62,7.7,294.6,323.7,296.4
941.8,676,16.5,13.0,80,10.06,62,7.7,294.6,323.7,296.4
941.4,679,16.5,13.0,80,10.07,63,7.7,294.6,323.7,296.4
941.0,683,16.4,13.1,81,10.12,63,7.8,294.6,323.9,296.4
940.5,687,16.4,13.3,82,10.24,64,7.8,294.6,324.2,296.5
940.1,691,16.3,13.5,83,10.39,65,7.8,294.6,324.6,296.5
939.6,695,16.2,13.6,84,10.47,65,7.9,294.6,324.8,296.4
939.2,699,16.2,13.4,84,10.36,66,7.9,294.6,324.5,296.4
938.7,703,16.2,13.1,82,10.13,66,7.9,294.6,323.9,296.4
938.3,707,16.2,12.9,81,9.99,66,7.9,294.6,323.5,296.4
938.0,710,16.1,12.8,81,9.94,67,8.0,294.6,323.4,296.4
937.6,713,16.1,12.8,81,9.94,67,8.0,294.6,323.4,296.4
937.3,716,16.1,12.8,81,9.97,67,8.0,294.6,323.5,296.4
937.0,719,16.1,12.8,81,9.99,67,8.0,294.6,323.5,296.4
936.6,722,16.0,12.8,81,9.99,67,8.0,294.7,323.5,296.4
936.3,725,16.0,12.8,81,9.96,67,8.0,294.6,323.5,296.4
936.0,728,16.0,12.7,81,9.93,67,8.0,294.6,323.4,296.4
935.7,731,16.0,12.7,81,9.90,67,7.9,294.6,323.3,296.4
935.3,734,15.9,12.7,81,9.88,67,7.9,294.7,323.2,296.4
935.0,737,15.9,12.7,81,9.88,67,7.9,294.7,323.2,296.4
934.6,741,15.9,12.7,81,9.89,67,7.8,294.7,323.3,296.4
934.2,744,15.9,12.7,81,9.90,66,7.8,294.7,323.3,296.4
933.9,747,15.8,12.7,82,9.92,66,7.8,294.7,323.4,296.4
933.5,751,15.8,12.7,82,9.93,66,7.7,294.7,323.4,296.4
933.1,754,15.8,12.7,82,9.95,65,7.7,294.7,323.5,296.5
932.7,758,15.7,12.7,82,9.96,65,7.6,294.7,323.5,296.5
932.4,761,15.7,12.7,82,9.94,64,7.5,294.7,323.4,296.4
932.0,765,15.7,12.7,82,9.93,64,7.5,294.7,323.4,296.5
931.5,768,15.7,12.7,82,9.93,63,7.4,294.7,323.5,296.5
931.1,772,15.6,12.7,82,9.93,63,7.4,294.7,323.5,296.5
930.7,776,15.6,12.6,82,9.92,62,7.3,294.7,323.5,296.5
930.2,780,15.6,12.6,83,9.92,61,7.2,294.8,323.5,296.5
929.8,785,15.5,12.6,83,9.89,61,7.2,294.7,323.4,296.5
929.4,789,15.5,12.5,82,9.85,60,7.1,294.7,323.3,296.5
928.9,792,15.5,12.5,82,9.84,60,7.0,294.7,323.2,296.5
928.5,796,15.4,12.4,82,9.82,59,7.0,294.7,323.2,296.5
928.2,799,15.4,12.4,82,9.79,59,6.9,294.7,323.1,296.5
927.8,803,15.4,12.4,82,9.80,58,6.8,294.8,323.1,296.5
927.5,806,15.4,12.4,83,9.81,58,6.8,294.8,323.2,296.5
927.1,809,15.4,12.4,83,9.81,58,6.7,294.8,323.2,296.5
926.8,812,15.3,12.4,83,9.80,57,6.6,294.8,323.2,296.6
926.4,815,15.3,12.4,83,9.80,57,6.6,294.9,323.2,296.6
926.1,818,15.3,12.4,82,9.78,57,6.5,294.9,323.2,296.6
925.7,822,15.3,12.3,82,9.77,57,6.4,294.9,323.2,296.7
925.4,825,15.4,12.3,82,9.75,56,6.3,295.0,323.2,296.7
925.1,828,15.4,12.2,81,9.70,56,6.3,295.0,323.1,296.7
925.0,828,15.4,12.2,81,9.69,56,6.2,295.0,323.1,296.7
924.7,831,15.4,12.1,81,9.66,56,6.2,295.1,323.1,296.8
924.4,834,15.4,12.1,81,9.65,56,6.1,295.1,323.1,296.8
924.1,837,15.4,12.1,81,9.64,56,6.0,295.1,323.1,296.8
923.7,840,15.4,12.1,81,9.63,56,6.0,295.1,323.1,296.8
923.4,843,15.4,12.1,81,9.63,56,5.9,295.1,323.1,296.9
923.0,847,15.3,12.1,81,9.63,56,5.8,295.2,323.1,296.9
922.7,850,15.3,12.0,81,9.61,56,5.7,295.1,323.0,296.9
922.3,853,15.3,12.0,81,9.57,55,5.6,295.2,322.9,296.9
921.9,857,15.3,11.8,80,9.48,55,5.6,295.2,322.7,296.9
921.5,861,15.3,11.7,79,9.38,55,5.5,295.3,322.5,297.0
921.0,865,15.3,11.6,78,9.33,55,5.4,295.3,322.5,297.0
920.6,869,15.3,11.5,78,9.32,54,5.3,295.4,322.5,297.0
920.2,873,15.3,11.6,78,9.33,54,5.2,295.4,322.5,297.0
919.7,877,15.3,11.5,78,9.33,53,5.2,295.4,322.5,297.0
919.3,881,15.2,11.5,78,9.30,53,5.1,295.4,322.4,297.0
918.8,885,15.2,11.4,78,9.27,52,5.0,295.4,322.4,297.1
918.4,889,15.2,11.4,78,9.23,52,5.0,295.5,322.3,297.1
917.9,894,15.2,11.3,77,9.20,51,4.9,295.5,322.2,297.1
917.5,898,15.2,11.3,77,9.18,50,4.8,295.5,322.2,297.1
917.0,902,15.1,11.3,78,9.20,49,4.8,295.5,322.3,297.1
916.6,906,15.1,11.4,78,9.25,48,4.8,295.5,322.4,297.1
916.1,910,15.0,11.4,79,9.29,47,4.7,295.4,322.4,297.1
915.6,915,14.9,11.4,80,9.31,46,4.7,295.4,322.5,297.1
915.2,919,14.9,11.5,80,9.32,45,4.7,295.4,322.5,297.1
914.7,923,14.8,11.4,80,9.30,44,4.7,295.4,322.4,297.1
914.3,927,14.8,11.4,80,9.28,43,4.8,295.4,322.4,297.1
913.8,932,14.8,11.4,80,9.27,42,4.8,295.5,322.4,297.1
913.4,936,14.7,11.3,80,9.27,41,4.8,295.4,322.4,297.1
913.0,939,14.7,11.3,80,9.28,40,4.9,295.4,322.4,297.1
912.6,943,14.7,11.3,80,9.27,39,5.0,295.4,322.4,297.1
912.2,947,14.6,11.4,81,9.31,38,5.0,295.4,322.5,297.1
911.7,951,14.6,11.5,82,9.36,38,5.1,295.4,322.6,297.1
911.3,955,14.6,11.5,82,9.42,37,5.2,295.5,322.8,297.1
910.9,959,14.6,11.6,82,9.47,37,5.3,295.5,323.1,297.2
910.4,963,14.6,11.6,82,9.48,36,5.4,295.6,323.1,297.3
909.9,968,14.6,11.5,82,9.43,36,5.5,295.6,323.0,297.2
909.4,973,14.5,11.4,82,9.38,35,5.6,295.6,322.9,297.3
908.8,978,14.6,11.4,81,9.35,35,5.7,295.7,322.9,297.3
908.3,983,14.5,11.4,82,9.38,34,5.8,295.7,323.0,297.4
907.7,989,14.5,11.5,82,9.41,34,5.9,295.7,323.1,297.4
907.0,995,14.4,11.5,83,9.43,34,6.0,295.7,323.1,297.4
906.4,1001,14.4,11.5,83,9.47,33,6.0,295.7,323.2,297.4
905.8,1007,14.4,11.6,83,9.52,32,6.1,295.8,323.5,297.5
905.1,1013,14.3,11.6,84,9.52,32,6.2,295.7,323.4,297.4
904.5,1019,14.2,11.5,84,9.48,31,6.3,295.7,323.2,297.4
903.8,1025,14.2,11.5,84,9.48,30,6.4,295.7,323.3,297.4
903.1,1031,14.1,11.5,85,9.49,30,6.4,295.7,323.3,297.4
902.4,1038,14.0,11.6,85,9.53,29,6.5,295.7,323.4,297.4
901.7,1044,13.9,11.8,87,9.66,28,6.5,295.7,323.7,297.4
901.0,1051,13.8,11.9,89,9.79,27,6.6,295.6,324.0,297.4
900.4,1057,13.7,12.0,89,9.80,26,6.6,295.5,324.0,297.3
899.7,1063,13.6,11.9,89,9.76,24,6.7,295.6,323.9,297.3
899.0,1070,13.6,11.8,89,9.69,23,6.8,295.6,323.8,297.3
898.4,1075,13.6,11.6,88,9.61,22,6.8,295.6,323.6,297.4
897.8,1081,13.6,11.5,87,9.53,21,6.9,295.7,323.5,297.4
897.2,1087,13.6,11.4,86,9.49,19,6.9,295.8,323.4,297.5
896.5,1093,13.7,11.4,86,9.51,18,7.0,295.9,323.6,297.6
895.9,1099,13.6,11.4,87,9.51,17,7.1,295.9,323.6,297.6
895.2,1106,13.6,11.4,87,9.51,15,7.1,295.9,323.6,297.6
894.5,1112,13.5,11.5,87,9.55,14,7.2,295.9,323.7,297.6
893.8,1119,13.4,11.6,89,9.63,13,7.3,295.9,323.9,297.6
893.1,1125,13.2,11.7,90,9.69,12,7.3,295.8,323.9,297.5
892.4,1132,13.1,11.7,91,9.70,11,7.4,295.8,324.0,297.5
891.7,1139,13.1,11.6,90,9.65,10,7.4,295.8,323.8,297.5
891.0,1146,13.2,11.5,89,9.60,9,7.5,295.9,323.9,297.6
890.3,1152,13.2,11.4,89,9.57,8,7.5,296.0,323.9,297.8
889.6,1159,13.2,11.4,89,9.54,7,7.6,296.0,323.8,297.7
888.9,1165,13.1,11.3,89,9.50,6,7.6,296.0,323.7,297.7
888.2,1172,13.0,11.2,89,9.46,6,7.7,296.0,323.6,297.7
887.6,1178,13.0,11.2,89,9.42,5,7.7,296.1,323.5,297.7
886.9,1184,12.9,11.1,89,9.41,5,7.7,296.1,323.5,297.7
886.3,1190,12.9,11.1,89,9.39,4,7.7,296.0,323.4,297.7
885.7,1196,12.8,11.1,89,9.40,4,7.7,296.0,323.4,297.7
885.0,1202,12.7,11.1,90,9.43,4,7.6,296.0,323.5,297.7
884.4,1208,12.7,11.1,90,9.43,4,7.6,296.0,323.5,297.7
883.8,1214,12.6,11.1,90,9.42,4,7.6,296.0,323.5,297.7
883.1,1220,12.6,11.1,90,9.42,4,7.5,296.1,323.5,297.8
882.5,1227,12.6,11.1,91,9.44,4,7.5,296.1,323.6,297.8
881.8,1233,12.6,11.1,91,9.44,5,7.4,296.2,323.7,297.8
881.1,1239,12.5,11.0,91,9.41,5,7.3,296.1,323.6,297.8
880.4,1246,12.4,10.9,91,9.36,5,7.2,296.2,323.4,297.8
879.8,1252,12.5,10.8,90,9.29,6,7.2,296.3,323.4,297.9
879.1,1259,12.5,10.7,89,9.26,6,7.1,296.4,323.4,298.0
878.4,1265,12.6,10.6,88,9.20,7,7.0,296.5,323.4,298.1
877.7,1272,12.6,10.6,87,9.15,7,6.9,296.6,323.3,298.2
877.1,1278,12.6,10.5,87,9.12,8,6.8,296.7,323.3,298.3
876.4,1284,12.6,10.4,87,9.10,9,6.7,296.7,323.3,298.3
875.8,1290,12.5,10.4,87,9.10,9,6.7,296.7,323.3,298.3
875.2,1296,12.5,10.5,87,9.13,10,6.6,296.7,323.4,298.4
874.6,1302,12.5,10.5,88,9.13,11,6.5,296.7,323.5,298.4
874.0,1308,12.4,10.4,88,9.13,12,6.5,296.7,323.4,298.4
873.3,1314,12.3,10.5,88,9.14,13,6.4,296.8,323.5,298.4
872.7,1320,12.3,10.4,88,9.13,13,6.4,296.8,323.5,298.4
872.1,1326,12.3,10.4,88,9.09,14,6.3,296.8,323.4,298.4
871.5,1332,12.2,10.2,88,9.01,15,6.3,296.8,323.2,298.4
870.9,1338,12.3,10.0,86,8.91,16,6.3,296.9,323.1,298.5
870.2,1344,12.4,9.9,85,8.85,16,6.2,297.1,323.1,298.7
869.6,1350,12.4,9.9,84,8.81,17,6.2,297.2,323.1,298.8
869.0,1356,12.4,9.8,84,8.81,18,6.2,297.2,323.1,298.8
868.4,1362,12.3,9.8,84,8.78,18,6.2,297.2,323.0,298.8
867.8,1368,12.3,9.7,84,8.75,19,6.2,297.2,322.9,298.8
867.2,1373,12.3,9.7,84,8.74,19,6.2,297.3,322.9,298.8
866.6,1379,12.2,9.7,85,8.75,20,6.1,297.3,323.0,298.8
866.0,1385,12.2,9.7,85,8.77,20,6.1,297.3,323.1,298.9
865.4,1391,12.2,9.8,85,8.81,20,6.1,297.4,323.2,298.9
864.8,1397,12.1,9.8,85,8.80,21,6.1,297.4,323.2,298.9
864.1,1403,12.1,9.7,85,8.78,21,6.1,297.4,323.2,298.9
863.5,1409,12.0,9.7,85,8.77,21,6.1,297.4,323.2,299.0
862.9,1415,12.0,9.7,86,8.79,21,6.1,297.4,323.2,299.0
862.3,1420,11.9,9.7,87,8.82,21,6.1,297.4,323.2,298.9
861.7,1426,11.8,9.8,88,8.85,21,6.0,297.3,323.3,298.9
861.1,1432,11.7,9.8,88,8.86,21,6.0,297.3,323.3,298.9
860.5,1438,11.6,9.8,88,8.85,21,6.0,297.3,323.2,298.9
859.9,1444,11.6,9.7,88,8.85,21,6.0,297.3,323.2,298.9
859.3,1450,11.6,9.8,89,8.87,21,5.9,297.3,323.3,298.9
858.7,1456,11.5,9.8,89,8.88,21,5.9,297.3,323.4,298.9
858.1,1462,11.4,9.8,90,8.89,20,5.9,297.3,323.4,298.9
857.5,1468,11.4,9.8,90,8.92,20,5.9,297.3,323.4,298.9
856.9,1474,11.3,9.9,91,8.96,20,5.8,297.3,323.5,298.9
856.2,1480,11.2,9.9,92,8.99,20,5.8,297.2,323.5,298.8
855.6,1486,11.1,9.9,93,9.00,19,5.8,297.2,323.6,298.8
855.0,1492,11.1,9.9,92,8.98,19,5.7,297.2,323.5,298.8
854.3,1499,11.0,9.8,92,8.94,19,5.7,297.3,323.5,298.9
853.7,1505,11.0,9.7,92,8.90,18,5.6,297.3,323.4,298.9
853.0,1511,11.0,9.7,92,8.90,18,5.6,297.3,323.4,298.9
852.4,1518,10.9,9.7,92,8.91,18,5.6,297.3,323.5,298.9
851.7,1524,10.8,9.7,93,8.92,18,5.5,297.3,323.5,298.9
851.1,1530,10.7,9.7,93,8.92,17,5.5,297.3,323.4,298.9
850.5,1536,10.7,9.7,93,8.91,17,5.5,297.3,323.4,298.9
850.0,1541,10.7,9.7,94,8.90,17,5.5,297.3,323.4,298.9
849.8,1542,10.7,9.7,94,8.90,17,5.4,297.3,323.4,298.9
849.2,1548,10.6,9.6,94,8.89,17,5.4,297.3,323.4,298.9
848.6,1554,10.5,9.6,94,8.87,16,5.4,297.3,323.3,298.9
848.1,1560,10.5,9.6,94,8.88,16,5.4,297.3,323.4,298.9
847.5,1566,10.4,9.6,95,8.89,16,5.3,297.3,323.4,298.9
846.9,1571,10.4,9.6,95,8.91,16,5.3,297.3,323.5,298.9
846.4,1576,10.4,9.6,95,8.90,16,5.3,297.4,323.5,298.9
845.9,1582,10.3,9.6,95,8.89,16,5.3,297.4,323.4,298.9
845.3,1587,10.3,9.5,95,8.88,15,5.3,297.4,323.4,298.9
844.8,1592,10.3,9.5,95,8.87,15,5.3,297.4,323.4,299.0
844.3,1597,10.2,9.5,95,8.85,15,5.3,297.4,323.4,299.0
843.8,1602,10.3,9.5,95,8.85,14,5.3,297.5,323.5,299.1
843.2,1607,10.2,9.5,95,8.85,14,5.3,297.5,323.5,299.1
842.7,1613,10.1,9.5,96,8.85,14,5.3,297.4,323.4,299.0
842.2,1618,10.0,9.4,96,8.83,13,5.3,297.4,323.3,299.0
841.7,1623,10.0,9.4,96,8.80,13,5.4,297.4,323.3,299.0
841.2,1627,10.0,9.3,96,8.77,12,5.4,297.4,323.2,299.0
840.8,1632,9.9,9.2,95,8.73,11,5.5,297.5,323.1,299.0
840.3,1636,10.0,9.2,95,8.72,10,5.5,297.6,323.2,299.1
839.9,1641,10.0,9.3,95,8.76,10,5.6,297.7,323.4,299.2
839.5,1645,10.0,9.3,95,8.80,9,5.6,297.7,323.5,299.2
839.0,1649,9.9,9.4,96,8.85,8,5.7,297.6,323.6,299.2
838.6,1653,9.8,9.4,97,8.87,7,5.8,297.5,323.6,299.1
838.2,1658,9.7,9.4,98,8.89,6,5.8,297.5,323.6,299.1
837.8,1662,9.6,9.4,99,8.90,5,5.9,297.5,323.6,299.1
837.3,1666,9.6,9.4,99,8.90,4,6.0,297.5,323.6,299.0
836.9,1670,9.5,9.4,99,8.87,2,6.1,297.4,323.5,299.0
836.5,1674,9.5,9.3,99,8.84,1,6.2,297.4,323.4,299.0
836.1,1678,9.5,9.3,99,8.82,360,6.2,297.5,323.4,299.1
835.7,1682,9.5,9.2,98,8.78,359,6.3,297.5,323.3,299.1
835.3,1686,9.5,9.2,98,8.75,358,6.4,297.6,323.3,299.1
834.9,1690,9.5,9.1,97,8.71,357,6.4,297.6,323.2,299.2
834.5,1694,9.6,9.0,96,8.65,357,6.5,297.8,323.2,299.3
834.1,1698,9.6,8.9,96,8.63,356,6.5,297.7,323.1,299.3
833.7,1702,9.5,9.0,96,8.65,355,6.5,297.7,323.2,299.3
833.3,1706,9.5,8.9,96,8.64,354,6.6,297.7,323.1,299.3
832.9,1710,9.5,8.9,96,8.62,354,6.6,297.8,323.1,299.3
832.5,1714,9.4,8.9,96,8.61,353,6.6,297.8,323.1,299.3
832.1,1718,9.4,8.8,96,8.60,353,6.6,297.8,323.1,299.3
831.7,1723,9.3,8.8,96,8.58,353,6.5,297.8,323.0,299.3
831.2,1727,9.3,8.7,96,8.55,353,6.5,297.8,323.0,299.3
830.8,1732,9.4,8.6,95,8.49,352,6.5,297.9,322.9,299.4
830.3,1736,9.4,8.5,94,8.43,352,6.4,297.9,322.8,299.5
829.8,1741,9.4,8.4,94,8.38,352,6.4,298.0,322.7,299.5
829.3,1746,9.4,8.4,93,8.35,353,6.3,298.1,322.7,299.6
828.8,1751,9.4,8.3,93,8.33,353,6.2,298.1,322.7,299.6
828.2,1757,9.4,8.3,93,8.32,353,6.2,298.2,322.7,299.7
827.7,1762,9.4,8.3,93,8.33,354,6.1,298.2,322.8,299.7
827.2,1767,9.3,8.3,94,8.36,354,6.1,298.2,322.8,299.7
