PRES,HGHT,TEMP,DWPT,RELH,MIXR,DRCT,SPED,THTA,THTE,THTV
1015.9,31,23.2,19.2,78,13.89,100,5.0,295.0,335.0,297.5
1015.2,36,23.3,19.5,79,14.21,107,3.5,295.2,336.1,297.7
1014.7,41,23.1,19.2,79,13.94,112,3.0,295.0,335.1,297.5
1013.8,49,23.0,19.1,79,13.84,113,3.0,294.9,334.8,297.4
1013.2,54,22.9,19.0,79,13.81,113,3.1,294.9,334.7,297.4
1012.7,58,22.9,19.0,79,13.75,112,3.3,294.9,334.5,297.4
1011.8,66,22.8,18.8,78,13.65,111,3.5,294.9,334.2,297.4
1011.4,70,22.7,18.8,78,13.59,111,3.7,294.9,334.1,297.3
1010.7,75,22.7,18.6,78,13.49,111,3.8,295.0,333.8,297.3
1010.1,81,22.6,18.4,77,13.30,110,3.9,294.9,333.2,297.3
1009.5,86,22.5,18.3,77,13.23,110,4.1,294.9,333.0,297.2
1008.8,92,22.5,18.5,78,13.36,109,4.2,294.9,333.4,297.3
1008.2,97,22.5,18.6,79,13.46,109,4.3,294.9,333.7,297.3
1007.5,103,22.4,18.5,78,13.40,108,4.4,294.9,333.5,297.3
1006.8,109,22.3,18.2,77,13.18,108,4.4,294.9,332.9,297.2
1006.1,115,22.3,18.0,77,13.04,108,4.5,294.9,332.4,297.2
1005.5,121,22.2,18.1,77,13.07,107,4.6,294.9,332.5,297.2
1004.8,127,22.1,18.1,78,13.11,107,4.7,294.9,332.6,297.2
1004.1,133,22.1,18.1,78,13.14,106,4.7,294.9,332.7,297.2
1003.4,139,22.0,18.2,79,13.20,106,4.8,294.9,332.9,297.2
1002.7,145,22.0,18.2,79,13.24,106,4.9,294.9,333.0,297.2
1002.0,150,21.9,18.3,80,13.31,105,4.9,294.9,333.2,297.3
1001.3,157,21.9,18.3,80,13.35,105,5.0,294.9,333.4,297.3
1000.6,163,21.8,18.3,81,13.37,105,5.0,294.9,333.4,297.3
1000.0,168,21.8,18.3,81,13.38,105,5.0,294.9,333.4,297.3
999.9,169,21.8,18.3,81,13.38,105,5.1,294.9,333.4,297.3
999.1,176,21.7,18.4,81,13.43,105,5.1,294.9,333.6,297.3
998.3,183,21.6,18.4,82,13.47,104,5.2,294.9,333.7,297.3
997.6,189,21.6,18.4,82,13.49,104,5.2,294.9,333.7,297.3
996.8,196,21.5,18.4,83,13.51,104,5.3,294.9,333.8,297.3
996.0,203,21.4,18.5,83,13.54,104,5.3,294.9,333.9,297.3
995.3,209,21.4,18.5,83,13.56,104,5.4,294.9,333.9,297.3
994.5,216,21.3,18.4,84,13.53,104,5.4,294.9,333.9,297.3
993.8,222,21.2,18.3,84,13.47,104,5.5,294.9,333.7,297.3
993.1,228,21.2,18.3,84,13.41,104,5.5,294.9,333.5,297.3
992.4,234,21.1,18.2,84,13.37,104,5.5,294.9,333.4,297.2
991.8,240,21.0,18.2,84,13.38,104,5.6,294.9,333.4,297.2
991.1,246,21.0,18.2,84,13.40,104,5.6,294.9,333.4,297.3
990.5,251,20.9,18.2,84,13.38,104,5.7,294.9,333.4,297.2
989.9,256,20.9,18.2,85,13.38,103,5.7,294.9,333.4,297.2
989.3,262,20.8,18.2,85,13.42,103,5.8,294.9,333.5,297.3
988.7,267,20.8,18.2,85,13.46,103,5.8,294.9,333.6,297.3
988.1,272,20.7,18.3,86,13.49,103,5.9,294.9,333.7,297.3
987.4,278,20.7,18.3,86,13.51,103,6.0,294.9,333.8,297.3
986.8,284,20.6,18.3,86,13.50,103,6.0,294.9,333.7,297.3
986.1,290,20.6,18.3,87,13.50,103,6.1,294.9,333.8,297.3
985.4,296,20.5,18.2,87,13.49,103,6.1,294.9,333.7,297.3
984.7,302,20.4,18.2,87,13.45,103,6.2,294.9,333.6,297.3
983.9,309,20.4,18.1,87,13.44,103,6.3,294.9,333.5,297.3
983.1,316,20.3,18.2,88,13.47,103,6.3,294.9,333.7,297.3
982.3,323,20.2,18.2,88,13.49,103,6.4,294.9,333.7,297.3
981.5,330,20.2,18.1,88,13.46,103,6.5,294.9,333.6,297.3
980.6,338,20.1,18.1,88,13.46,103,6.5,294.9,333.6,297.3
979.8,345,20.0,18.2,89,13.50,103,6.6,294.9,333.8,297.3
978.9,353,20.0,18.2,90,13.55,103,6.7,294.9,333.9,297.3
978.1,360,19.9,18.2,90,13.58,104,6.8,294.9,334.0,297.3
977.3,368,19.8,18.2,90,13.60,104,6.9,294.9,334.0,297.3
976.5,375,19.8,18.2,91,13.57,104,6.9,294.9,334.0,297.3
975.7,382,19.7,18.1,91,13.53,104,7.0,294.9,333.8,297.3
974.9,389,19.6,18.1,91,13.51,104,7.1,294.9,333.8,297.3
974.1,396,19.6,18.1,91,13.50,105,7.2,294.9,333.7,297.3
973.3,402,19.5,18.0,91,13.49,105,7.2,294.9,333.7,297.3
972.6,409,19.4,18.0,92,13.48,105,7.3,294.9,333.7,297.3
971.9,415,19.3,18.0,92,13.48,105,7.4,294.9,333.7,297.3
971.1,422,19.3,18.0,92,13.51,105,7.4,294.9,333.8,297.3
970.4,428,19.2,18.0,93,13.51,106,7.5,294.9,333.8,297.3
969.7,434,19.2,18.0,93,13.50,106,7.5,294.9,333.7,297.3
969.0,441,19.1,18.0,93,13.49,106,7.6,294.9,333.7,297.3
968.4,447,19.0,17.9,93,13.47,106,7.6,294.9,333.7,297.3
967.7,452,19.0,17.9,94,13.49,106,7.7,294.9,333.7,297.3
967.1,458,18.9,18.0,94,13.54,106,7.7,294.9,333.8,297.2
966.5,463,18.8,18.0,95,13.55,106,7.7,294.8,333.8,297.2
965.9,468,18.8,18.0,95,13.54,106,7.7,294.8,333.8,297.2
965.4,473,18.8,17.8,94,13.44,105,7.7,294.9,333.5,297.2
964.8,478,18.7,17.8,94,13.37,105,7.7,294.9,333.3,297.2
964.3,483,18.7,17.8,95,13.39,105,7.7,294.8,333.4,297.2
963.8,488,18.6,17.8,95,13.45,105,7.7,294.8,333.6,297.2
963.2,492,18.6,17.9,96,13.50,104,7.7,294.9,333.7,297.2
962.7,497,18.5,17.8,96,13.46,104,7.7,294.9,333.6,297.2
962.2,502,18.5,17.8,96,13.42,103,7.7,294.9,333.5,297.2
961.7,506,18.5,17.7,96,13.40,103,7.6,294.9,333.4,297.2
961.1,511,18.4,17.8,96,13.42,102,7.6,294.9,333.5,297.3
960.6,516,18.4,17.9,97,13.53,102,7.5,294.9,333.8,297.3
960.0,522,18.3,17.9,98,13.59,101,7.5,294.9,334.0,297.3
959.4,527,18.2,17.9,98,13.56,101,7.5,294.9,333.9,297.3
958.8,532,18.2,17.8,98,13.47,100,7.4,294.8,333.6,297.2
958.2,538,18.1,17.7,97,13.43,100,7.4,294.8,333.5,297.2
957.6,543,18.1,17.7,98,13.41,99,7.3,294.9,333.4,297.2
957.1,547,18.0,17.7,98,13.41,99,7.3,294.9,333.4,297.2
956.6,552,18.0,17.7,98,13.44,98,7.2,294.9,333.5,297.2
956.1,556,18.0,17.7,98,13.44,98,7.2,294.9,333.6,297.3
955.6,561,17.9,17.7,98,13.43,97,7.2,294.9,333.5,297.2
955.1,566,17.9,17.6,98,13.40,97,7.1,294.9,333.4,297.2
954.5,570,17.8,17.6,98,13.37,97,7.1,294.9,333.3,297.2
954.0,575,17.8,17.6,99,13.38,96,7.1,294.9,333.3,297.2
953.4,580,17.7,17.6,99,13.40,96,7.1,294.9,333.4,297.2
952.9,585,17.7,17.6,99,13.41,95,7.1,294.9,333.4,297.2
952.4,590,17.6,17.6,99,13.38,95,7.1,294.9,333.4,297.2
951.8,595,17.6,17.5,99,13.33,95,7.1,294.9,333.3,297.3
951.3,599,17.6,17.4,99,13.24,94,7.1,294.9,333.0,297.2
950.8,604,17.6,17.3,99,13.22,94,7.1,294.9,333.0,297.3
950.2,609,17.5,17.3,99,13.23,93,7.1,294.9,333.0,297.3
949.7,614,17.5,17.4,99,13.24,93,7.2,294.9,333.1,297.3
949.1,619,17.4,17.4,100,13.27,92,7.2,295.0,333.1,297.3
948.5,624,17.4,17.4,100,13.28,92,7.2,295.0,333.2,297.3
947.9,630,17.4,17.4,100,13.27,91,7.3,295.0,333.2,297.3
947.3,636,17.3,17.3,100,13.25,91,7.3,295.0,333.1,297.3
946.7,641,17.3,17.2,100,13.19,90,7.4,295.0,333.0,297.3
946.0,647,17.3,17.2,100,13.16,89,7.4,295.0,332.9,297.4
945.4,653,17.2,17.2,100,13.16,89,7.5,295.1,333.0,297.4
944.7,659,17.2,17.2,100,13.19,88,7.5,295.1,333.1,297.5
944.1,665,17.2,17.2,100,13.23,87,7.6,295.2,333.3,297.5
943.4,671,17.2,17.2,100,13.24,87,7.7,295.3,333.4,297.6
942.8,677,17.2,17.2,100,13.19,86,7.7,295.3,333.3,297.6
942.1,683,17.1,17.1,100,13.15,85,7.8,295.3,333.2,297.6
941.4,689,17.1,17.1,100,13.15,85,7.8,295.3,333.2,297.6
940.7,695,17.1,17.1,100,13.13,84,7.9,295.3,333.2,297.7
940.0,702,17.0,17.0,100,13.12,84,7.9,295.4,333.2,297.7
939.3,708,17.0,17.0,100,13.10,83,8.0,295.4,333.2,297.7
938.7,714,17.0,17.0,100,13.08,83,8.1,295.4,333.2,297.7
938.0,721,17.0,17.0,100,13.07,83,8.1,295.5,333.2,297.8
937.3,727,16.9,16.9,100,13.06,83,8.2,295.5,333.2,297.8
936.5,733,16.9,16.9,100,13.07,83,8.2,295.6,333.3,297.9
935.8,740,16.9,16.9,100,13.08,83,8.3,295.6,333.4,298.0
935.2,746,16.9,16.9,100,13.07,83,8.3,295.7,333.4,298.0
934.5,752,16.9,16.9,100,13.05,83,8.4,295.7,333.4,298.0
933.8,758,16.8,16.8,100,13.03,84,8.5,295.7,333.4,298.0
933.1,765,16.8,16.8,100,13.01,84,8.5,295.7,333.3,298.1
932.5,770,16.8,16.8,100,12.99,85,8.6,295.8,333.3,298.1
931.8,776,16.7,16.7,100,12.94,86,8.7,295.8,333.2,298.1
931.2,782,16.6,16.6,100,12.84,87,8.8,295.7,332.8,298.0
930.5,788,16.5,16.4,99,12.70,88,8.8,295.6,332.3,297.9
929.9,795,16.3,16.1,99,12.50,89,8.9,295.5,331.6,297.8
929.2,801,16.2,16.0,99,12.40,90,9.0,295.5,331.2,297.7
928.5,807,16.1,16.0,100,12.41,91,9.2,295.4,331.3,297.6
927.9,813,16.0,16.0,100,12.42,92,9.3,295.4,331.3,297.6
927.2,819,16.0,16.0,100,12.39,93,9.4,295.4,331.2,297.6
926.6,825,16.0,16.0,100,12.42,94,9.5,295.5,331.3,297.7
926.0,830,16.0,16.0,100,12.45,95,9.7,295.6,331.5,297.8
925.4,836,16.0,16.0,100,12.49,96,9.8,295.7,331.8,297.9
925.0,839,16.1,16.1,100,12.55,96,9.8,295.8,332.1,298.0
924.8,841,16.1,16.1,100,12.57,97,9.9,295.8,332.2,298.0
924.3,846,16.2,16.2,100,12.66,98,10.1,296.0,332.6,298.2
923.8,851,16.3,16.3,100,12.69,99,10.2,296.0,332.8,298.3
923.3,855,16.1,16.1,100,12.59,100,10.4,296.0,332.4,298.2
922.8,860,15.9,15.8,99,12.31,100,10.5,295.7,331.3,297.9
922.2,865,15.7,15.6,99,12.15,101,10.6,295.6,330.7,297.7
921.7,870,15.6,15.5,99,12.08,102,10.8,295.5,330.4,297.7
921.2,875,15.5,15.4,99,11.99,102,10.9,295.5,330.2,297.7
920.6,880,15.5,15.2,98,11.92,103,11.0,295.6,330.0,297.7
920.0,886,15.5,15.2,98,11.87,103,11.1,295.6,330.0,297.7
919.4,891,15.6,15.3,98,11.98,104,11.2,295.7,330.4,297.9
918.8,896,15.7,15.5,99,12.18,104,11.3,295.9,331.2,298.1
918.3,901,15.8,15.6,99,12.21,104,11.4,296.1,331.4,298.2
917.8,906,15.8,15.3,97,11.98,105,11.5,296.1,330.8,298.2
917.3,911,15.7,15.3,98,12.03,105,11.6,296.0,330.9,298.2
916.8,915,15.6,15.5,99,12.20,105,11.7,296.0,331.4,298.2
916.3,920,15.6,15.6,100,12.23,105,11.8,296.1,331.5,298.2
915.9,924,15.6,15.5,99,12.15,105,11.8,296.1,331.3,298.3
915.4,928,15.6,15.2,98,11.98,106,11.9,296.1,330.8,298.2
915.0,932,15.4,14.7,96,11.59,106,12.0,296.0,329.6,298.1
914.6,936,15.3,14.5,95,11.43,106,12.0,295.9,329.0,297.9
914.1,940,15.2,14.7,97,11.58,106,12.1,295.8,329.3,297.9
913.6,945,15.1,14.9,99,11.77,106,12.1,295.8,329.8,297.9
913.1,949,15.1,15.0,100,11.83,106,12.2,295.8,330.0,297.9
912.6,954,15.0,14.8,98,11.66,106,12.2,295.8,329.6,297.9
912.1,959,15.0,14.3,96,11.32,106,12.3,295.8,328.7,297.9
911.6,964,15.1,13.7,92,10.90,106,12.3,295.9,327.6,297.9
911.0,969,15.1,13.3,89,10.63,107,12.4,296.0,326.9,297.9
910.5,974,15.1,13.2,89,10.55,107,12.4,296.1,326.7,298.0
909.9,979,15.1,13.2,88,10.51,107,12.5,296.1,326.7,298.0
909.4,984,15.1,13.0,87,10.39,107,12.5,296.1,326.4,298.0
908.8,990,15.1,12.8,87,10.30,107,12.5,296.2,326.2,298.0
908.2,995,15.0,12.9,87,10.37,107,12.6,296.2,326.4,298.1
907.6,1001,15.0,13.2,89,10.54,107,12.6,296.2,326.9,298.1
907.0,1006,15.0,13.2,89,10.60,107,12.6,296.3,327.1,298.1
906.4,1012,14.9,13.3,90,10.65,107,12.7,296.3,327.2,298.2
905.8,1018,14.9,13.3,90,10.64,107,12.7,296.3,327.2,298.2
905.1,1024,14.8,13.2,90,10.62,107,12.7,296.3,327.2,298.2
904.5,1030,14.8,13.2,90,10.58,107,12.7,296.3,327.1,298.2
903.8,1036,14.7,13.0,89,10.47,107,12.7,296.3,326.8,298.2
903.1,1043,14.7,12.7,88,10.27,107,12.8,296.3,326.2,298.2
902.4,1049,14.7,12.4,86,10.06,107,12.8,296.4,325.7,298.2
901.8,1056,14.7,12.1,85,9.90,107,12.8,296.5,325.3,298.2
901.1,1062,14.7,12.0,84,9.83,107,12.7,296.6,325.2,298.3
900.4,1069,14.7,12.1,84,9.87,107,12.7,296.6,325.4,298.4
899.7,1075,14.7,12.1,85,9.89,107,12.7,296.6,325.5,298.4
899.1,1081,14.6,12.0,84,9.82,107,12.7,296.7,325.3,298.4
898.4,1087,14.6,11.8,83,9.72,107,12.7,296.7,325.1,298.5
897.8,1093,14.6,11.6,82,9.63,107,12.6,296.8,324.9,298.5
897.2,1099,14.6,11.6,82,9.60,107,12.6,296.8,324.9,298.5
896.6,1104,14.6,11.6,82,9.58,107,12.6,296.9,324.9,298.6
896.0,1110,14.6,11.5,82,9.56,107,12.5,296.9,324.9,298.6
895.5,1115,14.6,11.4,81,9.52,106,12.5,297.0,324.8,298.7
895.0,1120,14.6,11.4,81,9.48,106,12.4,297.0,324.7,298.7
894.5,1125,14.6,11.3,81,9.45,106,12.3,297.1,324.7,298.7
894.0,1129,14.6,11.3,80,9.43,106,12.3,297.1,324.7,298.8
893.5,1134,14.6,11.2,80,9.41,106,12.2,297.2,324.7,298.9
893.0,1139,14.6,11.2,80,9.37,106,12.2,297.2,324.7,298.9
892.4,1144,14.6,11.1,79,9.33,106,12.1,297.3,324.6,299.0
891.9,1149,14.6,11.0,79,9.30,106,12.0,297.4,324.6,299.0
891.4,1154,14.6,11.0,79,9.26,106,12.0,297.4,324.5,299.1
890.8,1159,14.6,10.9,78,9.22,105,11.9,297.4,324.5,299.1
890.3,1164,14.6,10.8,78,9.18,105,11.8,297.5,324.4,299.1
889.7,1170,14.6,10.7,78,9.13,105,11.8,297.5,324.3,299.1
889.2,1175,14.5,10.6,77,9.07,104,11.7,297.5,324.1,299.1
888.6,1180,14.5,10.5,77,9.01,104,11.7,297.5,324.0,299.1
888.0,1186,14.5,10.4,77,8.98,104,11.6,297.6,323.9,299.2
887.5,1191,14.5,10.4,77,8.97,103,11.6,297.6,323.9,299.2
886.9,1196,14.5,10.4,77,8.96,103,11.6,297.6,324.0,299.2
886.3,1202,14.4,10.4,77,8.97,103,11.5,297.6,324.0,299.3
885.8,1207,14.4,10.4,77,8.95,102,11.5,297.7,323.9,299.3
885.2,1213,14.3,10.3,77,8.93,102,11.5,297.7,323.9,299.3
884.6,1219,14.3,10.3,77,8.93,101,11.5,297.7,323.9,299.3
884.0,1224,14.2,10.3,77,8.96,101,11.5,297.7,324.0,299.3
883.4,1230,14.2,10.4,78,8.98,100,11.5,297.7,324.1,299.3
882.8,1236,14.1,10.4,78,8.99,100,11.6,297.7,324.1,299.3
882.1,1242,14.1,10.4,78,9.00,100,11.6,297.7,324.2,299.3
881.5,1248,14.1,10.4,78,9.01,99,11.6,297.8,324.3,299.4
880.9,1254,14.1,10.4,78,9.03,99,11.7,297.8,324.4,299.5
880.3,1260,14.1,10.4,79,9.06,99,11.7,297.9,324.6,299.5
879.6,1266,14.1,10.4,78,9.05,98,11.8,298.0,324.6,299.6
879.0,1272,14.1,10.4,79,9.07,98,11.8,298.0,324.7,299.7
878.4,1278,14.1,10.5,79,9.13,98,11.9,298.1,324.9,299.7
877.8,1283,14.1,10.6,79,9.18,98,11.9,298.1,325.1,299.8
877.2,1289,14.1,10.6,80,9.19,98,12.0,298.2,325.2,299.8
876.7,1294,14.1,10.6,79,9.16,98,12.1,298.2,325.2,299.8
876.1,1300,14.0,10.4,79,9.10,97,12.1,298.3,325.1,299.9
875.6,1305,14.0,10.3,78,9.04,97,12.2,298.3,324.9,299.9
875.1,1310,14.0,10.3,78,9.02,98,12.2,298.3,324.9,299.9
874.6,1314,14.0,10.3,78,9.03,98,12.2,298.3,324.9,300.0
874.2,1319,13.9,10.3,79,9.06,98,12.3,298.3,325.0,300.0
873.7,1323,13.9,10.4,79,9.09,98,12.3,298.3,325.1,300.0
873.2,1328,13.9,10.4,80,9.10,98,12.3,298.4,325.2,300.0
872.7,1333,13.8,10.4,79,9.08,98,12.3,298.4,325.1,300.0
872.2,1338,13.8,10.3,79,9.06,98,12.3,298.4,325.1,300.0
871.6,1343,13.8,10.2,79,9.00,99,12.3,298.4,325.0,300.0
871.1,1349,13.8,10.0,78,8.91,99,12.3,298.5,324.7,300.1
870.5,1354,13.8,9.9,77,8.81,99,12.3,298.5,324.5,300.1
869.9,1360,13.8,9.7,77,8.73,99,12.2,298.6,324.3,300.1
869.4,1365,13.8,9.6,76,8.68,99,12.2,298.6,324.2,300.2
868.9,1370,13.7,9.6,76,8.68,100,12.2,298.6,324.3,300.2
868.4,1374,13.7,9.6,76,8.69,100,12.1,298.6,324.3,300.2
868.0,1379,13.7,9.6,77,8.70,100,12.1,298.6,324.3,300.2
867.5,1383,13.6,9.6,77,8.70,100,12.0,298.7,324.4,300.2
867.1,1387,13.6,9.7,77,8.72,100,11.9,298.7,324.5,300.3
866.7,1391,13.6,9.7,77,8.76,100,11.9,298.7,324.6,300.3
866.3,1395,13.6,9.8,78,8.82,101,11.8,298.8,324.8,300.4
865.9,1399,13.6,9.9,78,8.87,101,11.7,298.8,325.0,300.4
865.4,1403,13.6,9.9,78,8.90,101,11.7,298.8,325.1,300.4
865.0,1407,13.6,9.9,78,8.91,101,11.6,298.9,325.2,300.5
864.6,1411,13.6,9.9,79,8.92,101,11.5,298.9,325.2,300.5
864.2,1416,13.6,10.0,79,8.97,100,11.5,298.9,325.4,300.5
863.7,1420,13.6,10.2,80,9.09,100,11.4,299.0,325.8,300.6
863.2,1425,13.6,10.3,81,9.18,100,11.4,299.0,326.1,300.7
862.7,1430,13.5,10.4,81,9.21,100,11.3,299.0,326.2,300.7
862.2,1435,13.5,10.4,82,9.22,100,11.3,299.0,326.2,300.7
861.6,1441,13.4,10.4,82,9.22,99,11.2,299.0,326.2,300.7
861.0,1447,13.4,10.3,82,9.20,99,11.2,299.0,326.2,300.7
860.4,1452,13.3,10.3,82,9.18,99,11.2,299.0,326.1,300.7
859.8,1458,13.3,10.2,82,9.15,98,11.2,299.1,326.1,300.7
859.3,1464,13.2,10.2,82,9.13,98,11.1,299.0,326.0,300.7
858.7,1469,13.2,10.2,82,9.14,98,11.1,299.1,326.1,300.7
858.2,1475,13.1,10.2,82,9.14,98,11.1,299.1,326.1,300.7
857.6,1480,13.1,10.2,82,9.12,97,11.1,299.1,326.0,300.7
857.1,1485,13.0,10.1,82,9.11,97,11.1,299.1,326.0,300.7
856.5,1491,13.0,10.1,83,9.09,97,11.1,299.1,325.9,300.7
856.0,1496,12.9,10.0,82,9.06,97,11.1,299.1,325.9,300.7
855.5,1501,12.9,10.0,83,9.06,97,11.1,299.1,325.9,300.7
855.0,1505,12.9,10.0,83,9.05,97,11.1,299.1,325.8,300.7
854.6,1510,12.8,10.0,83,9.04,97,11.1,299.1,325.8,300.7
854.1,1514,12.8,9.9,83,9.03,97,11.1,299.1,325.8,300.8
853.7,1518,12.8,9.9,83,9.03,98,11.1,299.1,325.8,300.8
853.3,1522,12.7,10.0,83,9.04,98,11.1,299.1,325.9,300.8
852.9,1526,12.7,10.0,83,9.05,99,11.0,299.2,325.9,300.8
852.5,1530,12.7,10.0,84,9.06,99,11.0,299.2,325.9,300.8
852.1,1534,12.6,10.0,84,9.06,100,11.0,299.2,325.9,300.8
851.7,1538,12.6,9.9,84,9.06,100,10.9,299.2,325.9,300.8
851.3,1543,12.6,9.9,84,9.04,101,10.9,299.2,325.9,300.8
850.8,1547,12.6,9.9,84,9.02,101,10.8,299.2,325.9,300.8
850.4,1551,12.5,9.8,84,9.00,102,10.8,299.2,325.8,300.8
850.0,1555,12.5,9.8,84,8.98,102,10.8,299.2,325.8,300.8
849.6,1559,12.5,9.8,84,8.97,103,10.7,299.2,325.8,300.8
849.1,1564,12.4,9.8,84,8.98,104,10.6,299.2,325.8,300.9
848.7,1568,12.4,9.8,84,8.98,104,10.6,299.2,325.8,300.9
848.2,1573,12.4,9.7,84,8.97,105,10.5,299.3,325.8,300.9
847.7,1578,12.3,9.7,84,8.93,105,10.4,299.3,325.7,300.9
847.2,1583,12.3,9.6,83,8.87,106,10.4,299.3,325.5,300.9
846.7,1588,12.3,9.4,83,8.80,106,10.3,299.3,325.4,300.9
846.2,1593,12.2,9.3,82,8.74,106,10.3,299.3,325.2,300.9
845.6,1598,12.2,9.2,82,8.69,107,10.2,299.4,325.1,300.9
845.1,1604,12.2,9.2,82,8.67,107,10.2,299.4,325.1,301.0
844.5,1609,12.2,9.2,82,8.69,107,10.2,299.4,325.2,301.0
844.0,1615,12.1,9.2,82,8.67,107,10.1,299.4,325.1,301.0
843.4,1620,12.1,9.1,81,8.61,106,10.1,299.5,325.0,301.0
842.9,1626,12.1,8.9,81,8.53,106,10.1,299.5,324.8,301.1
842.4,1631,12.1,8.8,80,8.48,106,10.1,299.6,324.7,301.1
841.9,1636,12.1,8.8,80,8.45,106,10.1,299.6,324.7,301.1
841.4,1640,12.1,8.7,80,8.45,105,10.1,299.6,324.7,301.2
841.0,1645,12.1,8.7,80,8.45,105,10.1,299.7,324.7,301.2
840.5,1649,12.0,8.6,80,8.40,105,10.1,299.7,324.6,301.2
840.1,1654,12.1,8.5,79,8.32,105,10.1,299.8,324.5,301.3
839.6,1658,12.1,8.3,78,8.24,104,10.2,299.8,324.3,301.3
839.2,1663,12.1,8.2,77,8.18,104,10.2,299.9,324.2,301.4
838.7,1668,12.1,8.1,76,8.10,104,10.2,300.0,324.1,301.4
838.2,1672,12.2,8.0,75,8.04,104,10.3,300.1,324.0,301.5
837.7,1677,12.2,7.9,75,7.98,104,10.3,300.2,324.0,301.6
837.2,1682,12.2,7.7,74,7.91,104,10.4,300.3,323.8,301.7
836.7,1687,12.3,7.5,73,7.81,105,10.4,300.3,323.6,301.7
836.2,1692,12.3,7.4,72,7.72,105,10.4,300.4,323.5,301.8
835.7,1697,12.3,7.3,71,7.68,106,10.5,300.5,323.4,301.9
835.2,1702,12.3,7.2,71,7.64,106,10.5,300.5,323.3,301.9
834.8,1707,12.3,7.1,70,7.58,107,10.5,300.5,323.2,301.9
834.3,1712,12.3,6.9,69,7.48,107,10.6,300.6,323.0,302.0
833.8,1716,12.4,6.7,68,7.39,108,10.6,300.8,322.9,302.1
833.4,1721,12.4,6.6,68,7.36,109,10.6,300.8,322.9,302.2
832.9,1726,12.4,6.6,68,7.36,110,10.6,300.9,323.0,302.2
832.4,1730,12.4,6.6,68,7.39,111,10.7,300.9,323.1,302.3
832.0,1735,12.4,6.7,68,7.40,111,10.7,300.9,323.1,302.3
831.5,1740,12.4,6.7,68,7.40,112,10.7,301.0,323.1,302.3
831.0,1745,12.3,6.6,68,7.39,113,10.7,301.0,323.1,302.3
830.6,1749,12.3,6.6,68,7.39,114,10.7,301.0,323.1,302.3
830.1,1754,12.3,6.6,68,7.38,115,10.7,301.0,323.1,302.3
829.6,1759,12.2,6.5,68,7.36,115,10.7,301.0,323.1,302.4
829.2,1763,12.2,6.5,68,7.35,116,10.7,301.0,323.1,302.4
828.7,1768,12.2,6.5,68,7.35,116,10.7,301.1,323.1,302.4
828.2,1773,12.1,6.5,68,7.35,117,10.6,301.1,323.1,302.4
827.6,1779,12.1,6.5,69,7.36,117,10.6,301.1,323.2,302.4
827.1,1784,12.1,6.5,69,7.37,117,10.6,301.1,323.2,302.4
826.5,1790,12.0,6.5,69,7.36,117,10.6,301.1,323.2,302.4
826.0,1796,11.9,6.4,69,7.34,117,10.6,301.1,323.1,302.4
825.4,1802,11.9,6.4,69,7.34,117,10.6,301.1,323.1,302.4
824.8,1807,11.8,6.4,69,7.34,117,10.6,301.1,323.1,302.4
824.3,1813,11.8,6.4,70,7.35,116,10.6,301.1,323.1,302.4
823.8,1818,11.7,6.4,70,7.35,116,10.6,301.1,323.2,302.4
823.2,1824,11.7,6.4,70,7.35,116,10.6,301.1,323.2,302.5
822.7,1829,11.7,6.4,70,7.35,115,10.6,301.1,323.2,302.5
822.3,1833,11.6,6.4,70,7.33,114,10.6,301.1,323.1,302.5
821.8,1838,11.6,6.4,70,7.33,114,10.6,301.1,323.2,302.5
821.3,1843,11.5,6.4,70,7.34,113,10.7,301.2,323.2,302.5
820.9,1848,11.5,6.4,71,7.36,113,10.7,301.2,323.2,302.5
820.4,1853,11.5,6.4,71,7.36,112,10.7,301.2,323.3,302.5
819.9,1858,11.4,6.4,71,7.35,111,10.8,301.2,323.2,302.5
819.4,1863,11.4,6.4,71,7.36,111,10.9,301.2,323.3,302.5
818.8,1869,11.3,6.4,72,7.37,110,10.9,301.2,323.3,302.5
818.2,1875,11.3,6.4,72,7.38,110,11.0,301.2,323.3,302.5
817.6,1881,11.2,6.3,72,7.36,109,11.1,301.2,323.3,302.6
817.1,1887,11.2,6.2,71,7.32,109,11.1,301.2,323.2,302.6
816.5,1892,11.2,6.1,71,7.26,109,11.2,301.3,323.1,302.6
815.9,1898,11.2,6.0,70,7.20,109,11.3,301.4,323.1,302.7
815.4,1904,11.3,5.9,70,7.17,108,11.4,301.5,323.1,302.8
814.9,1909,11.3,5.9,70,7.17,108,11.4,301.5,323.1,302.9
814.3,1915,11.3,5.9,69,7.17,108,11.5,301.6,323.2,302.9
813.8,1920,11.3,5.8,69,7.15,108,11.5,301.7,323.2,303.0
813.3,1926,11.3,5.8,69,7.14,108,11.6,301.7,323.2,303.0
812.7,1931,11.2,5.8,69,7.16,108,11.6,301.8,323.3,303.1
812.2,1937,11.2,5.9,70,7.17,109,11.7,301.8,323.4,303.1
811.7,1942,11.2,5.9,70,7.19,109,11.7,301.8,323.5,303.1
811.1,1948,11.2,5.9,70,7.21,109,11.8,301.8,323.5,303.1
810.6,1953,11.1,5.9,70,7.21,109,11.8,301.8,323.5,303.1
810.1,1959,11.1,5.9,70,7.20,110,11.8,301.8,323.5,303.1
