PRES,HGHT,TEMP,DWPT,RELH,MIXR,DRCT,SPED,THTA,THTE,THTV
1016.9,31,26.5,21.3,73,15.87,75,5.1,298.2,344.5,301.1
1016.4,35,26.2,21.3,75,15.87,56,3.2,297.9,344.2,300.8
1015.8,40,25.9,21.1,75,15.67,50,3.1,297.7,343.3,300.5
1015.1,46,25.5,20.8,75,15.42,49,3.3,297.4,342.2,300.1
1014.3,53,25.1,20.3,75,14.98,49,3.6,297.0,340.5,299.7
1013.7,58,24.8,19.8,74,14.46,50,3.9,296.8,338.7,299.3
1013.4,61,24.5,19.5,74,14.18,51,4.2,296.5,337.6,299.0
1012.8,66,24.3,19.3,73,14.01,52,4.5,296.4,336.9,298.8
1012.2,71,24.2,19.1,74,13.91,52,4.8,296.3,336.6,298.8
1011.7,76,24.1,19.1,74,13.91,52,5.1,296.2,336.5,298.7
1011.1,81,24.0,19.1,74,13.92,53,5.4,296.2,336.6,298.7
1010.4,87,24.0,19.1,74,13.91,53,5.6,296.3,336.5,298.7
1009.8,92,23.9,19.1,74,13.88,54,5.9,296.3,336.4,298.7
1009.2,98,23.9,19.1,74,13.89,54,6.2,296.2,336.5,298.7
1008.6,103,23.8,19.1,75,13.89,54,6.4,296.2,336.4,298.7
1007.9,108,23.8,19.0,75,13.89,55,6.6,296.2,336.5,298.7
1007.3,114,23.7,19.1,75,13.92,55,6.9,296.3,336.6,298.7
1006.7,119,23.7,19.1,75,13.92,56,7.1,296.3,336.6,298.7
1006.1,124,23.6,19.0,75,13.86,56,7.2,296.3,336.4,298.7
1005.6,129,23.6,18.9,75,13.81,56,7.4,296.3,336.2,298.7
1005.0,134,23.5,18.9,75,13.80,56,7.6,296.3,336.2,298.7
1004.4,139,23.5,18.9,75,13.81,57,7.7,296.3,336.2,298.7
1003.8,145,23.4,18.9,76,13.85,57,7.8,296.3,336.4,298.7
1003.1,150,23.4,19.0,76,13.90,57,7.9,296.3,336.5,298.7
1002.5,156,23.3,19.0,77,13.93,57,8.0,296.3,336.6,298.7
1001.8,162,23.3,19.0,77,13.97,58,8.1,296.3,336.7,298.7
1001.2,167,23.2,19.1,78,14.02,58,8.2,296.3,336.8,298.7
1000.5,173,23.2,19.1,78,14.05,58,8.3,296.3,336.9,298.8
1000.0,178,23.1,19.1,78,14.08,58,8.3,296.2,337.0,298.8
999.8,179,23.1,19.1,78,14.09,58,8.3,296.2,337.0,298.7
999.2,185,23.0,19.1,79,14.10,58,8.3,296.2,337.1,298.7
998.6,190,23.0,19.1,79,14.05,58,8.4,296.2,336.9,298.7
998.0,195,22.9,18.9,78,13.90,58,8.4,296.2,336.5,298.7
997.4,200,22.9,18.6,77,13.67,58,8.4,296.3,335.8,298.7
996.8,205,22.9,18.6,77,13.65,58,8.4,296.3,335.8,298.7
996.3,210,22.8,18.6,77,13.68,58,8.4,296.3,335.9,298.7
995.8,215,22.8,18.7,78,13.72,58,8.3,296.3,336.0,298.7
995.3,219,22.7,18.7,78,13.75,58,8.3,296.3,336.1,298.7
994.7,224,22.7,18.7,78,13.73,58,8.3,296.3,336.0,298.7
994.2,228,22.6,18.6,78,13.70,58,8.3,296.3,335.9,298.7
993.7,233,22.6,18.6,78,13.72,58,8.2,296.3,336.0,298.7
993.2,237,22.5,18.7,79,13.75,58,8.2,296.3,336.1,298.7
992.7,242,22.5,18.7,79,13.78,58,8.2,296.3,336.1,298.7
992.1,246,22.4,18.7,79,13.78,58,8.1,296.3,336.2,298.7
991.6,251,22.4,18.7,79,13.77,58,8.1,296.3,336.1,298.7
991.1,256,22.4,18.6,79,13.75,58,8.1,296.3,336.1,298.7
990.6,260,22.3,18.6,79,13.72,58,8.0,296.3,336.0,298.7
990.0,265,22.3,18.6,80,13.71,58,8.0,296.3,336.0,298.7
989.5,270,22.2,18.5,79,13.65,58,8.0,296.3,335.8,298.7
989.0,275,22.2,18.4,79,13.57,58,7.9,296.3,335.6,298.7
988.4,279,22.1,18.5,80,13.64,58,7.9,296.3,335.8,298.7
987.9,284,22.1,18.6,81,13.77,58,7.9,296.3,336.1,298.7
987.3,289,22.0,18.7,81,13.85,58,7.9,296.3,336.4,298.7
986.7,294,22.0,18.7,81,13.86,58,7.8,296.3,336.4,298.7
986.2,299,21.9,18.6,81,13.82,58,7.8,296.3,336.3,298.7
985.6,304,21.9,18.5,81,13.71,58,7.8,296.3,336.0,298.7
985.1,309,21.9,18.3,80,13.53,58,7.8,296.3,335.5,298.7
984.6,313,21.8,18.1,79,13.39,58,7.8,296.3,335.1,298.7
984.0,318,21.8,18.1,79,13.38,58,7.8,296.3,335.0,298.7
983.5,323,21.7,18.1,80,13.41,58,7.8,296.3,335.1,298.7
982.9,328,21.7,18.1,80,13.42,58,7.8,296.3,335.1,298.7
982.3,333,21.6,18.1,80,13.41,58,7.7,296.3,335.1,298.7
981.8,338,21.6,18.1,80,13.39,58,7.7,296.3,335.1,298.7
981.2,343,21.5,18.0,80,13.37,58,7.7,296.3,335.0,298.7
980.6,348,21.5,18.0,81,13.36,58,7.7,296.3,335.0,298.7
980.1,353,21.4,18.0,81,13.34,59,7.7,296.3,334.9,298.7
979.5,358,21.4,17.9,81,13.31,59,7.7,296.3,334.9,298.7
979.0,363,21.4,17.9,81,13.29,59,7.7,296.3,334.8,298.7
978.4,368,21.3,17.9,81,13.30,59,7.7,296.3,334.8,298.7
977.9,373,21.3,17.9,81,13.31,59,7.7,296.3,334.9,298.7
977.3,377,21.2,17.9,81,13.30,59,7.7,296.3,334.8,298.7
976.8,382,21.2,17.9,81,13.30,59,7.7,296.3,334.8,298.7
976.2,387,21.1,17.9,82,13.32,59,7.7,296.3,334.9,298.7
975.7,392,21.1,17.9,82,13.34,59,7.7,296.3,334.9,298.7
975.2,397,21.0,17.9,82,13.33,60,7.7,296.3,334.9,298.7
974.6,401,21.0,17.8,82,13.28,60,7.6,296.3,334.8,298.7
974.1,406,21.0,17.7,82,13.21,60,7.6,296.3,334.6,298.7
973.6,411,20.9,17.6,82,13.15,60,7.6,296.3,334.4,298.7
973.1,415,20.9,17.6,82,13.13,60,7.6,296.3,334.4,298.7
972.6,420,20.8,17.6,82,13.14,60,7.5,296.3,334.4,298.7
972.1,424,20.8,17.6,82,13.14,60,7.5,296.3,334.4,298.7
971.6,428,20.8,17.6,82,13.13,60,7.5,296.3,334.4,298.7
971.2,432,20.7,17.5,82,13.10,61,7.4,296.3,334.3,298.7
970.7,436,20.7,17.5,82,13.11,61,7.4,296.3,334.3,298.7
970.3,440,20.7,17.6,83,13.16,61,7.4,296.3,334.5,298.7
969.8,444,20.6,17.6,83,13.20,61,7.4,296.3,334.6,298.7
969.4,448,20.6,17.6,83,13.21,61,7.3,296.3,334.6,298.7
968.9,452,20.5,17.6,83,13.22,61,7.3,296.3,334.6,298.7
968.5,456,20.5,17.6,84,13.20,61,7.3,296.3,334.6,298.7
968.1,460,20.5,17.5,83,13.14,61,7.2,296.4,334.4,298.7
967.7,464,20.4,17.5,83,13.12,60,7.2,296.4,334.4,298.7
967.2,467,20.4,17.6,84,13.20,60,7.2,296.4,334.6,298.7
966.8,471,20.4,17.6,84,13.23,60,7.2,296.4,334.7,298.7
966.4,475,20.3,17.5,84,13.17,60,7.2,296.3,334.5,298.7
965.9,479,20.3,17.4,84,13.06,60,7.1,296.4,334.2,298.7
965.5,483,20.3,17.4,83,13.03,60,7.1,296.4,334.1,298.7
965.0,488,20.2,17.4,84,13.09,60,7.1,296.4,334.3,298.7
964.5,492,20.2,17.6,85,13.24,60,7.1,296.4,334.7,298.7
964.0,496,20.1,17.7,86,13.33,60,7.1,296.3,334.9,298.7
963.5,501,20.1,17.7,86,13.33,60,7.1,296.3,334.9,298.7
963.0,505,20.0,17.6,86,13.29,60,7.1,296.3,334.8,298.7
962.5,510,20.0,17.6,86,13.27,59,7.1,296.3,334.8,298.7
962.0,514,19.9,17.6,86,13.24,59,7.1,296.3,334.7,298.7
961.5,519,19.9,17.5,86,13.21,60,7.1,296.3,334.6,298.7
961.1,523,19.8,17.5,86,13.20,60,7.1,296.3,334.6,298.7
960.6,527,19.8,17.5,86,13.19,60,7.1,296.3,334.5,298.7
960.1,531,19.8,17.4,86,13.16,60,7.1,296.3,334.5,298.7
959.6,536,19.7,17.4,87,13.18,60,7.1,296.4,334.5,298.7
959.1,540,19.7,17.5,87,13.22,60,7.1,296.4,334.7,298.7
958.6,545,19.7,17.5,87,13.23,61,7.1,296.4,334.7,298.7
958.1,549,19.6,17.5,87,13.22,61,7.1,296.4,334.6,298.7
957.6,554,19.6,17.4,87,13.19,62,7.1,296.4,334.6,298.7
957.1,559,19.5,17.4,88,13.18,62,7.1,296.3,334.5,298.7
956.5,564,19.5,17.4,88,13.19,62,7.1,296.4,334.6,298.7
956.0,568,19.4,17.4,88,13.19,63,7.1,296.4,334.6,298.7
955.5,573,19.4,17.4,88,13.18,63,7.1,296.4,334.5,298.7
955.0,577,19.3,17.3,88,13.16,64,7.1,296.4,334.5,298.7
954.5,582,19.3,17.3,88,13.11,64,7.1,296.4,334.3,298.7
954.0,586,19.3,17.2,88,13.05,65,7.1,296.4,334.2,298.7
953.6,591,19.2,17.2,88,13.03,65,7.1,296.4,334.1,298.7
953.1,595,19.2,17.2,88,13.03,66,7.1,296.4,334.1,298.7
952.6,599,19.2,17.2,88,13.06,66,7.1,296.4,334.2,298.7
952.1,604,19.1,17.2,89,13.07,67,7.1,296.4,334.3,298.7
951.7,608,19.1,17.2,89,13.09,67,7.1,296.4,334.3,298.7
951.2,612,19.0,17.2,89,13.09,67,7.1,296.4,334.3,298.7
950.8,616,19.0,17.2,89,13.09,68,7.2,296.4,334.3,298.7
950.3,620,19.0,17.2,89,13.06,68,7.2,296.4,334.2,298.7
949.9,624,18.9,17.1,89,13.03,68,7.2,296.4,334.1,298.7
949.4,628,18.9,17.0,89,12.94,68,7.3,296.4,333.9,298.7
949.0,632,18.9,16.9,88,12.86,69,7.3,296.4,333.7,298.7
948.5,636,18.8,16.8,88,12.82,69,7.4,296.4,333.6,298.7
948.1,640,18.8,16.8,88,12.83,69,7.4,296.4,333.6,298.7
947.6,645,18.8,16.9,89,12.85,69,7.5,296.4,333.7,298.7
947.1,649,18.7,16.9,89,12.86,69,7.6,296.4,333.7,298.7
946.6,654,18.7,16.9,89,12.88,69,7.6,296.4,333.8,298.7
946.1,658,18.6,16.9,90,12.91,69,7.7,296.4,333.9,298.7
945.6,663,18.6,17.0,90,12.96,69,7.8,296.5,334.0,298.8
945.0,668,18.5,17.0,91,13.04,69,7.8,296.4,334.2,298.8
944.4,673,18.5,17.1,92,13.08,69,7.9,296.4,334.3,298.8
943.8,679,18.4,17.0,92,13.05,69,8.0,296.4,334.3,298.8
943.2,685,18.4,17.0,92,13.00,69,8.1,296.4,334.1,298.7
942.6,690,18.3,16.9,92,12.99,69,8.1,296.4,334.1,298.7
941.9,696,18.3,16.9,92,13.00,69,8.2,296.4,334.1,298.7
941.3,702,18.2,16.9,92,13.00,69,8.3,296.4,334.1,298.7
940.7,707,18.2,16.9,92,12.99,69,8.3,296.4,334.1,298.7
940.1,713,18.1,16.9,92,12.95,69,8.4,296.4,334.0,298.8
939.6,718,18.1,16.8,92,12.94,69,8.4,296.5,333.9,298.8
939.1,722,18.0,16.8,93,12.93,69,8.5,296.5,334.0,298.8
938.6,727,18.0,16.8,92,12.90,69,8.5,296.5,333.9,298.8
938.1,731,18.0,16.7,92,12.86,69,8.6,296.5,333.8,298.8
937.6,736,18.0,16.6,92,12.81,69,8.6,296.5,333.7,298.8
937.2,740,18.0,16.6,92,12.77,69,8.6,296.5,333.6,298.8
936.7,744,17.9,16.5,92,12.74,69,8.6,296.6,333.5,298.8
936.3,748,17.9,16.5,92,12.75,69,8.7,296.6,333.6,298.8
935.8,752,17.9,16.5,92,12.76,69,8.7,296.6,333.6,298.9
935.4,756,17.8,16.6,92,12.77,69,8.7,296.6,333.6,298.9
934.9,761,17.8,16.6,93,12.78,70,8.7,296.6,333.7,298.9
934.4,765,17.8,16.6,93,12.78,70,8.7,296.6,333.7,298.9
933.9,770,17.7,16.5,93,12.77,70,8.7,296.6,333.6,298.9
933.3,775,17.7,16.4,92,12.68,70,8.7,296.6,333.4,298.9
932.8,780,17.6,16.2,91,12.53,70,8.7,296.6,333.0,298.9
932.2,785,17.7,16.0,90,12.34,71,8.7,296.7,332.5,298.9
931.7,790,17.7,15.8,89,12.23,71,8.7,296.7,332.3,298.9
931.1,795,17.6,15.7,88,12.12,71,8.7,296.8,332.0,298.9
930.6,800,17.6,15.5,88,12.02,71,8.7,296.8,331.7,298.9
930.0,805,17.6,15.5,87,11.97,72,8.7,296.8,331.6,299.0
929.5,810,17.6,15.4,87,11.93,72,8.7,296.9,331.6,299.0
928.9,815,17.5,15.3,87,11.86,72,8.6,296.9,331.4,299.0
928.4,820,17.5,15.3,87,11.82,73,8.6,296.9,331.3,299.0
927.9,825,17.5,15.2,86,11.78,73,8.6,296.9,331.2,299.0
927.4,830,17.5,15.1,86,11.71,74,8.6,296.9,331.0,299.0
926.9,835,17.4,15.1,86,11.69,74,8.6,297.0,331.0,299.0
926.4,839,17.4,15.1,86,11.71,74,8.7,297.0,331.0,299.1
925.9,844,17.4,15.0,86,11.68,75,8.7,297.0,331.0,299.1
925.4,848,17.3,15.0,86,11.64,75,8.7,297.0,330.9,299.1
925.0,852,17.3,14.9,86,11.61,75,8.7,297.0,330.8,299.1
924.9,853,17.3,14.9,86,11.61,75,8.7,297.0,330.8,299.1
924.4,857,17.3,14.9,86,11.59,76,8.7,297.0,330.8,299.1
923.9,862,17.3,14.9,86,11.59,76,8.8,297.0,330.8,299.1
923.4,867,17.2,14.8,86,11.54,76,8.8,297.0,330.7,299.1
922.8,872,17.2,14.6,85,11.43,76,8.8,297.1,330.3,299.1
922.3,877,17.2,14.4,84,11.23,77,8.9,297.1,329.8,299.1
921.7,882,17.2,14.0,81,10.93,77,8.9,297.2,329.1,299.1
921.2,887,17.2,13.7,80,10.78,77,9.0,297.3,328.7,299.2
920.6,892,17.2,13.7,80,10.78,77,9.0,297.3,328.8,299.2
920.1,897,17.2,13.7,80,10.79,77,9.1,297.3,328.9,299.3
919.5,902,17.2,13.7,80,10.79,77,9.1,297.3,328.9,299.3
919.0,907,17.1,13.8,81,10.83,77,9.2,297.4,329.0,299.3
918.4,913,17.1,13.8,81,10.89,77,9.2,297.3,329.1,299.3
917.9,918,17.0,13.9,82,10.94,77,9.3,297.3,329.3,299.3
917.3,923,16.9,13.9,83,10.97,77,9.4,297.3,329.3,299.3
916.8,928,16.9,13.9,83,10.95,77,9.4,297.3,329.2,299.2
916.2,933,16.8,13.8,82,10.88,77,9.5,297.3,329.0,299.2
915.7,938,16.8,13.6,82,10.77,77,9.6,297.3,328.7,299.2
915.2,943,16.8,13.3,80,10.58,77,9.6,297.3,328.2,299.2
914.7,948,16.8,13.1,79,10.39,77,9.7,297.4,327.8,299.3
914.1,953,16.8,12.9,78,10.25,77,9.8,297.5,327.5,299.3
913.6,958,16.8,12.8,77,10.21,77,9.8,297.5,327.4,299.3
913.1,963,16.8,12.8,77,10.21,77,9.9,297.5,327.4,299.4
912.5,968,16.7,12.8,78,10.21,77,9.9,297.5,327.4,299.4
912.0,973,16.7,12.8,78,10.23,77,10.0,297.5,327.5,299.4
911.5,978,16.6,12.8,78,10.25,76,10.0,297.5,327.5,299.4
910.9,983,16.6,12.7,78,10.20,76,10.1,297.6,327.4,299.4
910.4,988,16.5,12.6,77,10.09,76,10.1,297.6,327.1,299.4
909.8,993,16.5,12.2,76,9.85,76,10.2,297.6,326.4,299.4
909.3,998,16.5,11.6,72,9.46,76,10.2,297.7,325.4,299.4
908.8,1003,16.6,11.0,69,9.08,76,10.2,297.7,324.4,299.4
908.3,1008,16.6,10.4,67,8.76,75,10.2,297.8,323.6,299.4
907.7,1013,16.6,10.4,67,8.75,75,10.3,297.9,323.7,299.5
907.2,1018,16.6,11.0,70,9.12,75,10.3,297.9,324.7,299.5
906.6,1023,16.5,11.8,74,9.64,75,10.3,297.8,326.1,299.6
906.1,1028,16.3,12.0,75,9.77,75,10.3,297.8,326.4,299.5
905.5,1034,16.3,11.6,74,9.52,74,10.3,297.8,325.7,299.5
905.0,1039,16.3,11.2,72,9.25,74,10.3,297.8,325.0,299.5
904.4,1044,16.3,10.9,71,9.11,74,10.3,297.9,324.7,299.5
903.9,1049,16.3,10.8,70,9.03,74,10.3,297.9,324.5,299.5
903.4,1054,16.3,10.8,70,9.02,73,10.3,298.0,324.5,299.6
902.9,1059,16.3,10.8,70,9.06,73,10.3,298.0,324.6,299.6
902.3,1064,16.2,10.9,71,9.14,73,10.3,298.0,324.9,299.6
901.8,1068,16.2,11.0,71,9.16,73,10.3,298.0,324.9,299.6
901.3,1073,16.1,10.8,71,9.08,72,10.3,298.0,324.7,299.6
900.8,1078,16.1,10.6,70,8.94,72,10.3,298.0,324.4,299.6
900.3,1083,16.1,10.4,69,8.80,72,10.3,298.1,324.0,299.7
899.8,1087,16.2,10.4,69,8.86,72,10.3,298.2,324.3,299.8
899.3,1092,16.2,10.7,70,9.05,71,10.3,298.2,324.9,299.8
898.8,1097,16.1,10.9,71,9.13,71,10.3,298.2,325.1,299.9
898.4,1101,16.1,10.9,71,9.15,71,10.3,298.3,325.2,299.9
897.9,1106,16.1,11.0,72,9.19,70,10.3,298.3,325.3,299.9
897.4,1110,16.0,11.1,72,9.26,70,10.3,298.3,325.5,299.9
896.9,1115,16.0,11.1,73,9.29,70,10.4,298.3,325.6,299.9
896.4,1119,15.9,11.1,73,9.28,69,10.4,298.3,325.6,299.9
896.0,1124,15.9,11.0,73,9.26,69,10.4,298.3,325.5,299.9
895.5,1128,15.9,11.0,73,9.24,69,10.4,298.3,325.5,299.9
895.1,1132,15.8,11.0,73,9.23,69,10.4,298.3,325.4,299.9
894.6,1137,15.8,11.0,73,9.25,68,10.5,298.3,325.5,299.9
894.2,1141,15.8,11.1,74,9.29,68,10.5,298.3,325.6,299.9
893.7,1145,15.7,11.1,74,9.35,68,10.5,298.3,325.8,300.0
893.3,1149,15.7,11.1,74,9.31,68,10.5,298.3,325.7,300.0
892.9,1153,15.7,10.9,73,9.18,67,10.6,298.3,325.4,300.0
892.4,1158,15.7,10.7,72,9.07,67,10.6,298.4,325.1,300.0
892.0,1162,15.6,10.5,72,9.00,67,10.6,298.4,324.9,300.0
891.5,1166,15.6,10.4,71,8.91,67,10.6,298.4,324.7,300.0
891.0,1171,15.6,10.2,70,8.82,66,10.6,298.4,324.4,300.0
890.6,1175,15.6,10.1,70,8.76,66,10.7,298.4,324.3,300.0
890.1,1179,15.5,10.1,70,8.77,66,10.7,298.5,324.3,300.0
889.7,1184,15.5,10.2,71,8.84,66,10.7,298.5,324.5,300.0
889.2,1188,15.5,10.4,72,8.95,66,10.7,298.5,324.9,300.1
888.8,1192,15.4,10.6,73,9.06,66,10.6,298.5,325.2,300.1
888.4,1196,15.4,10.7,74,9.16,66,10.6,298.5,325.5,300.1
887.9,1201,15.4,10.9,74,9.25,66,10.6,298.5,325.7,300.2
887.5,1205,15.4,11.0,75,9.32,66,10.6,298.5,326.0,300.2
887.1,1209,15.3,11.1,76,9.42,66,10.6,298.5,326.3,300.2
886.6,1213,15.3,11.3,77,9.52,66,10.5,298.6,326.6,300.3
886.2,1217,15.3,11.3,77,9.54,66,10.5,298.6,326.7,300.3
885.8,1221,15.3,11.3,77,9.53,66,10.5,298.6,326.7,300.3
885.3,1225,15.2,11.3,77,9.55,66,10.4,298.6,326.7,300.3
884.9,1230,15.2,11.3,78,9.58,66,10.4,298.6,326.8,300.3
884.4,1234,15.2,11.4,78,9.65,67,10.3,298.6,327.0,300.3
883.9,1239,15.1,11.5,79,9.70,67,10.2,298.6,327.2,300.3
883.4,1244,15.1,11.6,80,9.75,67,10.2,298.6,327.3,300.4
882.9,1249,15.0,11.6,80,9.77,67,10.1,298.6,327.4,300.4
882.4,1254,15.0,11.6,80,9.75,67,10.0,298.6,327.3,300.4
881.9,1258,15.0,11.6,80,9.75,68,10.0,298.7,327.3,300.4
881.4,1263,14.9,11.6,80,9.76,68,9.9,298.7,327.4,300.4
881.0,1267,14.9,11.6,81,9.78,68,9.8,298.7,327.4,300.4
880.5,1272,14.9,11.6,81,9.77,68,9.8,298.7,327.4,300.4
880.1,1276,14.8,11.6,81,9.77,68,9.7,298.7,327.4,300.4
879.7,1280,14.8,11.5,81,9.76,68,9.6,298.7,327.4,300.4
879.2,1284,14.8,11.5,81,9.77,68,9.5,298.7,327.5,300.5
878.8,1288,14.7,11.6,82,9.81,68,9.4,298.7,327.6,300.5
878.4,1292,14.7,11.7,82,9.88,68,9.4,298.7,327.8,300.5
877.9,1297,14.7,11.8,83,9.93,68,9.3,298.7,328.0,300.5
877.5,1301,14.6,11.8,83,9.95,68,9.2,298.7,328.0,300.5
877.0,1306,14.6,11.8,83,9.95,68,9.2,298.7,328.0,300.5
876.5,1310,14.6,11.8,84,9.98,68,9.1,298.8,328.1,300.6
876.1,1314,14.5,11.8,84,10.00,68,9.0,298.8,328.2,300.6
875.6,1319,14.5,11.8,84,10.00,68,8.9,298.8,328.2,300.6
875.2,1323,14.5,11.8,84,9.98,68,8.9,298.8,328.2,300.6
874.7,1328,14.4,11.8,84,9.97,68,8.8,298.8,328.1,300.6
874.2,1332,14.4,11.8,84,9.99,67,8.8,298.8,328.2,300.6
873.8,1337,14.3,11.8,85,10.00,67,8.7,298.8,328.2,300.6
873.3,1341,14.3,11.8,85,10.00,67,8.7,298.8,328.2,300.6
872.9,1346,14.3,11.8,85,9.99,67,8.6,298.8,328.2,300.6
872.4,1350,14.2,11.8,85,10.00,66,8.6,298.8,328.3,300.6
872.0,1354,14.2,11.8,85,10.01,66,8.6,298.8,328.3,300.6
871.5,1358,14.2,11.8,86,10.05,66,8.5,298.8,328.4,300.6
871.1,1363,14.1,11.9,86,10.11,66,8.5,298.8,328.6,300.7
870.7,1367,14.1,11.9,86,10.10,65,8.5,298.9,328.6,300.7
870.2,1372,14.1,11.7,86,10.01,65,8.5,298.9,328.3,300.7
869.7,1376,14.1,11.5,84,9.82,65,8.5,298.9,327.9,300.7
869.2,1381,14.2,11.1,81,9.57,65,8.5,299.1,327.3,300.8
868.7,1386,14.3,10.8,80,9.41,64,8.5,299.2,327.0,300.9
868.2,1390,14.3,10.8,79,9.38,64,8.5,299.3,327.0,301.0
867.8,1395,14.3,10.8,79,9.39,64,8.5,299.4,327.1,301.0
867.3,1400,14.3,10.8,79,9.39,64,8.5,299.4,327.1,301.1
866.8,1405,14.3,10.8,79,9.40,63,8.5,299.4,327.2,301.1
866.3,1409,14.2,10.8,80,9.41,63,8.5,299.4,327.2,301.1
865.9,1414,14.2,10.8,80,9.41,63,8.5,299.4,327.2,301.1
865.4,1418,14.1,10.7,80,9.41,63,8.5,299.4,327.2,301.1
864.9,1423,14.1,10.7,80,9.41,63,8.5,299.4,327.2,301.1
864.4,1428,14.1,10.8,80,9.42,63,8.5,299.4,327.3,301.1
864.0,1432,14.0,10.8,81,9.43,63,8.5,299.4,327.3,301.1
863.5,1437,14.0,10.7,81,9.43,63,8.5,299.4,327.3,301.1
863.0,1442,13.9,10.7,81,9.41,63,8.5,299.4,327.3,301.1
862.5,1447,13.9,10.7,81,9.42,63,8.5,299.4,327.3,301.1
862.0,1452,13.9,10.7,81,9.44,63,8.5,299.4,327.3,301.1
861.5,1457,13.8,10.8,82,9.47,63,8.5,299.5,327.5,301.2
861.0,1462,13.9,10.7,81,9.45,63,8.4,299.6,327.5,301.3
860.5,1467,13.9,10.6,81,9.38,63,8.4,299.6,327.4,301.3
860.0,1472,13.9,10.5,80,9.30,63,8.4,299.7,327.2,301.4
859.5,1476,13.9,10.4,79,9.23,63,8.3,299.8,327.1,301.4
859.0,1481,14.0,10.4,79,9.23,63,8.3,299.9,327.2,301.5
858.5,1486,14.0,10.7,81,9.47,64,8.2,299.9,328.0,301.7
857.9,1492,14.1,11.1,83,9.74,64,8.2,300.1,328.9,301.8
857.4,1497,14.1,11.1,82,9.72,64,8.1,300.2,329.0,301.9
856.8,1503,14.2,10.9,81,9.59,65,8.1,300.3,328.7,302.0
856.3,1508,14.2,10.8,80,9.53,65,8.1,300.4,328.7,302.1
855.7,1514,14.2,10.8,80,9.53,65,8.0,300.4,328.7,302.2
855.2,1519,14.2,10.8,80,9.53,66,8.0,300.5,328.7,302.2
854.6,1524,14.1,10.8,80,9.54,66,7.9,300.5,328.8,302.2
854.1,1529,14.1,10.8,80,9.55,66,7.9,300.5,328.8,302.2
853.7,1534,14.0,10.8,81,9.56,67,7.9,300.5,328.8,302.2
853.2,1538,14.0,10.8,81,9.56,67,7.9,300.5,328.8,302.2
852.7,1543,13.9,10.8,81,9.57,67,7.8,300.5,328.9,302.2
852.2,1548,13.9,10.8,82,9.61,68,7.8,300.5,329.0,302.2
851.8,1553,13.9,10.9,82,9.66,68,7.8,300.5,329.1,302.2
851.3,1557,13.8,11.1,84,9.77,68,7.9,300.5,329.4,302.2
850.8,1562,13.8,11.2,85,9.87,69,7.9,300.5,329.7,302.2
850.3,1567,13.7,11.2,85,9.90,69,7.9,300.5,329.8,302.3
850.0,1570,13.7,11.3,85,9.91,69,7.9,300.5,329.9,302.3
849.8,1572,13.7,11.3,85,9.92,69,8.0,300.5,329.9,302.3
849.4,1576,13.7,11.2,85,9.92,69,8.0,300.5,329.9,302.3
848.9,1581,13.7,11.1,85,9.84,69,8.1,300.6,329.8,302.4
848.5,1585,13.7,10.9,83,9.69,69,8.1,300.6,329.4,302.4
848.0,1590,13.8,10.6,81,9.49,69,8.2,300.8,329.0,302.5
847.6,1594,13.9,10.3,79,9.32,69,8.3,300.9,328.6,302.6
847.1,1599,13.9,10.4,79,9.39,69,8.4,301.0,329.0,302.7
846.6,1604,14.0,10.6,80,9.53,69,8.5,301.1,329.5,302.8
846.1,1608,13.9,10.8,81,9.63,69,8.6,301.1,329.8,302.9
845.7,1613,13.9,10.8,82,9.69,69,8.7,301.1,329.9,302.9
845.2,1618,13.8,10.8,82,9.69,69,8.8,301.1,329.9,302.9
844.7,1623,13.8,10.8,82,9.66,69,8.9,301.1,329.9,302.9
844.2,1628,13.8,10.7,82,9.64,69,9.0,301.2,329.8,302.9
843.7,1633,13.8,10.7,82,9.61,69,9.1,301.2,329.8,302.9
843.2,1638,13.7,10.7,82,9.60,69,9.2,301.2,329.8,302.9
842.8,1642,13.7,10.6,82,9.60,68,9.3,301.2,329.8,303.0
842.3,1647,13.7,10.6,82,9.59,68,9.3,301.2,329.8,303.0
841.9,1651,13.6,10.6,82,9.58,68,9.4,301.2,329.7,303.0
841.4,1656,13.6,10.5,82,9.54,68,9.5,301.3,329.7,303.0
841.0,1660,13.6,10.4,81,9.49,68,9.6,301.3,329.5,303.0
840.5,1665,13.6,10.4,81,9.48,68,9.7,301.3,329.5,303.0
840.1,1669,13.5,10.4,81,9.47,68,9.7,301.3,329.5,303.0
839.6,1674,13.5,10.4,81,9.47,68,9.8,301.3,329.5,303.0
839.2,1678,13.5,10.4,82,9.47,68,9.9,301.3,329.6,303.1
838.7,1683,13.4,10.4,82,9.48,68,9.9,301.4,329.6,303.1
838.2,1688,13.4,10.3,82,9.46,68,10.0,301.3,329.5,303.1
837.7,1693,13.3,10.2,81,9.39,68,10.0,301.4,329.3,303.1
837.2,1698,13.3,10.0,80,9.25,68,10.1,301.4,329.0,303.1
836.7,1703,13.4,9.7,78,9.07,68,10.1,301.5,328.6,303.1
836.2,1708,13.4,9.6,78,9.01,68,10.1,301.5,328.5,303.2
835.7,1713,13.4,9.6,78,9.04,68,10.2,301.6,328.6,303.2
835.2,1718,13.3,9.6,78,9.03,68,10.2,301.6,328.5,303.2
834.8,1723,13.3,9.5,78,8.97,68,10.2,301.6,328.4,303.2
834.3,1727,13.3,9.5,78,8.94,68,10.2,301.6,328.4,303.3
833.8,1732,13.2,9.4,78,8.94,69,10.2,301.7,328.4,303.3
833.4,1737,13.2,9.4,78,8.94,69,10.2,301.6,328.4,303.3
832.9,1741,13.2,9.4,78,8.94,69,10.2,301.7,328.4,303.3
