PRES,HGHT,TEMP,DWPT,RELH,MIXR,DRCT,SPED,THTA,THTE,THTV
1014.0,31,23.7,22.2,91,16.80,66,1.6,295.7,344.1,298.6
1013.6,34,24.1,22.4,90,17.02,69,1.7,296.1,345.3,299.1
1012.9,40,24.2,22.3,90,17.02,69,1.8,296.2,345.4,299.2
1012.2,46,24.3,22.3,89,16.95,69,2.0,296.4,345.4,299.4
1011.8,50,24.3,22.1,87,16.80,69,2.2,296.5,345.1,299.5
1011.2,55,24.4,22.0,87,16.67,69,2.4,296.6,344.9,299.5
1010.4,61,24.4,21.9,86,16.59,68,2.7,296.6,344.7,299.6
1009.8,67,24.3,21.9,86,16.57,68,2.9,296.6,344.6,299.6
1009.2,72,24.3,21.9,86,16.58,68,3.1,296.6,344.7,299.6
1008.5,78,24.2,21.9,87,16.59,68,3.4,296.7,344.7,299.6
1007.9,84,24.2,21.8,87,16.57,68,3.6,296.7,344.7,299.6
1007.2,89,24.2,21.8,86,16.50,68,3.9,296.7,344.5,299.7
1006.6,95,24.2,21.7,86,16.49,67,4.1,296.8,344.6,299.7
1006.0,100,24.2,21.8,86,16.53,67,4.4,296.8,344.8,299.8
1005.4,105,24.1,21.8,87,16.56,67,4.6,296.8,344.8,299.7
1004.8,110,24.0,21.7,87,16.52,68,4.9,296.7,344.6,299.7
1004.3,115,24.0,21.6,87,16.40,68,5.1,296.7,344.3,299.6
1003.8,119,24.0,21.5,86,16.29,68,5.4,296.8,344.0,299.7
1003.4,123,24.1,21.4,85,16.22,68,5.6,296.9,344.0,299.8
1003.0,127,24.1,21.4,85,16.21,68,5.8,297.0,344.0,299.9
1002.5,130,24.1,21.4,85,16.26,69,6.0,297.0,344.2,299.9
1002.1,134,24.1,21.5,86,16.34,69,6.2,297.0,344.4,299.9
1001.7,138,24.0,21.6,86,16.43,70,6.4,297.0,344.7,299.9
1001.2,142,24.0,21.6,87,16.45,70,6.6,297.0,344.7,299.9
1000.8,146,23.9,21.6,87,16.47,71,6.7,297.0,344.8,299.9
1000.3,150,23.9,21.6,87,16.46,71,6.9,297.0,344.7,299.9
1000.0,153,23.9,21.6,87,16.43,71,6.9,297.0,344.7,299.9
999.8,154,23.9,21.6,87,16.43,72,7.0,297.0,344.7,299.9
999.3,159,23.8,21.5,87,16.34,72,7.1,297.0,344.5,299.9
998.8,163,23.9,21.4,86,16.31,73,7.1,297.1,344.4,300.0
998.3,168,23.9,21.4,86,16.31,74,7.2,297.2,344.5,300.1
997.7,173,23.9,21.4,86,16.30,74,7.2,297.2,344.6,300.1
997.2,177,23.9,21.4,86,16.25,75,7.2,297.2,344.4,300.1
996.7,182,23.8,21.3,86,16.18,76,7.3,297.2,344.2,300.1
996.2,187,23.8,21.2,85,16.10,76,7.2,297.3,344.0,300.1
995.6,191,23.8,21.1,85,16.02,77,7.2,297.3,343.8,300.1
995.1,196,23.7,21.0,85,15.95,78,7.2,297.3,343.7,300.1
994.6,200,23.7,21.0,85,15.92,78,7.2,297.3,343.6,300.2
994.1,204,23.7,21.0,85,15.93,79,7.1,297.4,343.6,300.2
993.6,209,23.7,21.0,85,15.94,79,7.1,297.4,343.7,300.2
993.1,213,23.6,21.0,85,15.94,80,7.0,297.4,343.7,300.2
992.6,218,23.6,21.0,85,15.94,81,6.9,297.4,343.7,300.2
992.1,223,23.5,21.0,86,15.95,81,6.9,297.4,343.7,300.2
991.5,227,23.5,21.0,86,15.96,81,6.8,297.4,343.8,300.2
991.0,232,23.4,20.9,86,15.92,82,6.8,297.4,343.6,300.2
990.4,237,23.4,20.8,86,15.85,82,6.8,297.4,343.4,300.2
989.9,242,23.4,20.8,85,15.79,83,6.7,297.4,343.3,300.2
989.3,247,23.4,20.8,85,15.79,83,6.7,297.4,343.3,300.2
988.8,252,23.3,20.8,86,15.81,83,6.7,297.4,343.4,300.2
988.3,256,23.3,20.8,86,15.81,84,6.7,297.4,343.3,300.2
987.7,261,23.2,20.8,86,15.81,84,6.7,297.4,343.4,300.2
987.2,266,23.2,20.7,86,15.79,84,6.7,297.4,343.3,300.2
986.6,271,23.2,20.7,86,15.76,84,6.8,297.4,343.3,300.3
986.1,275,23.1,20.6,86,15.72,84,6.8,297.4,343.1,300.2
985.6,280,23.1,20.6,86,15.69,84,6.8,297.4,343.0,300.2
985.1,285,23.0,20.6,86,15.70,84,6.9,297.4,343.1,300.2
984.6,289,23.0,20.6,86,15.72,84,7.0,297.5,343.2,300.3
984.1,293,23.0,20.6,87,15.73,84,7.0,297.5,343.2,300.3
983.6,298,22.9,20.6,87,15.72,84,7.1,297.5,343.2,300.3
983.2,302,22.9,20.6,87,15.72,84,7.2,297.5,343.2,300.3
982.7,305,22.9,20.6,87,15.73,84,7.2,297.5,343.2,300.3
982.3,309,22.8,20.6,87,15.72,84,7.3,297.5,343.2,300.3
981.9,313,22.8,20.6,87,15.73,84,7.4,297.5,343.2,300.3
981.4,317,22.8,20.6,88,15.75,83,7.4,297.5,343.3,300.3
981.0,321,22.7,20.6,88,15.76,83,7.5,297.5,343.3,300.3
980.6,325,22.7,20.6,88,15.76,83,7.5,297.5,343.3,300.3
980.1,329,22.6,20.6,88,15.75,82,7.5,297.5,343.3,300.3
979.7,333,22.6,20.6,88,15.76,82,7.5,297.5,343.3,300.3
979.2,336,22.6,20.6,88,15.76,82,7.5,297.5,343.3,300.3
978.8,340,22.6,20.6,89,15.76,81,7.5,297.5,343.3,300.3
978.4,344,22.5,20.6,89,15.76,80,7.5,297.5,343.3,300.3
977.9,348,22.5,20.5,89,15.75,80,7.4,297.5,343.3,300.3
977.5,352,22.5,20.5,89,15.71,79,7.4,297.5,343.2,300.3
977.0,356,22.4,20.5,89,15.70,78,7.3,297.6,343.2,300.4
976.5,361,22.4,20.5,89,15.71,77,7.2,297.6,343.3,300.4
976.0,365,22.4,20.5,89,15.72,76,7.1,297.6,343.3,300.4
975.5,370,22.3,20.5,89,15.72,76,7.0,297.6,343.3,300.4
975.0,374,22.3,20.4,89,15.71,74,6.9,297.6,343.2,300.4
974.5,379,22.2,20.4,89,15.66,73,6.8,297.6,343.1,300.4
973.9,384,22.2,20.3,89,15.60,72,6.7,297.6,343.0,300.4
973.4,389,22.2,20.3,89,15.56,71,6.6,297.6,342.9,300.4
972.8,394,22.1,20.2,89,15.52,70,6.5,297.6,342.8,300.4
972.2,399,22.1,20.2,89,15.48,69,6.4,297.6,342.7,300.4
971.7,404,22.0,20.2,89,15.48,67,6.3,297.6,342.7,300.4
971.1,410,22.0,20.2,89,15.49,66,6.2,297.6,342.7,300.4
970.5,415,21.9,20.2,90,15.51,65,6.1,297.6,342.8,300.4
969.9,420,21.9,20.2,90,15.55,64,6.0,297.6,342.9,300.4
969.3,425,21.9,20.3,91,15.61,62,5.9,297.6,343.1,300.4
968.7,431,21.8,20.3,91,15.68,61,5.8,297.6,343.2,300.4
968.1,436,21.7,20.3,92,15.72,60,5.8,297.6,343.4,300.4
967.6,441,21.7,20.4,92,15.75,59,5.7,297.6,343.5,300.4
967.0,446,21.7,20.4,92,15.75,58,5.6,297.6,343.5,300.4
966.4,451,21.6,20.3,92,15.74,57,5.6,297.6,343.4,300.4
965.9,456,21.6,20.3,93,15.72,56,5.5,297.6,343.4,300.4
965.4,461,21.5,20.3,92,15.69,55,5.5,297.7,343.3,300.5
964.8,466,21.5,20.2,92,15.67,54,5.4,297.7,343.3,300.5
964.2,471,21.5,20.2,93,15.67,53,5.4,297.7,343.3,300.5
963.6,476,21.4,20.2,93,15.67,53,5.4,297.7,343.3,300.5
963.0,482,21.4,20.2,93,15.65,52,5.4,297.7,343.3,300.5
962.4,488,21.3,20.1,93,15.60,51,5.4,297.7,343.1,300.5
961.8,493,21.3,20.1,93,15.54,50,5.4,297.7,342.9,300.5
961.2,498,21.2,20.0,93,15.51,49,5.4,297.7,342.8,300.5
960.6,504,21.2,20.0,93,15.53,49,5.4,297.7,342.9,300.5
960.1,509,21.1,20.0,94,15.55,48,5.4,297.7,342.9,300.5
959.5,514,21.1,20.0,94,15.56,47,5.5,297.7,343.0,300.5
959.0,518,21.0,20.0,94,15.56,46,5.5,297.7,343.0,300.5
958.5,523,21.0,20.0,94,15.57,46,5.6,297.7,343.0,300.5
958.0,527,20.9,20.0,95,15.59,45,5.6,297.7,343.1,300.5
957.5,532,20.9,20.1,95,15.63,44,5.7,297.7,343.2,300.5
957.1,536,20.9,20.1,95,15.62,44,5.8,297.7,343.2,300.5
956.6,540,20.8,20.0,95,15.56,43,5.8,297.7,343.0,300.5
956.1,545,20.8,19.9,94,15.49,42,5.9,297.8,342.9,300.5
955.7,549,20.8,19.8,94,15.43,42,6.0,297.8,342.7,300.6
955.2,553,20.8,19.8,94,15.39,41,6.1,297.8,342.6,300.6
954.7,557,20.8,19.8,94,15.37,41,6.2,297.8,342.6,300.6
954.2,562,20.7,19.7,94,15.36,40,6.3,297.9,342.6,300.6
953.8,566,20.7,19.7,94,15.37,40,6.4,297.9,342.6,300.6
953.3,571,20.7,19.7,94,15.36,40,6.5,297.9,342.6,300.6
952.8,575,20.6,19.7,94,15.33,39,6.6,297.9,342.5,300.6
952.3,580,20.6,19.6,94,15.28,39,6.7,297.9,342.4,300.6
951.7,585,20.6,19.5,94,15.20,39,6.8,297.9,342.2,300.6
951.2,589,20.5,19.4,93,15.12,39,6.9,297.9,341.9,300.6
950.7,594,20.5,19.4,93,15.10,39,7.0,297.9,341.9,300.6
950.2,598,20.5,19.4,94,15.09,39,7.0,297.9,341.9,300.6
949.8,603,20.4,19.4,94,15.14,39,7.1,297.9,342.0,300.6
949.3,607,20.4,19.5,95,15.23,39,7.1,297.9,342.3,300.6
948.8,611,20.3,19.6,95,15.28,39,7.1,297.9,342.4,300.6
948.3,616,20.3,19.6,96,15.28,40,7.2,297.9,342.4,300.7
947.9,620,20.3,19.5,96,15.26,40,7.2,297.9,342.4,300.6
947.4,624,20.2,19.5,96,15.26,41,7.2,297.9,342.4,300.6
946.9,629,20.2,19.5,96,15.26,41,7.2,297.9,342.4,300.7
946.3,634,20.1,19.5,96,15.29,42,7.1,297.9,342.5,300.7
945.8,639,20.1,19.5,97,15.30,42,7.1,297.9,342.5,300.6
945.3,644,20.0,19.5,97,15.26,43,7.1,297.9,342.4,300.6
944.7,649,20.0,19.4,97,15.21,43,7.0,297.9,342.2,300.6
944.2,654,19.9,19.4,97,15.17,44,7.0,297.9,342.1,300.6
943.6,659,19.9,19.4,97,15.17,45,6.9,297.9,342.1,300.6
943.1,664,19.9,19.4,97,15.21,45,6.9,298.0,342.3,300.7
942.6,668,19.8,19.4,97,15.25,46,6.8,298.0,342.4,300.7
942.0,673,19.8,19.4,98,15.24,47,6.8,298.0,342.4,300.7
941.5,678,19.8,19.3,97,15.16,48,6.7,298.0,342.2,300.7
941.0,683,19.8,19.2,97,15.04,48,6.7,298.0,341.9,300.7
940.5,688,19.8,19.1,96,14.96,49,6.6,298.1,341.7,300.8
940.0,692,19.7,19.0,96,14.92,50,6.6,298.1,341.6,300.8
939.5,697,19.7,19.0,96,14.89,51,6.5,298.1,341.6,300.8
939.0,701,19.7,19.0,96,14.87,51,6.5,298.2,341.5,300.8
938.5,706,19.7,19.0,96,14.87,52,6.4,298.2,341.6,300.8
938.0,710,19.6,19.0,96,14.90,52,6.4,298.2,341.6,300.8
937.5,715,19.6,19.0,96,14.89,53,6.4,298.2,341.6,300.8
937.0,720,19.5,18.9,96,14.85,53,6.4,298.2,341.5,300.8
936.5,724,19.5,18.9,96,14.84,54,6.4,298.2,341.4,300.8
936.0,729,19.4,18.9,97,14.86,54,6.3,298.2,341.5,300.8
935.5,733,19.4,18.9,97,14.88,54,6.3,298.2,341.6,300.8
935.0,738,19.4,18.9,97,14.90,55,6.3,298.2,341.6,300.8
934.5,742,19.3,19.0,98,14.92,55,6.3,298.2,341.7,300.8
934.0,747,19.3,19.0,98,14.95,55,6.4,298.2,341.8,300.8
933.5,752,19.2,19.0,98,14.94,55,6.4,298.2,341.7,300.8
933.0,756,19.2,18.9,98,14.91,55,6.4,298.2,341.6,300.8
932.6,761,19.1,18.8,98,14.85,55,6.4,298.2,341.5,300.8
932.1,765,19.1,18.7,98,14.75,55,6.4,298.2,341.2,300.8
931.7,769,19.1,18.5,97,14.58,55,6.4,298.2,340.7,300.8
931.2,773,19.1,18.2,95,14.28,55,6.5,298.2,339.9,300.8
930.8,777,19.1,17.8,92,13.93,55,6.5,298.3,339.0,300.8
930.3,781,19.2,17.6,90,13.73,55,6.5,298.5,338.6,300.9
929.9,786,19.3,17.6,90,13.72,55,6.5,298.5,338.6,301.0
929.4,790,19.2,17.7,91,13.81,55,6.6,298.6,338.9,301.0
928.9,794,19.2,17.7,91,13.87,55,6.6,298.6,339.1,301.1
928.4,799,19.2,17.7,91,13.90,54,6.6,298.6,339.2,301.1
927.9,804,19.1,17.8,92,13.93,54,6.7,298.6,339.3,301.1
927.4,808,19.1,17.8,92,13.93,54,6.7,298.6,339.3,301.1
926.9,813,19.0,17.7,92,13.88,53,6.7,298.6,339.2,301.1
926.4,818,19.1,17.6,91,13.76,53,6.8,298.7,338.9,301.1
925.8,823,19.1,17.5,90,13.69,53,6.8,298.7,338.7,301.2
925.3,828,19.0,17.4,91,13.68,52,6.8,298.7,338.7,301.2
925.0,831,19.0,17.4,91,13.67,52,6.8,298.7,338.7,301.2
924.7,833,19.0,17.4,91,13.67,52,6.9,298.7,338.7,301.2
924.2,838,18.9,17.4,91,13.63,51,6.9,298.7,338.6,301.2
923.6,844,18.9,17.3,91,13.57,51,6.9,298.7,338.4,301.2
923.1,849,18.9,17.2,90,13.53,50,6.9,298.8,338.3,301.2
922.6,854,18.8,17.2,90,13.53,50,7.0,298.8,338.4,301.2
922.0,859,18.8,17.3,91,13.60,49,7.0,298.8,338.6,301.2
921.5,864,18.7,17.4,92,13.73,48,7.0,298.8,339.0,301.2
920.9,869,18.7,17.6,94,13.90,48,7.1,298.8,339.5,301.3
920.4,874,18.6,17.7,94,13.96,47,7.1,298.8,339.6,301.3
919.8,879,18.6,17.7,94,13.96,46,7.1,298.8,339.6,301.3
919.3,884,18.5,17.6,94,13.91,46,7.2,298.8,339.5,301.3
918.8,889,18.5,17.5,94,13.81,45,7.2,298.8,339.2,301.3
918.2,894,18.5,17.4,93,13.77,44,7.2,298.9,339.2,301.3
917.7,899,18.5,17.5,94,13.81,44,7.2,298.9,339.3,301.3
917.2,904,18.4,17.5,94,13.84,43,7.3,298.9,339.4,301.3
916.7,909,18.4,17.5,94,13.84,42,7.3,298.9,339.4,301.3
916.2,914,18.4,17.5,95,13.85,42,7.3,298.9,339.4,301.4
915.6,918,18.4,17.5,95,13.90,41,7.3,299.0,339.6,301.4
915.1,923,18.4,17.5,95,13.90,41,7.3,299.0,339.7,301.5
914.6,928,18.3,17.5,95,13.86,40,7.3,299.0,339.6,301.5
914.1,933,18.3,17.4,94,13.78,40,7.3,299.0,339.4,301.5
913.5,938,18.3,17.3,94,13.73,40,7.3,299.1,339.3,301.5
913.0,943,18.3,17.3,94,13.72,39,7.3,299.1,339.3,301.5
912.5,948,18.2,17.3,94,13.71,39,7.3,299.1,339.3,301.6
911.9,953,18.2,17.3,94,13.71,39,7.3,299.1,339.3,301.6
911.4,959,18.2,17.2,94,13.69,39,7.3,299.1,339.3,301.6
910.8,964,18.2,17.1,94,13.62,39,7.2,299.2,339.1,301.6
910.2,970,18.2,17.0,93,13.49,39,7.2,299.2,338.8,301.7
909.6,975,18.2,16.9,92,13.40,40,7.2,299.3,338.6,301.7
909.0,981,18.1,16.8,92,13.36,40,7.1,299.3,338.5,301.7
908.4,987,18.1,16.8,92,13.35,40,7.1,299.4,338.5,301.8
907.8,993,18.1,16.7,92,13.32,41,7.0,299.4,338.5,301.8
907.2,998,18.1,16.7,92,13.29,41,7.0,299.4,338.4,301.8
906.7,1003,18.0,16.7,92,13.28,42,6.9,299.4,338.4,301.8
906.2,1008,18.0,16.7,92,13.34,43,6.9,299.4,338.6,301.8
905.6,1013,18.0,16.8,93,13.41,43,6.8,299.5,338.8,301.9
905.1,1018,17.9,16.8,93,13.46,44,6.8,299.5,339.0,301.9
904.6,1023,17.9,16.8,94,13.43,45,6.7,299.5,338.9,301.9
904.0,1028,17.8,16.7,93,13.38,46,6.7,299.5,338.8,301.9
903.5,1034,17.8,16.7,94,13.38,47,6.7,299.5,338.7,301.9
902.9,1039,17.7,16.7,94,13.40,47,6.7,299.5,338.8,301.9
902.4,1044,17.6,16.7,94,13.39,48,6.6,299.4,338.7,301.8
901.8,1049,17.6,16.7,94,13.36,49,6.6,299.4,338.7,301.8
901.3,1054,17.6,16.6,94,13.34,49,6.6,299.5,338.6,301.9
900.8,1059,17.5,16.6,95,13.35,50,6.6,299.5,338.6,301.9
900.2,1064,17.5,16.6,95,13.36,50,6.6,299.5,338.7,301.9
899.7,1070,17.4,16.6,95,13.31,50,6.6,299.5,338.6,301.9
899.1,1075,17.4,16.5,95,13.28,51,6.6,299.5,338.5,301.9
898.6,1080,17.4,16.6,95,13.30,51,6.6,299.5,338.6,301.9
898.1,1085,17.3,16.6,95,13.35,51,6.7,299.5,338.7,301.9
897.5,1090,17.3,16.6,96,13.35,51,6.7,299.6,338.8,302.0
897.0,1095,17.3,16.6,95,13.35,50,6.7,299.6,338.8,302.0
896.5,1100,17.3,16.6,96,13.39,50,6.7,299.6,339.0,302.1
896.0,1105,17.3,16.7,96,13.44,50,6.7,299.7,339.1,302.1
895.5,1109,17.2,16.7,97,13.48,49,6.7,299.7,339.3,302.1
895.0,1115,17.2,16.7,97,13.49,49,6.7,299.7,339.3,302.1
894.4,1120,17.2,16.7,97,13.46,49,6.7,299.7,339.3,302.1
893.9,1125,17.1,16.6,96,13.38,48,6.7,299.7,339.1,302.1
893.3,1130,17.1,16.5,96,13.30,48,6.7,299.8,338.8,302.2
892.8,1136,17.1,16.4,96,13.24,47,6.7,299.8,338.7,302.1
892.2,1141,17.0,16.3,96,13.22,47,6.7,299.8,338.7,302.2
891.7,1146,17.0,16.3,95,13.20,46,6.8,299.9,338.7,302.2
891.2,1151,17.0,16.2,95,13.14,46,6.8,299.9,338.5,302.3
890.7,1155,17.0,16.2,95,13.10,45,6.8,299.9,338.5,302.3
890.2,1160,17.0,16.2,95,13.11,45,6.8,300.0,338.5,302.3
889.8,1164,17.0,16.2,95,13.15,45,6.8,300.0,338.6,302.3
889.3,1169,16.9,16.3,96,13.19,44,6.8,300.0,338.8,302.3
888.9,1173,16.9,16.3,96,13.21,44,6.8,300.0,338.8,302.4
888.4,1177,16.9,16.3,96,13.22,44,6.8,300.0,338.9,302.4
888.0,1181,16.9,16.3,97,13.24,44,6.8,300.0,339.0,302.4
887.6,1186,16.8,16.3,97,13.27,44,6.9,300.0,339.1,302.4
887.1,1190,16.8,16.3,97,13.28,44,6.9,300.0,339.1,302.4
886.7,1194,16.7,16.3,97,13.26,44,7.0,300.0,339.0,302.4
886.3,1198,16.7,16.2,97,13.22,44,7.0,300.0,338.9,302.4
885.9,1202,16.7,16.2,97,13.18,45,7.1,300.0,338.8,302.4
885.5,1206,16.7,16.2,97,13.16,45,7.1,300.1,338.8,302.5
885.1,1210,16.8,16.2,96,13.16,45,7.2,300.2,339.0,302.6
884.6,1214,16.8,16.2,96,13.17,45,7.2,300.2,339.0,302.6
884.2,1218,16.7,16.1,96,13.17,46,7.3,300.3,339.0,302.6
883.7,1223,16.7,16.1,97,13.17,46,7.4,300.3,339.0,302.6
883.3,1227,16.6,16.1,97,13.16,47,7.5,300.2,339.0,302.6
882.8,1232,16.6,16.1,97,13.16,47,7.5,300.2,339.0,302.6
882.3,1237,16.5,16.1,97,13.16,47,7.6,300.2,339.0,302.6
881.8,1242,16.5,16.1,98,13.14,48,7.7,300.2,338.9,302.6
881.3,1246,16.4,16.0,97,13.10,48,7.8,300.2,338.8,302.6
880.8,1251,16.4,15.9,97,13.05,49,7.9,300.2,338.7,302.6
880.4,1255,16.4,15.9,97,13.01,49,8.0,300.3,338.6,302.6
880.0,1259,16.4,15.8,97,12.96,49,8.0,300.3,338.5,302.6
879.5,1264,16.4,15.7,96,12.90,50,8.1,300.3,338.4,302.7
879.1,1268,16.4,15.7,95,12.84,50,8.2,300.4,338.2,302.7
878.6,1272,16.4,15.6,95,12.77,50,8.2,300.5,338.1,302.8
878.1,1277,16.4,15.5,94,12.70,50,8.3,300.5,338.0,302.8
877.6,1282,16.4,15.4,94,12.66,51,8.4,300.6,337.9,302.8
877.1,1287,16.4,15.4,94,12.66,51,8.4,300.6,338.0,302.9
876.5,1292,16.4,15.4,94,12.68,51,8.5,300.7,338.1,302.9
876.0,1298,16.4,15.4,94,12.68,51,8.5,300.7,338.2,303.0
875.3,1304,16.4,15.4,94,12.64,52,8.5,300.8,338.1,303.0
874.7,1310,16.4,15.3,93,12.59,52,8.6,300.8,338.0,303.1
874.1,1316,16.3,15.2,93,12.55,52,8.6,300.8,337.9,303.1
873.5,1322,16.3,15.2,93,12.53,52,8.7,300.8,337.9,303.1
873.0,1327,16.3,15.2,94,12.58,52,8.7,300.9,338.0,303.1
872.4,1332,16.2,15.3,94,12.66,52,8.7,300.9,338.3,303.2
872.0,1337,16.2,15.4,95,12.69,52,8.7,300.9,338.4,303.2
871.5,1342,16.2,15.3,94,12.67,52,8.8,301.0,338.4,303.2
871.0,1346,16.2,15.3,94,12.63,52,8.8,301.0,338.4,303.3
870.6,1351,16.2,15.3,94,12.64,52,8.8,301.1,338.4,303.3
870.1,1355,16.2,15.3,94,12.65,52,8.8,301.1,338.5,303.4
869.7,1359,16.2,15.3,94,12.64,52,8.8,301.1,338.5,303.4
869.3,1364,16.2,15.2,94,12.58,52,8.9,301.1,338.3,303.4
868.8,1368,16.1,15.0,93,12.47,51,8.9,301.1,338.0,303.4
868.4,1373,16.1,14.9,92,12.34,51,8.9,301.2,337.7,303.4
867.9,1377,16.1,14.7,91,12.25,51,8.9,301.2,337.5,303.4
867.4,1382,16.1,14.7,91,12.19,51,8.9,301.3,337.4,303.5
866.9,1387,16.1,14.7,91,12.24,51,8.9,301.3,337.6,303.5
866.4,1391,16.2,14.9,92,12.36,50,8.9,301.4,338.1,303.7
865.9,1396,16.2,14.9,92,12.42,50,8.9,301.5,338.3,303.7
865.4,1401,16.2,14.9,92,12.39,50,8.9,301.5,338.2,303.8
864.9,1406,16.1,14.8,92,12.32,50,8.9,301.5,338.0,303.7
864.4,1411,16.1,14.7,92,12.27,49,8.9,301.5,337.9,303.8
863.9,1417,16.1,14.7,91,12.25,49,8.8,301.6,337.9,303.8
863.4,1422,16.1,14.7,92,12.28,49,8.8,301.6,338.0,303.8
862.8,1427,16.0,14.7,92,12.29,49,8.8,301.6,338.1,303.9
862.3,1433,16.0,14.7,92,12.32,48,8.7,301.7,338.2,303.9
861.7,1438,16.0,14.7,92,12.32,48,8.7,301.7,338.2,303.9
861.2,1443,15.9,14.7,92,12.30,48,8.6,301.7,338.2,303.9
860.6,1449,15.9,14.7,93,12.29,48,8.6,301.7,338.2,303.9
860.1,1454,15.8,14.7,93,12.29,48,8.6,301.7,338.1,303.9
859.6,1459,15.8,14.6,93,12.27,47,8.5,301.7,338.1,303.9
859.1,1464,15.7,14.6,93,12.27,47,8.5,301.7,338.1,303.9
858.6,1469,15.7,14.7,94,12.34,47,8.4,301.7,338.3,303.9
858.1,1473,15.6,14.9,95,12.48,47,8.4,301.7,338.7,303.9
857.7,1478,15.6,15.0,97,12.61,46,8.3,301.6,339.0,303.9
857.2,1483,15.5,15.1,98,12.69,46,8.3,301.6,339.2,303.9
856.7,1488,15.4,15.1,98,12.73,46,8.3,301.6,339.3,303.9
856.2,1492,15.4,15.1,98,12.74,46,8.3,301.6,339.4,303.9
855.8,1497,15.4,15.1,98,12.68,46,8.2,301.7,339.3,304.0
855.3,1502,15.4,15.0,97,12.62,46,8.2,301.7,339.2,304.0
854.8,1507,15.4,15.0,97,12.61,46,8.2,301.8,339.2,304.1
854.3,1512,15.4,15.0,97,12.63,46,8.2,301.8,339.3,304.1
853.8,1517,15.4,15.0,98,12.67,46,8.2,301.9,339.5,304.2
853.3,1522,15.4,15.0,98,12.67,46,8.3,301.9,339.5,304.2
852.7,1527,15.3,14.9,97,12.59,46,8.3,301.9,339.3,304.2
852.2,1532,15.3,14.7,97,12.48,46,8.3,301.9,339.0,304.2
851.8,1537,15.3,14.6,96,12.38,46,8.3,301.9,338.7,304.2
851.3,1541,15.3,14.6,96,12.34,46,8.3,302.0,338.6,304.2
850.9,1546,15.2,14.6,96,12.36,47,8.4,302.0,338.7,304.2
850.5,1550,15.2,14.6,96,12.42,47,8.4,302.0,338.9,304.3
850.1,1554,15.2,14.6,97,12.42,47,8.4,302.0,338.9,304.3
850.0,1555,15.2,14.6,96,12.42,48,8.5,302.0,338.9,304.3
849.7,1558,15.2,14.6,96,12.36,48,8.5,302.1,338.8,304.3
849.3,1562,15.2,14.5,96,12.31,48,8.5,302.1,338.7,304.3
848.9,1566,15.1,14.5,96,12.32,49,8.5,302.1,338.7,304.3
848.5,1570,15.1,14.5,96,12.31,50,8.6,302.1,338.7,304.3
848.1,1574,15.1,14.4,96,12.28,50,8.6,302.1,338.6,304.3
847.7,1578,15.1,14.4,96,12.26,51,8.6,302.2,338.6,304.4
847.3,1582,15.1,14.4,96,12.29,51,8.6,302.2,338.7,304.4
846.9,1586,15.0,14.4,96,12.31,52,8.6,302.2,338.8,304.4
846.5,1590,15.0,14.4,96,12.30,53,8.6,302.2,338.8,304.4
846.1,1594,15.0,14.4,96,12.28,53,8.6,302.2,338.7,304.4
845.7,1598,14.9,14.3,96,12.25,54,8.6,302.2,338.6,304.4
845.2,1602,14.9,14.3,96,12.20,54,8.6,302.2,338.5,304.4
844.8,1607,14.9,14.2,96,12.16,55,8.6,302.2,338.4,304.5
844.3,1612,14.9,14.2,96,12.11,55,8.6,302.3,338.3,304.5
843.8,1617,14.8,14.1,95,12.07,56,8.6,302.3,338.2,304.5
843.2,1623,14.8,14.0,95,12.02,56,8.6,302.3,338.1,304.5
842.7,1628,14.8,13.9,95,11.92,56,8.5,302.3,337.8,304.5
842.1,1634,14.8,13.8,94,11.85,57,8.5,302.4,337.7,304.6
841.6,1639,14.8,13.7,93,11.80,57,8.5,302.5,337.6,304.6
841.0,1645,14.8,13.6,93,11.74,57,8.5,302.5,337.5,304.6
840.5,1650,14.8,13.5,92,11.66,57,8.4,302.6,337.3,304.7
840.0,1655,14.8,13.4,92,11.61,57,8.4,302.6,337.2,304.7
839.6,1660,14.8,13.4,91,11.60,57,8.4,302.7,337.3,304.8
839.1,1664,14.8,13.4,92,11.61,57,8.4,302.7,337.3,304.8
838.7,1669,14.8,13.4,91,11.57,57,8.3,302.7,337.3,304.8
838.2,1673,14.8,13.3,91,11.51,57,8.3,302.8,337.1,304.9
837.8,1677,14.8,13.2,90,11.45,57,8.3,302.8,337.0,304.9
837.4,1682,14.8,13.2,90,11.43,57,8.3,302.9,337.0,305.0
836.9,1686,14.8,13.2,90,11.45,57,8.3,302.9,337.1,305.0
836.5,1690,14.7,13.2,91,11.48,56,8.3,302.9,337.2,305.0
836.1,1695,14.7,13.2,91,11.51,56,8.3,302.9,337.3,305.0
835.7,1699,14.6,13.2,91,11.52,56,8.3,302.9,337.3,305.0
835.2,1703,14.6,13.2,92,11.52,56,8.2,302.9,337.3,305.0
834.8,1708,14.5,13.2,92,11.50,56,8.2,302.9,337.2,305.0
834.3,1712,14.5,13.1,92,11.45,55,8.2,302.9,337.1,305.0
833.9,1717,14.4,13.1,91,11.40,55,8.2,302.9,337.0,305.0
833.4,1722,14.4,13.0,91,11.38,55,8.2,302.9,336.9,305.0
832.9,1727,14.4,13.0,91,11.37,55,8.2,303.0,336.9,305.0
832.3,1733,14.4,12.9,91,11.32,54,8.2,303.0,336.8,305.1
831.8,1738,14.4,12.8,90,11.24,54,8.1,303.0,336.6,305.1
831.3,1744,14.3,12.7,90,11.14,54,8.1,303.1,336.4,305.1
830.8,1749,14.3,12.5,89,11.04,54,8.1,303.1,336.1,305.1
