PRES,HGHT,TEMP,DWPT,RELH,MIXR,DRCT,SPED,THTA,THTE,THTV
1018.7,31,24.4,18.4,69,13.16,76,9.8,296.0,334.1,298.3
1017.9,38,23.8,17.7,69,12.64,75,6.9,295.5,332.0,297.7
1017.0,45,23.4,17.5,70,12.47,73,6.0,295.1,331.1,297.3
1016.5,49,23.0,17.1,69,12.16,73,5.9,294.8,329.8,296.9
1016.0,54,22.7,16.8,69,11.94,72,6.3,294.5,328.9,296.6
1015.1,62,22.7,16.9,70,11.99,72,6.8,294.6,329.1,296.7
1014.3,68,22.6,16.7,69,11.85,72,7.2,294.6,328.7,296.6
1013.8,73,22.5,16.4,69,11.68,72,7.5,294.4,328.1,296.5
1013.1,78,22.4,16.5,69,11.73,71,7.9,294.4,328.2,296.5
1012.5,84,22.3,16.6,70,11.85,71,8.2,294.4,328.5,296.5
1011.9,89,22.2,16.8,71,11.95,70,8.4,294.4,328.8,296.5
1011.3,94,22.2,16.8,71,11.98,70,8.7,294.4,328.9,296.5
1010.7,100,22.2,16.7,71,11.90,70,8.9,294.4,328.7,296.5
1010.1,105,22.1,16.5,71,11.78,69,9.1,294.4,328.3,296.5
1009.5,110,22.1,16.5,71,11.74,69,9.3,294.4,328.2,296.5
1008.9,115,22.0,16.5,71,11.81,68,9.5,294.4,328.4,296.5
1008.2,121,22.0,16.7,72,11.91,68,9.6,294.4,328.7,296.5
1007.6,126,21.9,16.7,72,11.97,68,9.7,294.4,328.9,296.5
1006.9,132,21.9,16.7,73,11.98,67,9.8,294.4,328.9,296.6
1006.2,138,21.8,16.7,73,11.97,67,9.8,294.4,328.9,296.6
1005.4,145,21.8,16.7,73,11.98,66,9.9,294.4,328.9,296.6
1004.6,152,21.7,16.7,73,11.99,66,9.9,294.4,329.0,296.6
1003.8,159,21.6,16.7,74,11.99,66,9.9,294.5,329.0,296.6
1002.9,166,21.6,16.7,74,12.04,65,9.9,294.5,329.1,296.6
1002.1,174,21.5,16.9,75,12.15,65,9.9,294.4,329.4,296.6
1001.2,181,21.4,16.9,76,12.20,65,9.8,294.4,329.5,296.6
1000.4,189,21.3,16.9,76,12.19,65,9.8,294.4,329.5,296.6
1000.0,192,21.3,16.9,76,12.19,64,9.7,294.4,329.5,296.6
999.6,196,21.2,16.9,76,12.18,64,9.7,294.4,329.5,296.6
998.7,203,21.2,16.9,77,12.21,64,9.7,294.4,329.5,296.6
997.9,210,21.1,16.9,77,12.21,64,9.6,294.4,329.6,296.6
997.1,217,21.0,16.8,77,12.17,64,9.6,294.4,329.4,296.6
996.3,224,21.0,16.8,77,12.14,64,9.5,294.4,329.4,296.6
995.5,231,20.9,16.8,77,12.14,64,9.4,294.4,329.4,296.6
994.7,238,20.8,16.7,77,12.11,64,9.4,294.4,329.3,296.6
993.9,245,20.8,16.6,77,12.03,64,9.3,294.4,329.0,296.5
993.1,252,20.7,16.4,77,11.91,64,9.3,294.4,328.7,296.5
992.3,259,20.6,16.4,77,11.90,63,9.2,294.4,328.7,296.5
991.5,266,20.6,16.5,77,11.97,63,9.2,294.4,328.9,296.5
990.7,273,20.5,16.5,78,12.03,63,9.2,294.4,329.0,296.6
989.9,280,20.4,16.6,79,12.10,63,9.1,294.4,329.2,296.6
989.1,287,20.4,16.6,79,12.13,64,9.1,294.4,329.3,296.6
988.3,294,20.3,16.6,79,12.14,64,9.1,294.4,329.4,296.6
987.5,301,20.3,16.7,80,12.17,64,9.1,294.5,329.5,296.6
986.7,308,20.2,16.7,80,12.20,64,9.1,294.4,329.6,296.6
985.9,315,20.1,16.7,81,12.24,64,9.2,294.4,329.6,296.6
985.0,322,20.0,16.7,81,12.26,64,9.2,294.4,329.7,296.6
984.2,329,19.9,16.7,82,12.26,64,9.2,294.4,329.7,296.6
983.4,336,19.9,16.8,82,12.30,64,9.3,294.4,329.8,296.6
982.6,344,19.8,16.8,83,12.33,64,9.3,294.4,329.9,296.6
981.8,351,19.7,16.7,83,12.30,64,9.4,294.4,329.8,296.6
981.1,357,19.7,16.7,83,12.27,64,9.4,294.4,329.7,296.6
980.3,364,19.6,16.6,83,12.23,64,9.5,294.4,329.6,296.6
979.5,371,19.5,16.6,83,12.18,64,9.5,294.4,329.5,296.6
978.8,378,19.5,16.4,83,12.11,64,9.6,294.4,329.2,296.6
978.0,384,19.4,16.3,82,11.98,65,9.7,294.4,328.9,296.5
977.3,390,19.3,16.1,81,11.84,65,9.7,294.4,328.5,296.5
976.6,397,19.2,15.8,81,11.67,65,9.8,294.4,327.9,296.4
975.9,403,19.1,15.7,81,11.59,65,9.8,294.3,327.7,296.4
975.2,409,19.1,15.8,81,11.62,65,9.9,294.3,327.7,296.4
974.5,415,19.0,15.8,82,11.67,65,10.0,294.3,327.9,296.4
973.8,421,18.9,15.8,82,11.69,66,10.0,294.3,328.0,296.4
973.1,428,18.9,15.8,82,11.71,66,10.1,294.3,328.0,296.4
972.4,434,18.8,15.9,83,11.74,66,10.1,294.3,328.1,296.4
971.7,440,18.8,15.9,83,11.74,66,10.1,294.3,328.1,296.4
971.0,447,18.7,15.9,83,11.74,66,10.2,294.3,328.1,296.4
970.2,453,18.7,15.9,84,11.76,67,10.2,294.3,328.2,296.4
969.5,460,18.6,15.8,84,11.75,67,10.3,294.3,328.1,296.4
968.7,466,18.6,15.8,84,11.76,67,10.3,294.4,328.2,296.5
968.0,473,18.5,15.8,85,11.77,67,10.3,294.4,328.2,296.4
967.2,480,18.4,15.8,85,11.77,67,10.3,294.4,328.2,296.5
966.5,486,18.4,15.8,85,11.75,67,10.3,294.4,328.2,296.4
965.8,493,18.3,15.8,85,11.77,67,10.4,294.4,328.2,296.4
965.1,499,18.3,15.8,86,11.76,67,10.4,294.4,328.2,296.5
964.4,505,18.2,15.7,85,11.68,67,10.4,294.4,328.0,296.4
963.7,511,18.1,15.5,85,11.58,67,10.4,294.4,327.7,296.4
963.0,517,18.1,15.5,85,11.56,67,10.4,294.4,327.7,296.4
962.3,523,18.0,15.5,85,11.60,67,10.4,294.4,327.8,296.4
961.6,530,18.0,15.6,86,11.67,67,10.4,294.4,328.0,296.4
960.9,536,17.9,15.7,87,11.72,67,10.5,294.3,328.1,296.4
960.2,542,17.8,15.6,87,11.69,67,10.5,294.3,328.0,296.4
959.5,549,17.8,15.5,87,11.63,66,10.5,294.4,327.8,296.4
958.8,555,17.7,15.5,87,11.61,66,10.5,294.4,327.8,296.4
958.1,561,17.7,15.5,87,11.60,66,10.5,294.4,327.8,296.4
957.5,567,17.6,15.4,87,11.57,65,10.5,294.4,327.7,296.4
956.8,573,17.6,15.4,87,11.61,65,10.6,294.4,327.8,296.4
956.2,578,17.5,15.6,89,11.74,65,10.6,294.4,328.2,296.5
955.5,584,17.4,15.7,90,11.84,64,10.6,294.4,328.4,296.5
954.9,590,17.4,15.7,90,11.85,64,10.6,294.4,328.5,296.5
954.2,596,17.3,15.7,90,11.85,63,10.6,294.4,328.5,296.5
953.6,602,17.2,15.7,91,11.83,63,10.7,294.4,328.4,296.5
952.9,608,17.2,15.7,91,11.82,63,10.7,294.4,328.4,296.4
952.3,613,17.1,15.6,91,11.79,62,10.7,294.4,328.3,296.4
951.6,619,17.1,15.6,91,11.77,62,10.7,294.4,328.2,296.4
951.0,625,17.0,15.6,91,11.78,62,10.7,294.4,328.3,296.4
950.3,631,17.0,15.6,92,11.80,61,10.7,294.4,328.3,296.5
949.6,637,16.9,15.6,92,11.84,61,10.8,294.4,328.4,296.5
949.0,643,16.8,15.6,92,11.83,61,10.8,294.3,328.4,296.4
948.3,649,16.8,15.5,92,11.77,60,10.8,294.4,328.2,296.4
947.7,655,16.7,15.4,92,11.70,60,10.8,294.4,328.0,296.4
947.0,661,16.7,15.4,92,11.66,60,10.8,294.4,327.9,296.4
946.4,666,16.6,15.3,92,11.65,60,10.8,294.4,327.9,296.4
945.7,672,16.6,15.3,92,11.63,60,10.8,294.4,327.9,296.4
945.1,678,16.5,15.3,92,11.64,60,10.8,294.4,327.9,296.4
944.5,684,16.5,15.3,93,11.68,60,10.8,294.4,328.0,296.4
943.8,689,16.4,15.4,94,11.70,60,10.8,294.4,328.0,296.4
943.2,695,16.3,15.3,94,11.70,61,10.8,294.4,328.0,296.4
942.6,700,16.3,15.3,94,11.71,61,10.8,294.4,328.1,296.4
942.0,706,16.2,15.3,94,11.72,61,10.8,294.4,328.1,296.4
941.4,712,16.2,15.4,95,11.75,61,10.8,294.4,328.2,296.5
940.8,717,16.1,15.4,95,11.79,62,10.8,294.4,328.3,296.5
940.2,723,16.1,15.4,96,11.82,62,10.8,294.4,328.4,296.5
939.5,728,16.0,15.4,96,11.81,63,10.8,294.4,328.3,296.5
938.9,734,16.0,15.4,96,11.79,63,10.8,294.4,328.3,296.4
938.3,740,15.9,15.3,96,11.76,63,10.8,294.4,328.2,296.4
937.7,745,15.9,15.3,96,11.72,64,10.8,294.4,328.1,296.4
937.1,751,15.8,15.2,97,11.70,64,10.8,294.4,328.0,296.4
936.4,756,15.7,15.2,96,11.64,65,10.8,294.4,327.9,296.4
935.8,762,15.7,15.0,96,11.54,65,10.9,294.4,327.6,296.4
935.2,767,15.7,14.8,95,11.40,65,10.9,294.4,327.2,296.4
934.6,773,15.6,14.6,94,11.27,66,10.9,294.4,326.9,296.4
934.0,778,15.6,14.6,94,11.27,66,11.0,294.4,326.9,296.4
933.4,784,15.5,14.7,95,11.33,67,11.0,294.4,327.0,296.4
932.8,789,15.5,14.7,96,11.38,67,11.0,294.4,327.1,296.4
932.3,794,15.4,14.7,96,11.38,67,11.1,294.4,327.1,296.4
931.7,799,15.4,14.7,96,11.35,68,11.1,294.4,327.1,296.4
931.2,804,15.3,14.7,96,11.33,68,11.2,294.4,327.0,296.4
930.7,809,15.3,14.7,96,11.34,68,11.2,294.4,327.1,296.4
930.2,813,15.2,14.6,96,11.33,68,11.3,294.4,327.0,296.4
929.7,818,15.2,14.4,95,11.15,69,11.3,294.4,326.5,296.4
929.2,823,15.2,13.8,91,10.71,69,11.4,294.5,325.4,296.4
928.7,827,15.4,12.8,85,10.04,69,11.4,294.7,323.7,296.5
928.2,832,15.5,12.1,80,9.58,69,11.5,294.9,322.6,296.6
927.7,836,15.6,11.9,78,9.46,70,11.5,295.0,322.5,296.7
927.2,841,15.7,11.9,78,9.49,70,11.6,295.1,322.6,296.8
926.7,845,15.6,12.0,79,9.56,70,11.7,295.1,322.9,296.8
926.2,850,15.6,12.1,80,9.61,70,11.7,295.1,323.0,296.8
925.7,854,15.5,12.1,80,9.64,70,11.8,295.1,323.1,296.8
925.3,859,15.4,12.1,81,9.64,71,11.8,295.1,323.0,296.8
925.0,861,15.4,12.1,81,9.63,71,11.8,295.1,323.0,296.8
924.8,863,15.4,12.1,80,9.61,71,11.9,295.1,322.9,296.8
924.3,868,15.4,12.0,81,9.60,71,11.9,295.1,322.9,296.8
923.8,872,15.3,12.0,81,9.59,71,12.0,295.1,322.9,296.8
923.3,877,15.3,12.0,81,9.57,71,12.0,295.1,322.8,296.8
922.8,881,15.3,11.9,80,9.52,72,12.1,295.1,322.7,296.8
922.3,886,15.2,11.8,80,9.47,72,12.1,295.1,322.6,296.8
921.8,890,15.2,11.7,80,9.44,72,12.1,295.1,322.5,296.8
921.3,895,15.1,11.7,80,9.40,72,12.2,295.1,322.4,296.8
920.9,899,15.1,11.7,80,9.39,72,12.2,295.1,322.4,296.8
920.4,903,15.1,11.7,80,9.40,73,12.2,295.1,322.4,296.8
919.9,908,15.0,11.7,80,9.41,73,12.3,295.1,322.5,296.8
919.4,912,15.0,11.7,81,9.43,73,12.3,295.2,322.5,296.8
918.9,917,15.0,11.7,81,9.45,73,12.3,295.2,322.6,296.8
918.5,921,14.9,11.7,81,9.45,74,12.3,295.2,322.6,296.8
918.0,926,14.9,11.7,81,9.46,74,12.3,295.1,322.6,296.8
917.5,930,14.8,11.8,82,9.49,74,12.3,295.2,322.7,296.8
917.0,935,14.8,11.8,82,9.52,74,12.4,295.2,322.8,296.8
916.5,939,14.8,11.8,82,9.53,75,12.4,295.2,322.8,296.9
916.0,944,14.7,11.8,83,9.54,75,12.4,295.2,322.9,296.9
915.5,948,14.7,11.8,83,9.55,75,12.4,295.2,322.9,296.9
915.0,953,14.6,11.8,83,9.54,75,12.4,295.2,322.9,296.9
914.5,958,14.6,11.8,83,9.53,76,12.4,295.2,322.8,296.9
914.0,963,14.6,11.8,83,9.54,76,12.4,295.2,322.9,296.9
913.4,968,14.5,11.8,84,9.56,76,12.4,295.2,322.9,296.9
912.9,973,14.5,11.8,84,9.56,77,12.4,295.2,322.9,296.9
912.3,978,14.4,11.8,84,9.57,77,12.4,295.2,322.9,296.9
911.7,983,14.3,11.8,85,9.59,77,12.5,295.2,323.0,296.9
911.2,989,14.3,11.9,85,9.62,77,12.5,295.2,323.1,296.9
910.6,994,14.2,11.9,86,9.67,78,12.5,295.2,323.2,296.9
910.0,999,14.1,12.0,87,9.72,78,12.5,295.1,323.3,296.9
909.5,1005,14.1,12.0,87,9.71,78,12.6,295.1,323.3,296.9
908.9,1010,14.0,11.9,87,9.67,78,12.6,295.1,323.2,296.9
908.4,1015,14.0,11.9,87,9.66,79,12.7,295.1,323.1,296.8
907.9,1019,13.9,11.9,87,9.67,79,12.7,295.1,323.2,296.8
907.4,1024,13.9,11.9,88,9.67,79,12.8,295.1,323.2,296.8
906.9,1028,13.9,11.8,87,9.64,79,12.9,295.2,323.1,296.9
906.4,1033,13.9,11.7,87,9.58,79,12.9,295.2,323.0,296.9
905.9,1037,13.9,11.6,86,9.53,79,13.0,295.3,322.9,297.0
905.5,1042,13.9,11.6,86,9.53,80,13.1,295.3,322.9,297.0
905.0,1046,13.8,11.7,87,9.56,80,13.2,295.3,323.0,297.0
904.5,1051,13.8,11.7,87,9.59,80,13.3,295.3,323.1,297.0
904.0,1056,13.7,11.7,88,9.60,80,13.4,295.3,323.1,297.0
903.5,1060,13.7,11.7,88,9.58,80,13.5,295.3,323.1,297.0
903.0,1065,13.6,11.6,87,9.54,80,13.6,295.3,323.0,297.0
902.5,1069,13.6,11.5,87,9.49,80,13.6,295.3,322.8,297.0
902.1,1073,13.6,11.4,87,9.45,80,13.7,295.3,322.8,297.0
901.6,1078,13.6,11.4,87,9.46,80,13.8,295.3,322.8,297.0
901.2,1082,13.5,11.5,87,9.50,80,13.9,295.3,322.9,297.0
900.8,1086,13.5,11.6,88,9.54,80,13.9,295.3,323.0,297.0
900.4,1090,13.5,11.6,88,9.55,80,14.0,295.3,323.1,297.0
899.9,1094,13.4,11.6,88,9.55,80,14.0,295.4,323.1,297.1
899.5,1098,13.4,11.5,88,9.53,80,14.0,295.4,323.0,297.1
899.1,1102,13.4,11.5,88,9.50,80,14.1,295.4,323.0,297.1
898.6,1106,13.4,11.4,88,9.47,80,14.1,295.4,322.9,297.1
898.2,1110,13.3,11.4,88,9.44,80,14.1,295.4,322.8,297.1
897.7,1115,13.3,11.3,88,9.44,80,14.1,295.4,322.8,297.1
897.2,1120,13.2,11.3,88,9.44,80,14.1,295.4,322.8,297.1
896.6,1125,13.2,11.3,88,9.40,81,14.0,295.4,322.7,297.1
896.1,1130,13.1,11.2,88,9.35,81,14.0,295.4,322.6,297.1
895.5,1135,13.1,11.1,87,9.29,81,14.0,295.4,322.4,297.1
895.0,1140,13.1,11.0,87,9.23,81,13.9,295.5,322.3,297.1
894.4,1146,13.1,11.0,87,9.24,81,13.9,295.5,322.3,297.1
893.8,1151,13.0,11.0,88,9.28,81,13.8,295.5,322.4,297.1
893.2,1157,12.9,11.0,88,9.28,82,13.8,295.5,322.4,297.1
892.6,1163,12.9,11.0,88,9.26,82,13.8,295.5,322.4,297.1
892.0,1168,12.8,10.9,88,9.24,82,13.7,295.5,322.3,297.1
891.4,1174,12.8,10.9,88,9.20,82,13.7,295.5,322.2,297.1
890.9,1179,12.7,10.8,88,9.16,83,13.7,295.5,322.1,297.1
890.3,1184,12.7,10.7,88,9.13,83,13.7,295.5,322.1,297.1
889.8,1189,12.7,10.6,87,9.07,83,13.7,295.5,321.9,297.1
889.3,1194,12.7,10.5,87,8.99,83,13.7,295.6,321.7,297.2
888.8,1198,12.7,10.3,86,8.90,84,13.7,295.6,321.5,297.2
888.4,1202,12.7,10.2,85,8.81,84,13.7,295.6,321.3,297.2
887.9,1206,12.6,10.0,84,8.74,84,13.7,295.7,321.1,297.2
887.5,1211,12.6,10.0,84,8.70,84,13.8,295.7,321.1,297.3
887.1,1215,12.6,9.9,84,8.69,85,13.8,295.7,321.1,297.3
886.7,1219,12.6,10.0,84,8.70,85,13.9,295.7,321.1,297.3
886.2,1223,12.6,9.9,84,8.68,85,13.9,295.8,321.1,297.3
885.8,1227,12.6,9.8,83,8.63,85,14.0,295.8,320.9,297.3
885.4,1230,12.5,9.7,83,8.57,85,14.1,295.8,320.8,297.3
885.0,1234,12.5,9.6,83,8.53,85,14.1,295.8,320.7,297.3
884.6,1238,12.5,9.6,83,8.50,85,14.2,295.8,320.6,297.3
884.2,1242,12.4,9.5,82,8.48,85,14.2,295.8,320.6,297.3
883.8,1246,12.4,9.5,82,8.45,85,14.3,295.8,320.5,297.3
883.4,1250,12.4,9.4,82,8.43,85,14.3,295.8,320.5,297.3
883.0,1253,12.3,9.4,82,8.44,85,14.4,295.8,320.5,297.3
882.6,1257,12.3,9.5,83,8.45,85,14.4,295.8,320.5,297.3
882.2,1261,12.3,9.5,83,8.46,85,14.5,295.8,320.6,297.4
881.8,1265,12.3,9.6,84,8.52,84,14.5,295.9,320.7,297.4
881.3,1269,12.2,9.7,84,8.59,84,14.5,295.9,321.0,297.4
880.9,1274,12.2,9.8,85,8.67,84,14.5,295.9,321.2,297.4
880.4,1278,12.1,9.9,86,8.72,84,14.5,295.9,321.3,297.4
879.9,1283,12.1,9.9,86,8.71,83,14.5,295.9,321.3,297.4
879.4,1288,12.1,9.8,86,8.68,83,14.5,295.9,321.2,297.4
878.9,1293,12.0,9.8,86,8.66,83,14.4,295.9,321.2,297.4
878.4,1298,12.0,9.8,86,8.66,82,14.4,295.9,321.2,297.4
877.9,1302,12.0,9.8,86,8.67,82,14.4,295.9,321.2,297.5
877.4,1307,11.9,9.7,86,8.66,81,14.3,295.9,321.2,297.5
876.9,1312,11.9,9.7,86,8.64,81,14.3,295.9,321.2,297.5
876.4,1317,11.8,9.7,87,8.67,80,14.2,295.9,321.3,297.5
875.9,1322,11.8,9.8,87,8.71,80,14.2,295.9,321.3,297.5
875.4,1326,11.8,9.8,88,8.72,80,14.1,295.9,321.4,297.5
874.8,1331,11.7,9.8,88,8.72,79,14.1,295.9,321.4,297.5
874.3,1336,11.7,9.7,88,8.70,79,14.0,296.0,321.3,297.5
873.8,1341,11.6,9.7,88,8.67,78,13.9,296.0,321.3,297.5
873.3,1346,11.6,9.6,88,8.65,78,13.9,296.0,321.2,297.5
872.8,1351,11.6,9.6,88,8.62,77,13.8,296.0,321.2,297.5
872.3,1356,11.5,9.5,87,8.58,77,13.8,296.0,321.1,297.6
871.8,1361,11.5,9.5,88,8.60,76,13.7,296.0,321.2,297.6
871.2,1366,11.5,9.6,88,8.65,76,13.7,296.1,321.3,297.6
870.7,1371,11.4,9.7,89,8.71,75,13.6,296.1,321.5,297.6
870.2,1376,11.4,9.8,90,8.77,75,13.6,296.1,321.7,297.6
869.7,1381,11.4,9.8,90,8.78,74,13.5,296.1,321.7,297.7
869.2,1386,11.4,9.7,90,8.73,74,13.5,296.1,321.6,297.7
868.7,1391,11.4,9.6,89,8.66,74,13.4,296.2,321.5,297.7
868.2,1396,11.3,9.5,88,8.61,73,13.4,296.2,321.4,297.7
867.7,1400,11.3,9.4,88,8.59,73,13.3,296.2,321.3,297.8
867.2,1405,11.3,9.4,88,8.58,72,13.3,296.2,321.3,297.8
866.7,1409,11.2,9.4,89,8.59,72,13.3,296.3,321.4,297.8
866.3,1414,11.2,9.5,89,8.61,72,13.2,296.3,321.4,297.8
865.9,1418,11.2,9.5,90,8.65,71,13.2,296.3,321.6,297.8
865.4,1422,11.2,9.6,90,8.68,71,13.2,296.3,321.7,297.8
865.0,1426,11.1,9.5,90,8.67,71,13.2,296.3,321.6,297.8
864.5,1431,11.1,9.5,90,8.65,70,13.1,296.3,321.6,297.8
864.1,1435,11.0,9.5,90,8.67,70,13.1,296.3,321.6,297.8
863.7,1439,11.0,9.6,91,8.70,70,13.1,296.3,321.7,297.9
863.2,1443,11.0,9.6,91,8.71,69,13.1,296.3,321.8,297.9
862.8,1447,10.9,9.6,91,8.72,69,13.1,296.3,321.8,297.9
862.4,1451,10.9,9.6,92,8.72,69,13.2,296.3,321.8,297.9
862.0,1455,10.8,9.6,92,8.72,69,13.2,296.3,321.8,297.9
861.6,1459,10.8,9.5,92,8.69,69,13.2,296.3,321.7,297.8
861.2,1463,10.8,9.4,91,8.62,69,13.2,296.3,321.5,297.9
860.8,1467,10.8,9.2,90,8.52,69,13.3,296.3,321.3,297.9
860.4,1471,10.8,9.1,89,8.46,69,13.3,296.4,321.1,297.9
860.0,1474,10.8,9.1,89,8.44,69,13.4,296.4,321.1,297.9
859.6,1478,10.7,9.0,89,8.44,69,13.4,296.4,321.1,297.9
859.2,1482,10.7,9.0,89,8.42,69,13.4,296.4,321.1,297.9
858.8,1487,10.7,9.0,89,8.43,69,13.5,296.5,321.1,298.0
858.3,1491,10.7,9.0,89,8.42,69,13.5,296.5,321.1,298.0
857.9,1495,10.6,8.8,88,8.29,69,13.6,296.5,320.8,298.0
857.5,1499,10.6,8.5,87,8.13,69,13.6,296.5,320.4,298.0
857.0,1504,10.6,8.2,85,7.99,69,13.7,296.6,320.0,298.0
856.5,1508,10.6,8.1,84,7.92,69,13.7,296.6,319.9,298.0
856.1,1513,10.6,8.0,84,7.86,70,13.8,296.7,319.7,298.1
855.6,1517,10.6,7.9,83,7.82,70,13.8,296.7,319.7,298.1
855.1,1522,10.6,7.8,83,7.81,70,13.8,296.7,319.7,298.1
854.6,1527,10.6,7.8,83,7.81,70,13.9,296.8,319.7,298.2
854.2,1531,10.6,7.8,83,7.81,71,13.9,296.8,319.7,298.2
853.7,1536,10.5,7.8,84,7.82,71,13.9,296.8,319.8,298.2
853.2,1541,10.5,7.9,84,7.88,71,13.9,296.8,319.9,298.2
852.7,1546,10.4,8.1,86,7.99,71,14.0,296.8,320.3,298.2
852.2,1551,10.4,8.3,87,8.08,72,14.0,296.8,320.6,298.3
851.6,1556,10.4,8.2,86,8.06,72,14.0,296.9,320.5,298.3
851.1,1561,10.4,8.1,85,7.97,72,14.0,296.9,320.3,298.3
850.7,1566,10.4,7.9,85,7.90,72,14.0,296.9,320.1,298.3
850.2,1570,10.3,7.8,84,7.81,73,14.0,296.9,319.9,298.3
850.0,1572,10.3,7.7,84,7.78,73,14.1,297.0,319.9,298.3
849.7,1575,10.3,7.6,83,7.73,73,14.1,297.0,319.7,298.3
849.2,1580,10.3,7.6,83,7.71,73,14.1,297.0,319.7,298.4
848.7,1585,10.2,7.6,84,7.75,74,14.1,297.0,319.8,298.4
848.2,1589,10.2,7.6,84,7.74,74,14.1,297.0,319.8,298.4
847.7,1594,10.2,7.5,83,7.68,74,14.1,297.0,319.6,298.4
847.2,1599,10.1,7.4,83,7.64,74,14.1,297.0,319.5,298.4
846.7,1605,10.1,7.3,83,7.60,75,14.1,297.1,319.5,298.4
846.2,1610,10.1,7.2,82,7.56,75,14.2,297.1,319.4,298.5
845.6,1615,10.1,7.2,82,7.55,75,14.2,297.1,319.4,298.5
845.1,1620,10.0,7.2,82,7.55,76,14.2,297.1,319.4,298.5
844.6,1626,10.0,7.2,83,7.54,76,14.2,297.1,319.4,298.5
844.0,1631,10.0,7.1,83,7.54,76,14.2,297.2,319.4,298.5
843.5,1636,9.9,7.1,82,7.52,76,14.2,297.2,319.4,298.5
843.0,1641,9.9,7.1,83,7.53,76,14.2,297.2,319.4,298.6
842.5,1646,9.9,7.1,83,7.55,77,14.2,297.2,319.5,298.6
842.1,1650,9.9,7.1,83,7.54,77,14.2,297.3,319.5,298.6
841.6,1655,9.8,7.0,83,7.51,77,14.2,297.3,319.4,298.6
841.1,1659,9.8,6.9,82,7.43,77,14.1,297.3,319.3,298.7
840.7,1664,9.9,6.7,81,7.36,77,14.1,297.4,319.1,298.7
840.2,1669,9.9,6.7,81,7.36,77,14.1,297.4,319.2,298.8
839.7,1673,9.9,6.9,82,7.45,77,14.1,297.5,319.5,298.8
839.2,1678,9.8,7.2,83,7.59,77,14.0,297.5,319.9,298.9
838.7,1683,9.8,7.3,84,7.67,77,14.0,297.5,320.2,298.9
838.2,1688,9.7,7.5,86,7.79,78,14.0,297.5,320.5,298.9
837.7,1693,9.7,7.8,88,7.95,78,13.9,297.5,320.9,298.9
837.2,1698,9.6,7.9,89,8.02,78,13.9,297.5,321.1,298.9
836.7,1703,9.6,8.0,90,8.07,78,13.8,297.5,321.3,299.0
836.3,1708,9.6,8.2,91,8.18,77,13.8,297.5,321.6,299.0
835.8,1713,9.6,8.4,92,8.28,77,13.7,297.6,321.9,299.1
835.3,1717,9.5,8.4,93,8.32,77,13.7,297.6,322.1,299.1
834.9,1722,9.5,8.4,93,8.30,77,13.6,297.6,322.0,299.1
834.4,1726,9.4,8.3,93,8.27,77,13.6,297.6,321.9,299.1
834.0,1730,9.4,8.3,93,8.26,77,13.6,297.6,321.9,299.1
833.6,1735,9.4,8.3,93,8.27,77,13.5,297.6,321.9,299.1
833.1,1739,9.3,8.3,93,8.29,76,13.5,297.6,322.0,299.1
832.7,1743,9.3,8.3,93,8.27,76,13.4,297.6,322.0,299.1
832.2,1748,9.3,8.2,93,8.20,76,13.4,297.6,321.8,299.1
831.8,1753,9.3,7.9,91,8.07,76,13.4,297.7,321.5,299.1
831.3,1757,9.3,7.6,89,7.88,75,13.4,297.8,321.0,299.2
830.8,1762,9.3,7.3,87,7.74,75,13.4,297.8,320.7,299.2
830.3,1767,9.3,7.1,86,7.63,74,13.3,297.9,320.4,299.2
829.8,1772,9.3,6.7,84,7.46,74,13.3,297.9,320.0,299.2
829.3,1777,9.3,6.2,81,7.20,74,13.3,298.0,319.3,299.3
828.8,1783,9.3,5.7,78,6.94,73,13.4,298.1,318.7,299.3
828.2,1788,9.4,5.4,76,6.83,73,13.4,298.2,318.4,299.4
827.7,1793,9.4,5.5,77,6.85,72,13.4,298.2,318.5,299.4
827.2,1798,9.3,5.6,77,6.89,72,13.4,298.2,318.7,299.5
826.7,1803,9.3,5.6,78,6.91,71,13.4,298.2,318.8,299.5
826.2,1808,9.3,5.6,78,6.92,71,13.5,298.3,318.8,299.5
825.7,1813,9.3,5.6,78,6.93,71,13.5,298.3,318.9,299.5
825.2,1818,9.2,5.6,78,6.94,70,13.6,298.3,318.9,299.6
824.8,1823,9.2,5.7,79,6.99,70,13.6,298.3,319.1,299.6
824.4,1827,9.2,5.9,80,7.07,69,13.7,298.3,319.3,299.6
823.9,1831,9.2,6.0,81,7.14,69,13.7,298.4,319.6,299.7
823.5,1836,9.1,6.2,82,7.22,68,13.8,298.4,319.8,299.7
823.1,1840,9.1,6.3,82,7.28,68,13.9,298.4,320.0,299.7
822.6,1844,9.1,6.3,83,7.29,68,13.9,298.4,320.1,299.7
822.2,1849,9.0,6.2,83,7.26,67,14.0,298.4,320.0,299.7
821.7,1853,9.0,6.2,83,7.25,67,14.0,298.4,319.9,299.7
821.3,1858,8.9,6.2,83,7.28,67,14.1,298.4,320.0,299.7
820.9,1862,8.9,6.4,84,7.37,67,14.1,298.4,320.3,299.7
820.4,1867,8.9,6.5,85,7.44,66,14.2,298.5,320.5,299.8
820.0,1871,8.9,6.5,85,7.42,66,14.2,298.5,320.5,299.8
819.5,1876,8.9,6.4,85,7.40,66,14.2,298.5,320.5,299.8
819.1,1880,8.9,6.4,85,7.39,66,14.3,298.6,320.5,299.9
818.6,1885,8.9,6.4,84,7.40,66,14.3,298.7,320.6,300.0
818.1,1890,8.9,6.5,85,7.43,66,14.3,298.7,320.8,300.1
817.6,1895,8.9,6.5,85,7.45,65,14.3,298.7,320.9,300.1
817.2,1900,8.9,6.6,85,7.48,65,14.3,298.7,320.9,300.1
816.7,1905,8.8,6.6,86,7.51,65,14.3,298.8,321.1,300.1
