PRES,HGHT,TEMP,DWPT,RELH,MIXR,DRCT,SPED,THTA,THTE,THTV
1013.9,31,21.5,20.8,96,15.47,264,2.1,293.5,337.7,296.2
1013.3,36,21.8,20.9,95,15.56,271,0.9,293.8,338.3,296.5
1012.6,42,21.8,20.9,95,15.51,274,0.8,293.8,338.2,296.6
1011.8,48,21.9,20.7,93,15.40,274,0.7,294.0,338.1,296.7
1011.4,52,22.1,20.7,92,15.35,272,0.7,294.3,338.3,297.0
1010.7,58,22.3,20.6,90,15.30,270,0.7,294.6,338.5,297.3
1010.1,63,22.5,20.5,89,15.21,268,0.7,294.8,338.5,297.4
1009.5,68,22.5,20.4,88,15.16,266,0.6,294.8,338.4,297.5
1008.9,74,22.5,20.4,88,15.16,263,0.6,294.9,338.4,297.5
1008.3,79,22.5,20.4,88,15.17,260,0.6,294.9,338.5,297.6
1007.7,84,22.4,20.4,89,15.18,255,0.5,294.9,338.6,297.6
1007.2,89,22.4,20.5,89,15.20,249,0.4,294.9,338.6,297.6
1006.6,93,22.4,20.4,89,15.20,241,0.4,294.9,338.7,297.6
1006.1,98,22.3,20.4,89,15.17,230,0.3,295.0,338.6,297.6
1005.6,103,22.3,20.4,89,15.17,213,0.3,295.0,338.6,297.7
1005.0,107,22.4,20.4,89,15.19,192,0.3,295.1,338.8,297.8
1004.5,111,22.4,20.4,89,15.19,170,0.3,295.1,338.8,297.8
1004.0,116,22.4,20.4,89,15.22,151,0.3,295.2,339.0,297.9
1003.5,121,22.4,20.4,89,15.23,138,0.4,295.2,339.1,297.9
1002.9,125,22.4,20.5,89,15.27,129,0.5,295.3,339.2,298.0
1002.4,130,22.3,20.5,89,15.28,122,0.6,295.3,339.3,298.0
1001.8,136,22.3,20.4,89,15.27,116,0.6,295.3,339.2,298.0
1001.1,141,22.2,20.4,90,15.26,112,0.7,295.3,339.2,298.0
1000.5,147,22.2,20.4,90,15.25,108,0.8,295.3,339.2,298.0
1000.0,151,22.1,20.3,89,15.17,108,0.8,295.3,339.0,298.0
999.9,152,22.1,20.3,89,15.14,105,0.9,295.3,338.9,297.9
999.3,157,22.2,20.2,89,15.08,102,1.0,295.4,338.8,298.0
998.7,163,22.2,20.1,88,15.03,99,1.1,295.4,338.8,298.1
998.1,168,22.2,20.1,88,15.02,97,1.2,295.5,338.8,298.1
997.5,173,22.1,20.1,89,15.04,94,1.3,295.5,338.8,298.1
996.9,178,22.1,20.1,89,15.03,92,1.4,295.5,338.8,298.1
996.3,183,22.0,20.1,89,15.02,91,1.5,295.5,338.8,298.1
995.8,188,22.0,20.1,89,15.04,89,1.6,295.5,338.9,298.2
995.2,193,22.0,20.2,89,15.13,88,1.7,295.5,339.2,298.2
994.6,198,22.0,20.2,90,15.16,86,1.7,295.6,339.3,298.2
994.1,203,21.9,20.2,90,15.14,85,1.8,295.6,339.2,298.2
993.5,208,21.9,20.2,90,15.15,84,1.9,295.6,339.3,298.3
993.0,212,21.9,20.2,90,15.13,83,2.0,295.6,339.2,298.3
992.4,217,21.8,20.1,90,15.10,83,2.1,295.6,339.2,298.3
991.9,222,21.8,20.1,90,15.09,82,2.1,295.6,339.1,298.3
991.4,226,21.7,20.1,90,15.10,81,2.2,295.6,339.2,298.3
990.8,231,21.7,20.1,91,15.16,81,2.2,295.6,339.3,298.3
990.3,236,21.6,20.2,92,15.20,81,2.3,295.6,339.4,298.3
989.7,241,21.5,20.2,92,15.23,81,2.4,295.5,339.4,298.2
989.1,246,21.4,20.2,93,15.20,81,2.4,295.5,339.3,298.2
988.5,252,21.3,20.1,93,15.15,81,2.5,295.5,339.1,298.1
987.9,257,21.3,20.0,92,15.11,81,2.5,295.5,339.1,298.2
987.3,263,21.3,20.0,92,15.07,81,2.5,295.5,339.0,298.2
986.6,268,21.3,20.0,93,15.12,81,2.6,295.6,339.1,298.2
986.0,274,21.2,20.1,93,15.20,81,2.6,295.6,339.4,298.2
985.4,279,21.2,20.1,94,15.22,81,2.7,295.5,339.4,298.2
984.7,285,21.1,20.1,94,15.22,82,2.7,295.6,339.5,298.3
984.1,290,21.1,20.0,93,15.15,82,2.7,295.6,339.3,298.3
983.6,295,21.1,20.0,93,15.09,82,2.7,295.7,339.2,298.3
983.0,300,21.1,19.9,93,15.08,82,2.8,295.7,339.2,298.4
982.5,305,21.1,19.9,93,15.08,82,2.8,295.7,339.3,298.4
981.9,310,21.1,19.9,93,15.09,82,2.8,295.7,339.3,298.4
981.4,315,21.0,19.9,93,15.09,82,2.9,295.8,339.3,298.4
980.8,319,21.0,19.9,94,15.10,81,2.9,295.8,339.3,298.4
980.3,324,20.9,19.9,94,15.09,81,2.9,295.7,339.3,298.4
979.8,329,20.9,19.9,94,15.07,81,3.0,295.7,339.2,298.4
979.2,334,20.8,19.9,94,15.06,81,3.0,295.8,339.2,298.4
978.7,338,20.8,19.8,94,15.05,81,3.0,295.8,339.2,298.4
978.2,343,20.8,19.8,94,15.04,80,3.1,295.8,339.2,298.4
977.7,347,20.7,19.8,95,15.06,80,3.1,295.8,339.2,298.4
977.2,352,20.7,19.8,95,15.07,80,3.1,295.8,339.3,298.4
976.7,357,20.6,19.8,95,15.08,79,3.2,295.8,339.3,298.4
976.1,361,20.6,19.8,95,15.06,79,3.2,295.8,339.2,298.4
975.6,366,20.5,19.7,95,15.01,79,3.3,295.8,339.1,298.4
975.1,371,20.5,19.7,95,15.00,79,3.3,295.8,339.1,298.4
974.5,375,20.5,19.8,96,15.05,78,3.3,295.8,339.2,298.5
974.0,380,20.4,19.8,96,15.12,78,3.4,295.8,339.4,298.4
973.4,385,20.4,19.8,97,15.14,78,3.4,295.8,339.5,298.5
972.8,390,20.3,19.8,97,15.13,78,3.4,295.8,339.4,298.4
972.3,396,20.2,19.8,97,15.12,79,3.5,295.8,339.4,298.4
971.7,401,20.2,19.8,98,15.13,79,3.5,295.8,339.4,298.4
971.1,406,20.1,19.8,98,15.13,79,3.5,295.8,339.4,298.4
970.5,412,20.1,19.8,98,15.10,80,3.5,295.7,339.3,298.4
969.9,417,20.0,19.7,98,15.08,80,3.6,295.8,339.2,298.4
969.3,422,20.0,19.7,98,15.09,80,3.6,295.8,339.3,298.4
968.8,427,19.9,19.8,99,15.13,81,3.6,295.8,339.4,298.4
968.2,432,19.9,19.8,99,15.17,81,3.6,295.8,339.5,298.5
967.7,437,19.9,19.8,100,15.17,82,3.6,295.8,339.5,298.4
967.1,442,19.8,19.7,99,15.12,83,3.6,295.8,339.4,298.4
966.5,447,19.8,19.6,99,15.06,83,3.6,295.8,339.2,298.4
966.0,452,19.7,19.6,99,15.04,84,3.6,295.8,339.2,298.4
965.4,457,19.7,19.6,100,15.05,85,3.6,295.8,339.2,298.4
964.8,462,19.6,19.6,100,15.08,85,3.7,295.8,339.3,298.5
964.2,468,19.6,19.6,100,15.08,86,3.7,295.8,339.4,298.5
963.6,473,19.6,19.6,100,15.07,87,3.7,295.9,339.4,298.5
962.9,479,19.6,19.6,100,15.03,87,3.7,295.9,339.3,298.5
962.3,485,19.5,19.5,100,14.97,88,3.7,295.9,339.1,298.5
961.6,491,19.5,19.4,100,14.92,88,3.7,295.9,339.0,298.6
960.9,497,19.5,19.4,100,14.91,89,3.7,296.0,339.0,298.6
960.2,503,19.4,19.3,100,14.88,89,3.7,296.0,339.0,298.6
959.5,510,19.3,19.2,99,14.78,89,3.7,296.0,338.7,298.6
958.8,516,19.3,19.2,100,14.79,90,3.7,295.9,338.6,298.6
958.1,523,19.3,19.3,100,14.84,90,3.7,296.0,338.9,298.6
957.4,529,19.3,19.3,100,14.85,90,3.7,296.1,339.0,298.7
956.7,536,19.2,19.2,100,14.84,90,3.7,296.1,339.0,298.7
956.0,542,19.3,19.3,100,14.87,90,3.7,296.2,339.2,298.8
955.3,548,19.3,19.2,100,14.85,90,3.7,296.3,339.2,298.9
954.6,554,19.2,19.2,100,14.83,90,3.7,296.3,339.2,298.9
954.0,560,19.2,19.2,100,14.83,90,3.7,296.3,339.2,299.0
953.4,565,19.2,19.2,100,14.81,90,3.7,296.3,339.2,299.0
952.8,571,19.1,19.1,100,14.78,89,3.7,296.4,339.1,299.0
952.2,576,19.0,19.0,100,14.64,89,3.7,296.3,338.6,298.9
951.6,581,18.9,18.8,100,14.51,89,3.7,296.2,338.2,298.8
951.0,587,18.9,18.7,99,14.39,89,3.7,296.2,337.9,298.8
950.5,592,18.7,18.3,97,14.02,89,3.8,296.1,336.7,298.6
949.9,597,18.6,18.0,96,13.78,88,3.8,296.1,335.9,298.5
949.4,602,18.6,17.9,96,13.71,88,3.8,296.1,335.8,298.5
948.8,607,18.6,17.9,96,13.70,88,3.8,296.1,335.7,298.6
948.3,612,18.5,17.8,96,13.69,88,3.8,296.1,335.7,298.6
947.7,617,18.5,17.8,96,13.68,88,3.8,296.2,335.7,298.6
947.2,621,18.5,17.8,96,13.64,87,3.8,296.2,335.6,298.6
946.6,626,18.4,17.7,95,13.55,87,3.8,296.2,335.4,298.6
946.1,631,18.4,17.5,95,13.45,87,3.8,296.2,335.1,298.6
945.5,636,18.4,17.3,93,13.28,87,3.8,296.2,334.7,298.6
945.0,641,18.4,17.0,92,13.04,87,3.9,296.3,334.1,298.6
944.4,646,18.4,16.8,90,12.82,87,3.9,296.4,333.5,298.7
943.9,652,18.5,16.6,89,12.70,87,3.9,296.5,333.3,298.7
943.3,657,18.5,16.6,89,12.67,87,3.9,296.5,333.2,298.8
942.8,662,18.4,16.6,89,12.67,87,3.9,296.5,333.3,298.8
942.2,667,18.4,16.6,89,12.68,87,3.9,296.6,333.4,298.8
941.6,672,18.4,16.6,89,12.70,87,3.9,296.6,333.4,298.8
941.1,677,18.3,16.6,90,12.75,87,3.9,296.6,333.5,298.8
940.5,682,18.3,16.7,91,12.81,88,3.9,296.6,333.7,298.8
940.0,687,18.2,16.7,91,12.82,88,3.9,296.5,333.7,298.8
939.4,692,18.1,16.6,91,12.78,88,3.9,296.5,333.6,298.8
938.8,698,18.1,16.5,91,12.71,88,3.8,296.5,333.4,298.8
938.3,703,18.1,16.4,90,12.63,89,3.8,296.6,333.2,298.8
937.7,708,18.0,16.3,90,12.52,89,3.8,296.6,332.9,298.8
937.2,713,18.1,16.1,88,12.36,90,3.8,296.7,332.5,298.9
936.6,718,18.1,15.9,87,12.22,90,3.8,296.8,332.2,298.9
936.1,723,18.1,15.9,87,12.19,91,3.7,296.8,332.2,299.0
935.5,728,18.1,15.9,87,12.22,91,3.7,296.8,332.4,299.0
935.0,733,18.1,15.9,87,12.22,92,3.7,296.8,332.4,299.0
934.5,737,18.0,15.8,87,12.19,92,3.7,296.9,332.3,299.0
934.0,742,18.0,15.8,87,12.15,93,3.6,296.9,332.2,299.0
933.5,747,18.0,15.7,87,12.11,94,3.6,296.9,332.1,299.0
933.0,751,17.9,15.7,87,12.10,94,3.6,296.9,332.1,299.1
932.5,756,17.9,15.7,87,12.13,95,3.6,296.9,332.2,299.1
932.0,760,17.9,15.8,88,12.18,96,3.5,296.9,332.3,299.1
931.5,765,17.8,15.9,88,12.25,97,3.5,296.9,332.6,299.1
930.9,770,17.8,15.9,89,12.33,97,3.5,296.9,332.8,299.1
930.3,776,17.7,16.0,90,12.39,98,3.5,296.9,333.0,299.2
929.7,781,17.7,16.0,90,12.40,99,3.4,297.0,333.0,299.2
929.1,787,17.7,16.0,90,12.37,99,3.4,297.0,332.9,299.2
928.5,792,17.6,15.9,89,12.29,100,3.4,297.0,332.7,299.2
927.9,798,17.6,15.7,89,12.17,100,3.4,297.0,332.4,299.2
927.3,803,17.6,15.5,88,12.04,101,3.4,297.0,332.1,299.2
926.7,809,17.5,15.4,87,11.99,101,3.4,297.1,332.0,299.2
926.1,815,17.5,15.4,87,11.95,101,3.4,297.1,331.9,299.2
925.5,820,17.5,15.3,87,11.91,101,3.4,297.1,331.8,299.2
925.0,825,17.5,15.3,87,11.90,101,3.4,297.1,331.8,299.3
924.9,826,17.5,15.3,87,11.90,101,3.4,297.2,331.8,299.3
924.3,831,17.4,15.3,87,11.91,101,3.4,297.2,331.9,299.3
923.7,837,17.4,15.3,88,11.92,101,3.4,297.2,331.9,299.3
923.2,842,17.3,15.3,88,11.96,101,3.4,297.2,332.0,299.3
922.6,847,17.3,15.4,88,11.98,101,3.4,297.2,332.1,299.4
922.1,852,17.3,15.3,88,11.95,100,3.4,297.3,332.1,299.4
921.6,857,17.3,15.3,88,11.91,100,3.4,297.3,332.0,299.4
921.0,862,17.2,15.2,88,11.87,99,3.5,297.3,331.9,299.4
920.5,867,17.2,15.2,88,11.85,99,3.5,297.3,331.9,299.5
920.0,872,17.2,15.1,88,11.84,98,3.5,297.4,331.9,299.5
919.4,877,17.2,15.1,88,11.84,98,3.6,297.4,331.9,299.5
918.8,882,17.1,15.1,88,11.81,97,3.6,297.4,331.8,299.5
918.2,888,17.1,15.1,88,11.80,97,3.6,297.4,331.8,299.5
917.6,893,17.0,15.1,88,11.82,96,3.7,297.4,331.8,299.5
917.0,899,17.0,15.1,89,11.82,96,3.7,297.4,331.9,299.5
916.4,904,16.9,15.0,89,11.79,95,3.8,297.4,331.8,299.5
915.8,910,16.9,14.9,88,11.74,95,3.8,297.4,331.6,299.5
915.2,916,16.9,14.9,88,11.69,94,3.8,297.4,331.5,299.5
914.6,921,16.8,14.8,88,11.66,94,3.9,297.4,331.4,299.5
914.0,927,16.8,14.8,88,11.62,94,3.9,297.5,331.4,299.5
913.4,933,16.7,14.7,88,11.56,94,4.0,297.5,331.2,299.6
912.8,938,16.7,14.6,87,11.53,94,4.0,297.5,331.2,299.6
912.3,944,16.7,14.6,88,11.55,94,4.0,297.5,331.2,299.6
911.7,949,16.7,14.6,88,11.56,94,4.1,297.6,331.3,299.6
911.2,954,16.6,14.6,88,11.55,94,4.1,297.6,331.3,299.7
910.6,959,16.6,14.6,88,11.52,94,4.1,297.6,331.2,299.7
910.1,964,16.6,14.4,87,11.42,94,4.1,297.6,331.0,299.7
909.6,968,16.6,14.2,86,11.23,94,4.2,297.7,330.5,299.7
909.1,973,16.6,13.8,84,10.97,95,4.2,297.7,329.8,299.7
908.6,978,16.6,13.4,81,10.72,95,4.2,297.8,329.2,299.8
908.1,982,16.7,13.3,81,10.65,96,4.2,297.9,329.1,299.8
907.7,987,16.7,13.4,81,10.71,96,4.2,298.0,329.3,299.9
907.2,991,16.6,13.5,82,10.76,97,4.1,298.0,329.5,299.9
906.7,996,16.6,13.4,81,10.73,97,4.1,298.0,329.4,299.9
906.2,1000,16.6,13.3,81,10.68,98,4.1,298.0,329.3,299.9
905.8,1005,16.6,13.3,81,10.68,98,4.1,298.0,329.3,299.9
905.3,1009,16.5,13.4,81,10.71,99,4.1,298.0,329.4,300.0
904.8,1014,16.5,13.4,82,10.74,100,4.0,298.1,329.5,300.0
904.3,1019,16.5,13.3,81,10.69,100,4.0,298.1,329.4,300.0
903.8,1023,16.5,13.1,80,10.54,101,4.0,298.2,329.1,300.0
903.3,1028,16.5,12.8,78,10.32,101,4.0,298.2,328.5,300.1
902.8,1033,16.5,12.5,77,10.11,102,3.9,298.3,327.9,300.1
902.2,1038,16.6,12.2,76,9.97,102,3.9,298.3,327.6,300.1
901.8,1042,16.5,12.1,75,9.90,103,3.9,298.4,327.5,300.1
901.3,1047,16.5,12.1,75,9.86,103,3.9,298.4,327.4,300.1
900.7,1052,16.5,12.0,75,9.83,103,3.8,298.4,327.3,300.2
900.2,1057,16.5,12.0,75,9.84,104,3.8,298.4,327.4,300.2
899.7,1062,16.4,12.0,75,9.84,104,3.8,298.4,327.4,300.2
899.1,1067,16.4,12.0,75,9.84,104,3.8,298.5,327.4,300.2
898.5,1073,16.3,12.0,75,9.84,104,3.8,298.5,327.4,300.2
898.0,1078,16.3,12.0,76,9.86,104,3.8,298.5,327.5,300.2
897.4,1084,16.2,12.1,77,9.94,104,3.8,298.5,327.7,300.3
896.8,1089,16.2,12.3,78,10.05,103,3.7,298.5,328.0,300.3
896.2,1095,16.1,12.6,79,10.25,103,3.7,298.5,328.6,300.3
895.7,1100,16.1,13.0,82,10.56,103,3.7,298.5,329.5,300.4
895.1,1106,16.0,13.4,85,10.89,102,3.8,298.4,330.4,300.4
894.5,1111,15.9,13.9,88,11.25,102,3.8,298.4,331.4,300.4
893.9,1116,15.8,14.3,91,11.54,101,3.8,298.4,332.2,300.5
893.4,1122,15.8,14.5,92,11.70,100,3.8,298.4,332.6,300.5
892.8,1127,15.7,14.6,93,11.82,100,3.8,298.4,333.0,300.5
892.2,1133,15.7,14.6,93,11.83,99,3.8,298.4,333.0,300.5
891.6,1138,15.7,14.6,93,11.79,98,3.8,298.4,333.0,300.6
891.1,1144,15.6,14.6,93,11.80,97,3.8,298.5,333.0,300.6
890.5,1150,15.6,14.6,93,11.78,97,3.8,298.5,333.0,300.6
889.9,1155,15.6,14.4,93,11.69,96,3.9,298.5,332.8,300.6
889.3,1161,15.6,14.2,92,11.54,95,3.9,298.6,332.4,300.7
888.7,1166,15.6,14.1,91,11.47,95,3.9,298.6,332.3,300.7
888.2,1172,15.5,14.2,92,11.54,94,3.9,298.6,332.5,300.7
887.6,1177,15.5,14.4,93,11.72,93,3.9,298.7,333.0,300.8
887.0,1183,15.5,14.7,95,11.91,93,3.9,298.7,333.6,300.8
886.5,1188,15.4,14.8,96,12.05,92,3.9,298.7,334.0,300.8
885.9,1193,15.4,14.8,96,12.05,92,3.9,298.7,334.0,300.9
885.4,1198,15.4,14.7,96,11.95,91,3.9,298.7,333.8,300.9
884.8,1204,15.4,14.6,95,11.92,91,3.9,298.8,333.7,300.9
884.3,1209,15.4,14.7,96,11.99,91,4.0,298.8,334.0,301.0
883.8,1214,15.3,14.8,97,12.04,90,4.0,298.8,334.1,301.0
883.2,1219,15.3,14.7,96,12.01,90,4.0,298.8,334.1,301.0
882.7,1224,15.3,14.6,96,11.93,90,4.0,298.9,333.9,301.0
882.2,1229,15.2,14.6,96,11.89,90,4.0,298.9,333.8,301.0
881.7,1234,15.2,14.5,96,11.88,90,4.0,298.9,333.8,301.1
881.2,1239,15.2,14.5,96,11.88,91,4.1,298.9,333.8,301.1
880.7,1244,15.2,14.5,96,11.91,91,4.1,299.0,333.9,301.1
880.2,1249,15.2,14.5,96,11.89,91,4.1,299.0,333.9,301.1
879.6,1254,15.1,14.4,95,11.82,91,4.2,299.0,333.7,301.2
879.0,1260,15.1,14.3,94,11.71,92,4.2,299.1,333.5,301.2
878.5,1265,15.2,14.1,93,11.57,92,4.2,299.2,333.2,301.3
877.9,1271,15.2,13.9,92,11.47,92,4.3,299.3,333.0,301.4
877.3,1277,15.2,13.9,92,11.44,92,4.3,299.3,333.0,301.4
876.7,1282,15.2,13.9,92,11.43,93,4.4,299.4,333.0,301.4
876.2,1288,15.2,13.8,92,11.41,93,4.5,299.4,333.0,301.4
875.6,1293,15.1,13.8,92,11.40,93,4.5,299.4,332.9,301.5
875.1,1298,15.1,13.8,92,11.41,93,4.6,299.4,333.0,301.5
874.6,1302,15.1,13.8,92,11.41,93,4.7,299.4,333.0,301.5
874.1,1307,15.0,13.8,92,11.40,93,4.7,299.5,333.0,301.5
873.7,1312,15.0,13.7,92,11.37,93,4.8,299.5,332.9,301.5
873.1,1317,15.0,13.7,92,11.34,93,4.9,299.5,332.9,301.5
872.6,1322,14.9,13.6,92,11.32,93,5.0,299.5,332.8,301.5
872.1,1327,14.9,13.6,92,11.30,93,5.0,299.5,332.8,301.5
871.6,1332,14.8,13.6,92,11.27,93,5.1,299.5,332.7,301.6
871.0,1337,14.8,13.5,92,11.22,92,5.2,299.6,332.6,301.6
870.5,1342,14.8,13.4,91,11.17,92,5.3,299.6,332.5,301.6
870.0,1347,14.8,13.4,91,11.17,92,5.3,299.6,332.5,301.7
869.5,1352,14.8,13.5,92,11.22,91,5.4,299.7,332.7,301.7
869.0,1357,14.8,13.5,92,11.28,91,5.5,299.7,332.9,301.7
868.5,1363,14.7,13.6,93,11.32,90,5.6,299.7,333.0,301.7
867.9,1368,14.7,13.5,93,11.30,90,5.6,299.7,333.0,301.7
867.3,1374,14.6,13.4,93,11.24,89,5.7,299.7,332.8,301.7
866.7,1380,14.6,13.4,93,11.19,89,5.8,299.7,332.7,301.7
866.1,1386,14.5,13.3,93,11.19,88,5.8,299.7,332.7,301.7
865.5,1391,14.5,13.4,93,11.20,88,5.9,299.7,332.8,301.8
864.9,1397,14.4,13.4,93,11.22,87,5.9,299.7,332.8,301.8
864.4,1402,14.4,13.4,94,11.22,87,6.0,299.7,332.8,301.8
863.9,1407,14.3,13.3,94,11.22,86,6.1,299.8,332.8,301.8
863.4,1412,14.3,13.3,94,11.20,86,6.1,299.7,332.8,301.8
862.9,1417,14.2,13.3,94,11.19,85,6.1,299.8,332.7,301.8
862.4,1422,14.2,13.3,94,11.21,85,6.2,299.8,332.8,301.8
861.9,1427,14.2,13.4,95,11.25,84,6.2,299.8,332.9,301.8
861.4,1431,14.1,13.4,96,11.30,84,6.2,299.8,333.1,301.8
860.9,1436,14.1,13.4,96,11.33,84,6.2,299.8,333.2,301.8
860.5,1441,14.0,13.5,97,11.37,83,6.2,299.8,333.3,301.8
860.0,1445,14.0,13.5,97,11.40,83,6.3,299.8,333.4,301.8
859.5,1450,14.0,13.6,97,11.44,83,6.2,299.8,333.5,301.9
859.1,1454,13.9,13.6,98,11.45,82,6.2,299.8,333.5,301.9
858.7,1459,13.9,13.6,98,11.44,82,6.2,299.8,333.5,301.9
858.2,1463,13.9,13.5,98,11.42,82,6.2,299.9,333.5,301.9
857.8,1467,13.9,13.5,97,11.40,81,6.2,299.9,333.5,301.9
857.3,1472,13.9,13.5,97,11.39,81,6.1,299.9,333.5,302.0
856.9,1476,13.8,13.4,97,11.38,81,6.1,299.9,333.5,302.0
856.4,1481,13.8,13.4,97,11.35,81,6.0,300.0,333.4,302.0
856.0,1485,13.8,13.4,97,11.33,81,6.0,300.0,333.4,302.0
855.5,1490,13.8,13.3,97,11.32,81,5.9,300.0,333.4,302.0
855.1,1494,13.7,13.4,98,11.34,80,5.9,300.0,333.4,302.0
854.6,1499,13.7,13.4,98,11.39,80,5.8,300.0,333.6,302.1
854.2,1503,13.6,13.4,99,11.42,80,5.8,300.0,333.7,302.1
853.7,1508,13.6,13.4,99,11.42,80,5.7,300.0,333.7,302.1
853.2,1512,13.6,13.4,99,11.39,80,5.7,300.0,333.6,302.1
852.8,1517,13.6,13.3,99,11.35,80,5.6,300.0,333.5,302.1
852.3,1521,13.6,13.3,98,11.35,80,5.6,300.1,333.6,302.1
851.8,1526,13.6,13.3,99,11.36,80,5.6,300.1,333.7,302.2
851.3,1531,13.5,13.3,99,11.36,80,5.5,300.2,333.7,302.2
850.8,1536,13.5,13.3,98,11.35,80,5.5,300.2,333.7,302.3
850.3,1542,13.5,13.3,98,11.34,80,5.5,300.3,333.7,302.3
850.0,1544,13.5,13.3,98,11.33,80,5.5,300.3,333.7,302.3
849.7,1547,13.5,13.2,98,11.33,80,5.5,300.3,333.7,302.3
849.1,1553,13.4,13.2,98,11.31,80,5.5,300.3,333.7,302.3
848.5,1559,13.4,13.1,98,11.26,79,5.6,300.3,333.6,302.4
847.9,1565,13.4,13.0,98,11.19,79,5.6,300.3,333.4,302.4
847.3,1571,13.3,13.0,98,11.17,79,5.6,300.4,333.4,302.4
846.7,1577,13.3,13.0,98,11.18,79,5.7,300.4,333.4,302.4
846.1,1583,13.3,13.0,98,11.17,79,5.7,300.4,333.4,302.4
845.5,1589,13.2,12.9,98,11.16,79,5.8,300.5,333.5,302.5
844.9,1595,13.2,12.9,98,11.15,79,5.8,300.5,333.5,302.5
844.4,1600,13.2,12.9,98,11.12,79,5.9,300.5,333.4,302.5
843.9,1605,13.2,12.8,98,11.09,79,5.9,300.5,333.3,302.5
843.4,1610,13.2,12.8,98,11.09,80,6.0,300.6,333.4,302.6
842.9,1615,13.2,12.9,98,11.14,80,6.1,300.6,333.6,302.6
842.4,1620,13.1,12.9,99,11.18,80,6.1,300.6,333.7,302.7
841.9,1625,13.1,12.9,99,11.17,80,6.2,300.7,333.7,302.7
841.5,1629,13.1,12.8,99,11.13,81,6.2,300.7,333.6,302.7
841.0,1634,13.0,12.7,98,11.08,81,6.3,300.7,333.5,302.7
840.6,1638,13.0,12.7,98,11.02,81,6.3,300.7,333.3,302.7
840.2,1642,13.0,12.6,97,10.96,82,6.3,300.7,333.2,302.7
839.8,1647,13.0,12.4,96,10.86,82,6.4,300.8,332.9,302.7
839.4,1651,13.1,12.3,95,10.77,83,6.4,301.0,332.9,302.9
838.9,1655,13.2,12.2,94,10.72,84,6.4,301.1,332.9,303.0
838.5,1659,13.2,12.2,94,10.72,84,6.4,301.1,332.9,303.0
838.0,1664,13.2,12.2,94,10.74,85,6.4,301.1,333.0,303.1
837.5,1669,13.1,12.2,95,10.76,85,6.4,301.1,333.0,303.1
837.0,1674,13.1,12.2,95,10.74,86,6.4,301.1,333.0,303.1
836.5,1679,13.0,12.2,95,10.71,87,6.4,301.1,332.9,303.1
836.0,1685,13.0,12.1,94,10.68,87,6.4,301.2,332.9,303.1
835.5,1690,13.0,12.1,94,10.65,88,6.4,301.2,332.8,303.1
835.0,1695,13.0,12.0,94,10.64,89,6.4,301.2,332.8,303.2
834.5,1699,12.9,12.0,94,10.61,89,6.4,301.3,332.8,303.2
834.0,1704,12.9,12.0,94,10.60,90,6.4,301.3,332.8,303.2
833.5,1709,12.9,12.0,94,10.60,90,6.4,301.3,332.8,303.3
833.0,1715,12.9,12.0,94,10.61,91,6.4,301.4,332.9,303.3
832.5,1720,12.9,11.9,94,10.59,91,6.3,301.4,332.8,303.3
831.9,1725,12.8,11.9,94,10.57,91,6.3,301.4,332.8,303.3
831.4,1731,12.8,11.8,94,10.55,91,6.3,301.4,332.8,303.3
830.9,1736,12.7,11.8,94,10.52,92,6.3,301.4,332.7,303.3
830.3,1742,12.7,11.7,94,10.49,92,6.3,301.5,332.7,303.4
829.8,1747,12.7,11.7,94,10.49,92,6.3,301.5,332.7,303.4
829.3,1752,12.7,11.7,94,10.50,92,6.3,301.5,332.8,303.4
828.8,1757,12.6,11.7,94,10.50,92,6.2,301.5,332.8,303.4
828.3,1763,12.6,11.7,94,10.49,91,6.2,301.6,332.8,303.5
827.8,1768,12.6,11.7,94,10.51,91,6.2,301.6,332.8,303.5
827.3,1773,12.5,11.7,95,10.52,91,6.2,301.6,332.9,303.5
826.7,1778,12.5,11.7,95,10.51,91,6.2,301.6,332.8,303.5
826.2,1783,12.4,11.7,95,10.50,91,6.1,301.6,332.8,303.5
825.7,1788,12.4,11.7,96,10.51,90,6.1,301.6,332.8,303.5
825.2,1793,12.3,11.7,96,10.52,90,6.1,301.6,332.9,303.5
824.7,1799,12.3,11.7,96,10.55,90,6.0,301.6,333.0,303.5
824.2,1804,12.3,11.8,97,10.58,90,6.0,301.6,333.1,303.5
823.7,1809,12.2,11.8,97,10.59,89,6.0,301.6,333.1,303.6
823.2,1814,12.2,11.7,97,10.58,89,5.9,301.7,333.2,303.6
822.7,1819,12.2,11.7,96,10.54,89,5.9,301.7,333.1,303.6
822.2,1824,12.2,11.6,96,10.47,89,5.9,301.8,333.0,303.7
821.7,1830,12.2,11.5,95,10.43,88,5.8,301.8,332.9,303.7
821.2,1835,12.2,11.5,95,10.41,88,5.8,301.8,332.8,303.7
820.7,1839,12.1,11.5,96,10.41,88,5.7,301.8,332.9,303.7
820.3,1844,12.1,11.5,96,10.42,88,5.7,301.9,332.9,303.8
819.8,1849,12.1,11.5,96,10.43,88,5.6,301.9,332.9,303.8
819.4,1853,12.1,11.4,96,10.42,88,5.6,301.9,332.9,303.8
819.0,1857,12.1,11.4,96,10.39,87,5.5,302.0,332.9,303.8
818.6,1862,12.1,11.3,95,10.36,87,5.5,302.0,332.9,303.9
818.1,1866,12.1,11.3,95,10.34,87,5.4,302.1,332.9,303.9
817.7,1871,12.1,11.3,95,10.33,87,5.4,302.1,332.9,304.0
