PRES,HGHT,TEMP,DWPT,RELH,MIXR,DRCT,SPED,THTA,THTE,THTV
1014.1,31,25.3,19.9,72,14.59,73,8.2,297.3,339.7,299.9
1013.5,36,25.5,19.9,71,14.55,82,5.3,297.5,339.8,300.1
1013.0,40,25.6,19.8,70,14.49,86,4.8,297.6,339.9,300.2
1012.4,46,25.6,19.8,70,14.49,87,5.0,297.7,340.0,300.3
1011.6,52,25.6,19.8,70,14.49,87,5.3,297.8,340.0,300.4
1011.0,57,25.6,19.7,70,14.46,87,5.8,297.8,340.0,300.4
1010.3,63,25.6,19.6,70,14.39,86,6.2,297.8,339.8,300.4
1009.7,69,25.5,19.5,69,14.25,86,6.5,297.8,339.4,300.4
1009.1,75,25.5,19.3,69,14.08,86,6.8,297.8,338.9,300.4
1008.4,80,25.4,19.1,68,13.96,86,7.2,297.8,338.5,300.3
1007.7,86,25.3,19.1,68,13.92,86,7.5,297.8,338.4,300.3
1007.1,92,25.3,19.1,68,13.92,86,7.8,297.8,338.4,300.3
1006.5,97,25.2,19.1,69,13.93,86,8.1,297.8,338.4,300.3
1005.8,103,25.2,19.1,69,13.94,86,8.3,297.8,338.5,300.3
1005.2,108,25.1,19.0,69,13.92,86,8.6,297.8,338.4,300.3
1004.6,114,25.1,19.0,69,13.89,86,8.8,297.8,338.3,300.3
1004.0,119,25.0,19.0,69,13.88,86,9.0,297.8,338.3,300.3
1003.4,124,25.0,19.0,69,13.90,86,9.2,297.8,338.3,300.3
1002.8,129,24.9,19.0,70,13.91,86,9.4,297.8,338.4,300.3
1002.2,135,24.8,19.0,70,13.91,86,9.5,297.8,338.3,300.3
1001.6,140,24.8,19.0,70,13.93,85,9.7,297.8,338.4,300.3
1001.0,145,24.8,19.0,70,13.97,85,9.8,297.8,338.5,300.3
1000.5,150,24.7,19.0,71,13.98,85,9.9,297.8,338.6,300.3
1000.0,154,24.7,19.0,71,13.99,85,9.9,297.8,338.6,300.3
999.9,155,24.7,19.0,71,13.99,85,10.0,297.8,338.6,300.3
999.3,160,24.6,19.0,71,14.01,85,10.1,297.8,338.6,300.3
998.8,165,24.6,19.0,71,13.99,85,10.2,297.8,338.6,300.3
998.2,170,24.5,19.0,71,13.95,85,10.2,297.8,338.5,300.3
997.6,175,24.5,18.9,71,13.92,85,10.3,297.8,338.4,300.3
997.1,180,24.4,18.9,71,13.87,85,10.3,297.8,338.3,300.3
996.5,184,24.4,18.8,71,13.80,84,10.3,297.8,338.1,300.3
996.0,189,24.4,18.7,71,13.75,84,10.3,297.8,337.9,300.3
995.4,194,24.3,18.6,71,13.71,84,10.3,297.9,337.8,300.3
994.9,199,24.3,18.6,71,13.72,84,10.3,297.9,337.9,300.3
994.3,204,24.2,18.7,71,13.76,84,10.3,297.9,338.0,300.3
993.7,209,24.2,18.7,72,13.82,83,10.3,297.9,338.2,300.3
993.2,214,24.1,18.8,72,13.84,83,10.3,297.9,338.2,300.3
992.6,219,24.1,18.7,72,13.81,83,10.3,297.9,338.1,300.3
992.0,224,24.0,18.7,72,13.79,83,10.3,297.9,338.1,300.3
991.5,229,24.0,18.7,72,13.82,82,10.2,297.9,338.2,300.3
990.9,234,23.9,18.8,73,13.87,82,10.2,297.9,338.3,300.3
990.3,240,23.9,18.8,73,13.88,82,10.2,297.8,338.3,300.3
989.6,245,23.8,18.7,73,13.86,82,10.1,297.8,338.2,300.3
989.0,251,23.8,18.7,73,13.82,81,10.1,297.8,338.1,300.3
988.4,256,23.7,18.6,73,13.81,81,10.1,297.9,338.1,300.3
987.8,262,23.7,18.6,73,13.80,81,10.0,297.9,338.1,300.3
987.1,268,23.6,18.6,74,13.81,81,10.0,297.9,338.1,300.3
986.5,273,23.5,18.6,74,13.82,81,10.0,297.8,338.1,300.3
985.8,279,23.5,18.6,74,13.85,80,9.9,297.8,338.2,300.3
985.2,285,23.4,18.7,75,13.89,80,9.9,297.8,338.3,300.3
984.6,290,23.4,18.7,75,13.92,80,9.9,297.8,338.4,300.3
983.9,296,23.3,18.7,75,13.89,80,9.8,297.9,338.4,300.3
983.3,301,23.3,18.6,75,13.85,80,9.8,297.8,338.2,300.3
982.7,307,23.2,18.5,75,13.80,80,9.8,297.9,338.1,300.3
982.1,312,23.2,18.5,75,13.75,80,9.8,297.9,338.0,300.3
981.4,318,23.1,18.4,75,13.70,80,9.7,297.9,337.8,300.3
980.8,324,23.1,18.3,74,13.63,80,9.7,297.9,337.6,300.3
980.2,329,23.1,18.3,74,13.59,81,9.7,297.9,337.5,300.3
979.5,335,23.0,18.2,74,13.55,81,9.7,297.9,337.4,300.3
978.9,341,22.9,18.1,74,13.51,81,9.7,297.9,337.3,300.3
978.3,346,22.9,18.1,74,13.44,81,9.6,297.9,337.1,300.3
977.7,351,22.9,18.0,74,13.38,82,9.6,298.0,337.0,300.3
977.1,357,22.9,18.0,74,13.38,82,9.6,298.0,337.0,300.4
976.5,362,22.8,18.0,74,13.46,82,9.6,298.0,337.2,300.4
976.0,367,22.7,18.2,76,13.62,82,9.6,298.0,337.7,300.4
975.4,372,22.7,18.4,77,13.78,83,9.6,297.9,338.1,300.4
974.8,378,22.6,18.5,77,13.84,83,9.6,297.9,338.2,300.4
974.2,383,22.5,18.4,78,13.81,83,9.6,297.9,338.2,300.4
973.6,388,22.5,18.4,78,13.78,84,9.6,297.9,338.1,300.3
973.0,393,22.4,18.4,78,13.78,84,9.6,297.9,338.1,300.4
972.4,399,22.4,18.4,78,13.82,84,9.6,297.9,338.2,300.4
971.8,404,22.3,18.4,78,13.83,85,9.6,297.9,338.2,300.4
971.3,409,22.3,18.3,79,13.79,85,9.6,297.9,338.1,300.3
970.7,414,22.2,18.3,78,13.76,85,9.6,297.9,338.0,300.3
970.1,419,22.2,18.3,79,13.77,85,9.7,297.9,338.0,300.3
969.5,425,22.1,18.4,79,13.84,86,9.7,297.9,338.2,300.3
968.9,430,22.0,18.5,80,13.93,86,9.7,297.9,338.5,300.4
968.4,435,22.0,18.6,81,14.03,86,9.8,297.8,338.7,300.3
967.8,441,21.9,18.6,82,14.10,86,9.8,297.8,338.9,300.3
967.2,446,21.9,18.6,82,14.11,87,9.9,297.8,338.9,300.3
966.6,451,21.8,18.6,82,14.08,87,9.9,297.8,338.9,300.3
966.0,457,21.8,18.5,82,14.04,87,10.0,297.8,338.8,300.3
965.4,462,21.7,18.5,82,13.99,87,10.0,297.9,338.6,300.4
964.8,467,21.7,18.4,82,13.97,88,10.1,297.9,338.6,300.3
964.2,473,21.6,18.4,82,13.96,88,10.1,297.9,338.5,300.3
963.6,478,21.6,18.4,82,13.97,88,10.2,297.9,338.6,300.4
963.0,483,21.5,18.4,82,13.98,88,10.2,297.9,338.6,300.4
962.5,488,21.5,18.4,83,13.95,89,10.3,297.8,338.5,300.3
961.9,494,21.4,18.3,83,13.91,89,10.4,297.8,338.4,300.3
961.3,499,21.4,18.3,83,13.88,89,10.4,297.8,338.3,300.3
960.7,505,21.3,18.3,83,13.90,89,10.5,297.9,338.4,300.3
960.0,510,21.3,18.3,83,13.95,89,10.5,297.9,338.5,300.4
959.4,516,21.2,18.3,84,13.97,90,10.5,297.9,338.6,300.4
958.8,521,21.1,18.3,84,13.95,90,10.6,297.8,338.5,300.3
958.2,527,21.1,18.3,84,13.90,90,10.6,297.8,338.4,300.3
957.6,532,21.0,18.2,84,13.87,90,10.6,297.9,338.3,300.3
957.0,538,21.0,18.1,84,13.82,90,10.6,297.9,338.1,300.3
956.4,543,21.0,18.0,83,13.72,91,10.6,297.9,337.9,300.3
955.8,549,20.9,17.9,83,13.59,91,10.6,297.9,337.6,300.3
955.2,555,20.9,17.7,82,13.46,91,10.6,297.9,337.2,300.4
954.6,560,20.9,17.4,80,13.19,91,10.6,298.0,336.4,300.3
954.0,565,20.9,16.9,78,12.76,91,10.6,298.0,335.3,300.3
953.4,571,21.0,16.3,75,12.32,91,10.5,298.1,334.2,300.4
952.8,576,21.0,15.8,72,11.93,92,10.5,298.3,333.2,300.4
952.3,581,21.1,15.6,71,11.75,92,10.5,298.3,332.7,300.4
951.7,586,21.0,15.7,71,11.86,92,10.4,298.4,333.1,300.5
951.2,591,21.0,16.1,74,12.17,92,10.4,298.4,334.0,300.5
950.6,596,20.9,16.4,75,12.41,92,10.3,298.3,334.6,300.5
950.0,601,20.8,16.2,75,12.30,92,10.2,298.2,334.2,300.4
949.5,606,20.7,15.8,73,11.97,92,10.2,298.3,333.3,300.4
948.9,611,20.8,15.3,71,11.62,92,10.1,298.4,332.4,300.5
948.4,616,20.8,15.0,69,11.40,92,10.1,298.5,331.9,300.5
947.9,621,20.8,14.9,69,11.34,92,10.0,298.5,331.8,300.5
947.3,626,20.8,15.0,69,11.36,93,9.9,298.5,331.8,300.6
946.8,631,20.8,15.0,69,11.38,93,9.9,298.5,331.9,300.6
946.3,636,20.7,15.0,70,11.38,93,9.8,298.5,331.9,300.6
945.7,641,20.7,14.9,70,11.36,93,9.7,298.6,331.9,300.6
945.1,646,20.7,14.8,69,11.29,93,9.7,298.6,331.7,300.6
944.6,651,20.6,14.6,68,11.12,93,9.6,298.6,331.3,300.6
944.0,656,20.6,14.3,67,10.92,93,9.6,298.7,330.7,300.6
943.4,662,20.7,14.1,66,10.75,93,9.5,298.7,330.3,300.7
942.8,667,20.6,13.9,65,10.64,93,9.5,298.8,330.1,300.7
942.2,673,20.6,13.8,65,10.57,93,9.4,298.8,329.9,300.7
941.6,678,20.6,13.7,65,10.54,93,9.4,298.9,329.9,300.8
941.0,684,20.6,13.7,65,10.55,93,9.4,298.9,329.9,300.8
940.4,689,20.6,13.7,65,10.56,93,9.3,298.9,330.0,300.8
939.8,695,20.5,13.7,65,10.57,93,9.3,298.9,330.0,300.8
939.3,700,20.5,13.8,65,10.60,93,9.3,298.9,330.1,300.8
938.7,705,20.4,13.8,66,10.64,92,9.2,298.9,330.2,300.8
938.1,711,20.4,13.8,66,10.66,92,9.2,298.9,330.3,300.8
937.5,716,20.3,13.8,66,10.66,92,9.2,298.9,330.3,300.8
937.0,721,20.3,13.8,66,10.65,92,9.2,298.9,330.2,300.8
936.5,726,20.2,13.8,66,10.62,92,9.1,298.9,330.2,300.8
935.9,731,20.2,13.7,67,10.62,92,9.1,298.9,330.2,300.8
935.4,735,20.1,13.7,67,10.62,92,9.1,298.9,330.2,300.8
934.9,740,20.1,13.8,67,10.64,91,9.1,298.9,330.2,300.8
934.3,745,20.0,13.8,67,10.67,91,9.0,298.9,330.3,300.9
933.8,750,20.0,13.8,68,10.69,91,9.0,298.9,330.4,300.9
933.2,756,19.9,13.8,68,10.70,91,9.0,298.9,330.4,300.9
932.6,761,19.9,13.8,68,10.69,91,8.9,298.9,330.4,300.9
932.0,767,19.8,13.8,68,10.68,90,8.9,298.9,330.4,300.9
931.4,772,19.8,13.7,68,10.67,90,8.9,298.9,330.3,300.9
930.8,778,19.7,13.8,68,10.69,90,8.9,299.0,330.4,300.9
930.2,784,19.7,13.8,69,10.72,89,8.8,299.0,330.5,300.9
929.6,790,19.6,13.8,69,10.76,89,8.8,299.0,330.6,300.9
928.9,795,19.6,13.9,70,10.79,89,8.7,299.0,330.7,300.9
928.3,801,19.5,13.9,70,10.79,88,8.7,299.0,330.7,300.9
927.7,807,19.5,13.9,70,10.79,88,8.7,299.0,330.7,300.9
927.1,813,19.4,13.8,70,10.78,88,8.6,299.0,330.7,300.9
926.5,818,19.4,13.8,70,10.77,87,8.6,299.0,330.7,300.9
925.9,824,19.3,13.7,70,10.73,87,8.6,299.0,330.6,300.9
925.3,830,19.3,13.6,70,10.65,87,8.5,299.0,330.4,300.9
925.0,832,19.3,13.6,69,10.62,86,8.5,299.0,330.3,300.9
924.7,835,19.3,13.5,69,10.57,86,8.5,299.0,330.2,300.9
924.1,840,19.3,13.4,69,10.51,86,8.4,299.1,330.0,301.0
923.5,846,19.2,13.4,69,10.50,86,8.4,299.1,330.0,301.0
923.0,851,19.2,13.4,69,10.51,85,8.4,299.1,330.1,301.0
922.4,856,19.1,13.4,69,10.52,85,8.3,299.1,330.1,301.0
921.8,861,19.1,13.4,69,10.52,85,8.3,299.1,330.1,301.0
921.3,867,19.0,13.3,70,10.50,84,8.3,299.1,330.1,301.0
920.7,872,19.0,13.3,70,10.50,84,8.2,299.1,330.0,301.0
920.1,877,18.9,13.3,70,10.51,83,8.2,299.1,330.1,301.0
919.5,883,18.9,13.3,70,10.53,83,8.2,299.1,330.1,301.0
919.0,888,18.8,13.3,70,10.52,83,8.2,299.1,330.1,301.0
918.4,894,18.8,13.3,70,10.50,83,8.2,299.1,330.0,301.0
917.8,900,18.8,13.2,70,10.41,82,8.1,299.1,329.8,301.0
917.2,905,18.7,13.0,69,10.29,82,8.1,299.2,329.5,301.0
916.6,911,18.7,12.8,68,10.18,82,8.1,299.2,329.3,301.1
916.0,916,18.7,12.7,68,10.13,82,8.2,299.3,329.2,301.1
915.4,922,18.7,12.7,68,10.14,81,8.2,299.3,329.2,301.2
914.8,927,18.7,12.7,68,10.16,81,8.2,299.3,329.3,301.2
914.2,933,18.6,12.7,69,10.17,81,8.2,299.3,329.3,301.2
913.7,938,18.6,12.7,69,10.17,81,8.2,299.3,329.3,301.2
913.1,943,18.5,12.7,69,10.17,81,8.3,299.3,329.3,301.2
912.6,949,18.5,12.7,69,10.17,80,8.3,299.3,329.3,301.2
912.0,954,18.4,12.7,69,10.15,80,8.3,299.3,329.3,301.2
911.4,959,18.4,12.7,69,10.14,80,8.4,299.3,329.3,301.2
910.9,964,18.3,12.6,70,10.14,80,8.4,299.3,329.3,301.2
910.3,970,18.3,12.7,70,10.17,80,8.5,299.3,329.3,301.2
909.7,975,18.2,12.7,70,10.18,80,8.5,299.3,329.4,301.2
909.2,981,18.2,12.6,70,10.16,80,8.5,299.3,329.3,301.2
908.6,986,18.1,12.6,70,10.12,80,8.6,299.3,329.2,301.2
908.0,991,18.1,12.5,70,10.08,80,8.6,299.3,329.1,301.2
907.5,996,18.0,12.5,70,10.07,80,8.6,299.3,329.1,301.2
906.9,1002,18.0,12.5,70,10.09,79,8.6,299.4,329.1,301.2
906.4,1007,17.9,12.5,71,10.12,79,8.7,299.4,329.2,301.2
905.8,1012,17.9,12.5,71,10.13,79,8.7,299.4,329.3,301.2
905.2,1018,17.8,12.5,71,10.14,79,8.6,299.4,329.3,301.2
904.7,1023,17.8,12.5,71,10.13,79,8.6,299.4,329.3,301.2
904.1,1028,17.7,12.5,71,10.12,79,8.6,299.4,329.2,301.2
903.5,1034,17.7,12.4,71,10.09,79,8.6,299.4,329.2,301.2
903.0,1039,17.6,12.4,72,10.08,79,8.5,299.4,329.1,301.2
902.4,1044,17.6,12.4,72,10.11,79,8.5,299.4,329.2,301.2
901.9,1049,17.5,12.5,72,10.13,79,8.4,299.4,329.3,301.2
901.4,1054,17.5,12.5,72,10.14,79,8.4,299.4,329.3,301.2
900.9,1059,17.4,12.5,73,10.16,79,8.3,299.4,329.4,301.2
900.4,1063,17.4,12.5,73,10.18,79,8.2,299.4,329.4,301.2
900.0,1068,17.4,12.6,73,10.21,79,8.1,299.4,329.5,301.2
899.5,1072,17.3,12.6,74,10.24,80,8.1,299.4,329.6,301.2
899.0,1077,17.3,12.6,74,10.25,80,8.0,299.4,329.7,301.3
898.5,1081,17.3,12.6,74,10.25,80,7.9,299.4,329.7,301.3
898.1,1086,17.2,12.6,74,10.25,80,7.8,299.4,329.7,301.3
897.6,1090,17.2,12.6,74,10.24,80,7.7,299.5,329.7,301.3
897.1,1095,17.2,12.5,74,10.23,80,7.7,299.5,329.7,301.3
896.6,1100,17.1,12.5,74,10.20,81,7.6,299.5,329.6,301.3
896.0,1105,17.1,12.3,73,10.09,81,7.5,299.5,329.3,301.3
895.5,1110,17.1,12.0,72,9.92,81,7.4,299.5,328.8,301.3
894.9,1116,17.1,11.8,71,9.73,81,7.4,299.6,328.3,301.3
894.4,1121,17.1,11.6,70,9.67,81,7.3,299.6,328.2,301.4
893.8,1126,17.1,11.8,71,9.80,82,7.2,299.7,328.6,301.4
893.3,1132,17.0,12.1,73,9.95,82,7.2,299.6,329.1,301.4
892.7,1137,16.9,12.1,73,10.01,82,7.1,299.7,329.2,301.5
892.2,1142,16.9,12.1,73,10.01,82,7.1,299.7,329.2,301.5
891.6,1147,16.9,12.1,74,10.00,82,7.1,299.7,329.2,301.5
891.1,1152,16.8,12.1,74,9.99,82,7.0,299.7,329.2,301.5
890.5,1158,16.8,12.0,73,9.94,82,7.0,299.7,329.1,301.5
890.0,1163,16.8,11.9,73,9.89,82,7.0,299.7,329.0,301.5
889.4,1169,16.7,11.8,73,9.85,82,7.0,299.8,328.9,301.5
888.8,1174,16.7,11.8,73,9.80,82,6.9,299.8,328.8,301.5
888.2,1180,16.7,11.6,72,9.72,82,6.9,299.8,328.6,301.6
887.6,1185,16.6,11.4,71,9.59,82,6.9,299.8,328.2,301.6
887.0,1191,16.6,11.2,70,9.43,82,6.9,299.9,327.8,301.6
886.4,1197,16.6,10.9,69,9.26,82,6.9,299.9,327.4,301.6
885.8,1203,16.6,10.7,68,9.14,82,6.9,299.9,327.1,301.6
885.2,1209,16.5,10.6,68,9.11,82,6.9,300.0,327.0,301.6
884.5,1215,16.5,10.6,68,9.12,82,6.9,300.0,327.1,301.6
883.9,1221,16.5,10.6,68,9.12,81,6.9,300.0,327.1,301.7
883.3,1227,16.4,10.5,68,9.08,81,6.9,300.0,327.0,301.7
882.7,1233,16.4,10.4,68,9.02,81,7.0,300.0,326.8,301.7
882.2,1238,16.4,10.3,67,8.96,81,7.0,300.1,326.7,301.7
881.6,1243,16.3,10.3,67,8.94,81,7.0,300.1,326.7,301.7
881.1,1249,16.3,10.2,67,8.92,80,7.1,300.1,326.6,301.7
880.5,1254,16.3,10.2,67,8.90,80,7.1,300.1,326.6,301.7
880.0,1259,16.2,10.2,67,8.90,80,7.1,300.1,326.6,301.7
879.4,1265,16.2,10.2,68,8.90,80,7.2,300.1,326.6,301.7
878.9,1270,16.1,10.2,68,8.90,80,7.3,300.1,326.6,301.7
878.3,1275,16.1,10.1,68,8.89,79,7.3,300.1,326.5,301.8
877.8,1281,16.0,10.1,68,8.85,79,7.4,300.1,326.4,301.7
877.2,1286,16.0,9.9,67,8.78,79,7.4,300.2,326.3,301.7
876.7,1291,16.0,9.8,67,8.69,78,7.5,300.2,326.0,301.7
876.2,1296,15.9,9.6,66,8.59,78,7.5,300.2,325.7,301.7
875.6,1301,15.9,9.5,66,8.53,78,7.6,300.2,325.6,301.8
875.1,1306,15.9,9.4,66,8.49,78,7.7,300.2,325.5,301.8
874.6,1311,15.8,9.3,65,8.45,77,7.7,300.2,325.4,301.8
874.1,1317,15.8,9.3,65,8.43,77,7.8,300.3,325.4,301.8
873.6,1322,15.8,9.3,65,8.43,77,7.8,300.3,325.4,301.8
873.0,1327,15.7,9.3,66,8.44,77,7.8,300.3,325.4,301.8
872.5,1332,15.7,9.3,66,8.46,76,7.9,300.3,325.5,301.8
872.0,1337,15.6,9.3,66,8.48,76,7.9,300.3,325.5,301.8
871.5,1342,15.5,9.3,66,8.48,76,7.9,300.3,325.5,301.8
870.9,1347,15.5,9.2,66,8.42,75,7.9,300.3,325.4,301.8
870.4,1352,15.5,9.1,66,8.35,75,7.9,300.3,325.2,301.8
869.9,1357,15.5,9.0,65,8.31,75,7.9,300.3,325.1,301.9
869.4,1362,15.4,9.0,65,8.29,75,7.8,300.3,325.0,301.8
868.8,1368,15.4,8.9,65,8.27,74,7.8,300.4,325.0,301.9
868.3,1373,15.3,8.9,65,8.25,74,7.8,300.4,325.0,301.9
867.7,1378,15.3,8.8,65,8.24,74,7.7,300.4,324.9,301.9
867.2,1384,15.3,8.8,65,8.24,74,7.7,300.4,324.9,301.9
866.6,1390,15.2,8.8,66,8.24,73,7.6,300.4,325.0,301.9
866.0,1395,15.2,8.8,66,8.25,73,7.5,300.4,325.0,301.9
865.4,1402,15.1,8.9,66,8.28,73,7.4,300.4,325.1,301.9
864.7,1408,15.0,8.9,67,8.31,73,7.4,300.4,325.2,301.9
864.1,1414,15.0,9.0,67,8.34,73,7.3,300.4,325.2,301.9
863.4,1421,14.9,9.0,68,8.37,73,7.2,300.4,325.3,301.9
862.7,1428,14.8,9.0,68,8.39,73,7.1,300.4,325.4,301.9
862.0,1434,14.7,9.0,68,8.38,73,7.0,300.4,325.3,301.9
861.4,1441,14.7,8.9,69,8.36,73,6.9,300.4,325.3,301.9
860.7,1448,14.6,8.9,68,8.32,73,6.9,300.4,325.1,301.9
860.0,1454,14.6,8.8,68,8.27,73,6.8,300.4,325.0,301.9
859.3,1461,14.5,8.8,68,8.27,73,6.7,300.4,325.1,301.9
858.6,1468,14.5,8.8,69,8.33,73,6.7,300.4,325.2,301.9
857.9,1475,14.4,8.9,70,8.40,74,6.6,300.4,325.4,301.9
857.2,1482,14.3,9.0,70,8.45,74,6.6,300.4,325.6,301.9
856.5,1489,14.2,9.0,71,8.46,74,6.5,300.4,325.6,301.9
855.7,1497,14.2,8.9,71,8.42,75,6.5,300.4,325.5,301.9
855.0,1504,14.1,8.7,70,8.30,75,6.5,300.4,325.1,301.9
854.3,1511,14.1,8.5,69,8.18,76,6.5,300.4,324.8,301.9
853.6,1518,14.0,8.4,69,8.13,76,6.5,300.4,324.7,301.9
852.9,1524,13.9,8.4,69,8.16,77,6.5,300.4,324.8,301.9
852.3,1530,13.9,8.5,70,8.19,77,6.5,300.4,324.8,301.9
851.7,1536,13.8,8.5,70,8.18,78,6.5,300.4,324.8,301.9
851.1,1542,13.8,8.5,70,8.19,79,6.6,300.4,324.9,301.9
850.5,1548,13.7,8.4,70,8.19,79,6.6,300.4,324.9,301.9
850.0,1553,13.7,8.4,70,8.16,79,6.6,300.4,324.8,301.9
849.4,1559,13.6,8.3,70,8.12,81,6.8,300.5,324.7,301.9
848.9,1564,13.6,8.2,70,8.07,82,6.9,300.5,324.5,301.9
848.3,1570,13.6,8.1,70,8.03,82,7.0,300.5,324.5,302.0
847.8,1575,13.5,8.1,70,8.02,83,7.1,300.5,324.5,302.0
847.2,1581,13.5,8.0,69,7.97,84,7.2,300.6,324.4,302.0
846.6,1587,13.5,7.8,68,7.87,85,7.4,300.6,324.1,302.0
846.0,1593,13.5,7.6,67,7.75,85,7.5,300.7,323.8,302.1
845.4,1599,13.5,7.3,66,7.62,86,7.7,300.7,323.5,302.1
844.8,1605,13.4,7.1,66,7.52,87,7.9,300.7,323.2,302.1
844.2,1611,13.4,6.9,65,7.43,88,8.0,300.7,323.0,302.1
843.6,1617,13.4,6.6,64,7.28,88,8.3,300.8,322.6,302.1
843.0,1623,13.5,6.1,61,7.01,89,8.5,301.0,322.0,302.2
842.4,1629,13.7,5.4,57,6.69,90,8.7,301.3,321.4,302.5
841.8,1635,14.0,4.9,54,6.46,91,8.9,301.6,321.1,302.8
841.2,1641,14.1,4.6,53,6.35,91,9.2,301.8,321.1,303.0
840.5,1648,14.2,4.6,52,6.33,92,9.4,301.9,321.1,303.1
839.9,1654,14.1,4.6,53,6.33,93,9.6,301.9,321.1,303.1
839.2,1661,14.1,4.5,52,6.29,93,9.9,302.0,321.0,303.1
838.6,1667,14.1,4.3,52,6.20,94,10.1,302.0,320.8,303.2
838.0,1674,14.1,3.9,50,6.04,94,10.4,302.1,320.5,303.2
837.3,1680,14.1,3.3,48,5.80,95,10.6,302.2,319.9,303.3
836.7,1686,14.2,2.4,45,5.43,96,10.8,302.4,319.0,303.4
836.1,1692,14.4,1.3,41,5.02,96,11.0,302.7,318.1,303.6
835.5,1698,14.6,0.4,38,4.72,97,11.2,303.0,317.5,303.8
834.9,1704,14.8,-0.1,36,4.56,97,11.4,303.1,317.2,304.0
834.4,1710,14.8,-0.5,35,4.43,98,11.6,303.2,316.9,304.0
833.8,1715,14.8,-1.1,33,4.24,98,11.7,303.3,316.5,304.1
833.3,1721,15.0,-1.8,31,4.02,99,11.8,303.5,316.0,304.2
832.7,1726,15.0,-2.2,30,3.90,99,12.0,303.7,315.8,304.4
832.2,1732,15.0,-2.2,30,3.90,99,12.0,303.7,315.9,304.4
831.7,1737,15.0,-2.0,31,3.96,100,12.1,303.7,316.0,304.4
831.2,1742,14.9,-2.0,31,3.97,100,12.2,303.7,316.0,304.4
830.7,1747,14.9,-2.3,31,3.89,101,12.2,303.7,315.9,304.4
830.2,1752,14.9,-2.6,30,3.80,101,12.2,303.8,315.7,304.5
829.8,1756,15.1,-3.0,29,3.70,101,12.2,304.0,315.6,304.7
829.3,1761,15.3,-3.5,27,3.57,102,12.2,304.3,315.5,304.9
828.8,1766,15.5,-4.0,26,3.43,102,12.1,304.5,315.3,305.2
828.4,1771,15.5,-4.3,25,3.36,102,12.1,304.6,315.2,305.2
827.9,1776,15.5,-4.4,25,3.32,102,12.0,304.7,315.2,305.3
827.4,1781,15.5,-4.5,25,3.31,102,12.0,304.7,315.2,305.3
826.9,1786,15.5,-4.5,25,3.31,103,11.9,304.8,315.3,305.4
826.4,1791,15.6,-4.5,25,3.32,103,11.8,304.9,315.4,305.5
825.9,1796,15.6,-4.4,25,3.35,103,11.8,304.9,315.5,305.5
825.4,1801,15.5,-4.2,25,3.40,103,11.7,304.9,315.7,305.6
824.9,1806,15.5,-4.0,26,3.46,103,11.6,304.9,315.9,305.6
824.5,1811,15.5,-3.8,26,3.51,103,11.6,305.0,316.0,305.6
824.0,1815,15.4,-3.5,27,3.57,103,11.5,305.0,316.2,305.6
823.5,1820,15.4,-3.3,28,3.65,102,11.5,305.0,316.5,305.7
823.1,1825,15.3,-3.0,28,3.73,102,11.4,305.0,316.7,305.7
822.6,1830,15.3,-2.8,29,3.78,102,11.4,305.0,316.8,305.7
822.0,1836,15.2,-2.9,29,3.75,102,11.3,305.0,316.8,305.7
821.5,1841,15.2,-3.4,28,3.63,102,11.3,305.0,316.4,305.7
820.9,1847,15.3,-4.3,26,3.39,101,11.3,305.2,315.9,305.8
820.4,1853,15.5,-5.4,23,3.13,101,11.3,305.4,315.3,306.0
819.8,1859,15.6,-5.9,22,3.00,101,11.3,305.6,315.1,306.1
819.2,1865,15.6,-6.1,22,2.96,100,11.3,305.6,315.1,306.2
818.7,1870,15.6,-6.2,22,2.94,100,11.2,305.7,315.1,306.2
818.1,1876,15.5,-6.3,22,2.92,100,11.2,305.7,315.1,306.3
817.6,1881,15.5,-6.3,22,2.92,99,11.2,305.8,315.1,306.3
817.1,1887,15.5,-6.3,22,2.91,99,11.2,305.8,315.1,306.3
816.6,1892,15.5,-6.4,22,2.91,99,11.2,305.8,315.1,306.4
816.1,1897,15.4,-6.4,22,2.90,98,11.2,305.8,315.1,306.4
815.5,1903,15.4,-6.4,22,2.90,98,11.2,305.9,315.1,306.4
815.0,1908,15.4,-6.5,22,2.89,97,11.2,305.9,315.1,306.4
814.5,1914,15.3,-6.6,21,2.87,97,11.1,305.9,315.1,306.4
813.9,1920,15.3,-6.7,21,2.85,97,11.1,306.0,315.1,306.5
813.4,1925,15.3,-6.8,21,2.82,96,11.1,306.0,315.0,306.5
812.8,1931,15.3,-6.9,21,2.80,96,11.1,306.0,315.0,306.5
812.3,1936,15.3,-7.0,21,2.79,95,11.0,306.1,315.0,306.6
811.8,1942,15.2,-7.1,21,2.78,95,11.0,306.1,315.0,306.6
811.3,1947,15.2,-7.1,21,2.77,94,11.0,306.1,315.0,306.6
810.8,1952,15.2,-7.2,21,2.76,94,11.0,306.1,315.0,306.7
810.3,1957,15.2,-7.2,21,2.75,94,11.0,306.2,315.0,306.7
809.8,1963,15.1,-7.3,21,2.74,93,11.0,306.2,315.0,306.7
809.3,1968,15.1,-7.3,21,2.73,93,11.0,306.2,315.0,306.7
808.7,1974,15.1,-7.4,21,2.72,92,11.0,306.2,315.0,306.7
808.2,1979,15.0,-7.4,21,2.71,92,11.0,306.3,315.0,306.8
807.7,1985,15.0,-7.5,20,2.70,91,11.0,306.3,314.9,306.8
807.1,1990,15.0,-7.6,20,2.68,91,11.0,306.3,314.9,306.8
806.6,1996,15.0,-7.6,20,2.67,91,11.1,306.4,314.9,306.9
806.1,2001,14.9,-7.6,20,2.67,90,11.1,306.4,315.0,306.9
805.6,2006,14.9,-7.6,20,2.67,90,11.2,306.4,315.0,306.9
805.1,2011,14.9,-7.6,20,2.68,90,11.2,306.4,315.0,306.9
