PRES,HGHT,TEMP,DWPT,RELH,MIXR,DRCT,SPED,THTA,THTE,THTV
1011.8,31,23.7,20.9,84,15.52,30,3.8,295.9,340.7,298.6
1011.1,36,25.0,21.7,82,16.37,18,2.1,297.2,344.7,300.1
1010.7,40,23.5,21.2,87,15.92,15,2.0,295.8,341.7,298.6
1009.8,48,22.8,21.1,90,15.78,16,2.1,295.1,340.5,297.9
1009.2,53,22.5,20.9,91,15.64,17,2.3,294.8,339.8,297.6
1008.5,59,22.4,20.9,91,15.57,19,2.4,294.9,339.6,297.6
1007.9,64,22.5,20.7,90,15.45,20,2.6,294.9,339.4,297.7
1007.3,70,22.3,20.3,89,15.09,21,2.8,294.9,338.3,297.5
1006.7,75,22.2,20.1,88,14.83,22,2.9,294.8,337.4,297.4
1006.1,80,22.2,19.9,87,14.72,23,3.1,294.8,337.1,297.4
1005.6,85,22.2,19.9,87,14.67,24,3.2,294.8,337.0,297.4
1005.0,90,22.1,19.8,87,14.62,25,3.4,294.8,336.9,297.4
1004.4,95,22.1,19.8,87,14.60,26,3.5,294.8,336.8,297.4
1003.8,100,22.0,19.7,87,14.58,27,3.6,294.8,336.8,297.4
1003.2,105,22.0,19.7,87,14.56,28,3.7,294.8,336.7,297.4
1002.6,111,21.9,19.7,87,14.59,29,3.8,294.9,336.8,297.4
1002.0,116,21.9,19.8,88,14.64,30,3.9,294.8,336.9,297.4
1001.4,121,21.8,19.8,88,14.65,30,4.0,294.8,336.9,297.4
1000.8,126,21.7,19.8,89,14.66,31,4.0,294.8,337.0,297.4
1000.1,132,21.7,19.8,89,14.68,32,4.1,294.8,337.0,297.4
1000.0,133,21.7,19.8,89,14.68,33,4.1,294.8,337.0,297.4
999.5,137,21.6,19.8,89,14.66,33,4.1,294.8,336.9,297.4
998.9,142,21.6,19.7,89,14.62,34,4.1,294.8,336.8,297.4
998.3,148,21.5,19.7,89,14.60,34,4.1,294.8,336.8,297.4
997.7,153,21.5,19.7,90,14.65,35,4.1,294.8,337.0,297.4
997.1,158,21.4,19.7,90,14.68,36,4.1,294.8,337.0,297.4
996.5,163,21.4,19.7,90,14.65,37,4.1,294.8,336.9,297.4
995.9,168,21.3,19.7,90,14.67,38,4.0,294.8,337.0,297.4
995.4,173,21.3,19.8,91,14.74,39,3.9,294.8,337.2,297.4
994.8,178,21.3,19.8,91,14.75,40,3.9,294.8,337.3,297.4
994.3,183,21.2,19.8,91,14.74,41,3.8,294.8,337.2,297.4
993.8,187,21.2,19.8,92,14.77,42,3.7,294.8,337.3,297.5
993.2,192,21.1,19.8,92,14.79,43,3.6,294.8,337.4,297.5
992.7,197,21.1,19.8,92,14.78,44,3.4,294.9,337.3,297.5
992.1,202,21.1,19.8,92,14.77,46,3.3,294.9,337.3,297.5
991.6,207,21.0,19.7,92,14.73,47,3.2,294.9,337.2,297.5
991.0,211,21.1,19.7,92,14.70,49,3.0,295.0,337.3,297.6
990.4,216,21.1,19.6,91,14.66,51,2.9,295.1,337.3,297.7
989.9,222,21.1,19.6,91,14.65,53,2.7,295.1,337.3,297.7
989.3,227,21.1,19.6,91,14.67,55,2.5,295.2,337.4,297.7
988.7,232,21.1,19.6,91,14.68,58,2.4,295.2,337.4,297.8
988.1,237,21.1,19.6,91,14.68,61,2.2,295.2,337.5,297.8
987.4,243,21.0,19.6,92,14.68,65,2.1,295.2,337.5,297.8
986.8,248,21.0,19.6,92,14.70,69,1.9,295.2,337.6,297.8
986.2,254,20.9,19.6,92,14.67,75,1.8,295.2,337.5,297.8
985.6,259,20.9,19.5,92,14.66,81,1.7,295.2,337.4,297.8
984.9,265,20.8,19.5,92,14.67,88,1.6,295.2,337.5,297.8
984.3,271,20.7,19.5,93,14.66,96,1.5,295.2,337.4,297.8
983.6,277,20.7,19.5,93,14.67,104,1.5,295.2,337.5,297.8
983.0,282,20.7,19.5,93,14.68,113,1.5,295.3,337.5,297.9
982.3,288,20.8,19.5,93,14.72,122,1.5,295.4,337.8,298.0
981.7,293,20.8,19.5,92,14.70,130,1.6,295.5,337.9,298.1
981.1,298,20.8,19.5,92,14.66,137,1.7,295.5,337.8,298.1
980.6,304,20.7,19.4,92,14.65,142,1.9,295.5,337.8,298.1
980.0,308,20.7,19.5,93,14.70,147,2.0,295.6,338.0,298.2
979.5,313,20.8,19.5,93,14.74,151,2.2,295.6,338.2,298.3
978.9,318,20.8,19.5,92,14.73,155,2.4,295.7,338.2,298.3
978.4,323,20.8,19.5,92,14.70,157,2.5,295.8,338.2,298.4
977.8,328,20.8,19.4,92,14.69,160,2.7,295.8,338.2,298.4
977.3,333,20.8,19.4,92,14.63,161,2.9,295.8,338.1,298.4
976.7,338,20.7,19.3,91,14.56,163,3.1,295.9,337.9,298.4
976.2,343,20.8,19.3,91,14.56,164,3.3,296.0,338.0,298.5
975.6,348,20.8,19.3,91,14.58,165,3.5,296.1,338.2,298.7
975.0,353,20.9,19.3,91,14.60,166,3.6,296.2,338.4,298.7
974.4,358,20.8,19.3,91,14.57,166,3.8,296.2,338.3,298.8
973.9,363,20.8,19.2,91,14.53,167,3.9,296.2,338.2,298.8
973.3,368,20.8,19.1,90,14.44,167,4.1,296.2,338.0,298.8
972.7,373,20.9,19.0,89,14.36,167,4.2,296.3,337.9,298.9
972.2,378,20.9,18.9,88,14.27,167,4.3,296.4,337.7,299.0
971.7,383,20.9,18.9,88,14.25,168,4.4,296.4,337.7,299.0
971.1,387,20.8,18.9,89,14.29,168,4.5,296.4,337.8,299.0
970.6,392,20.8,19.0,89,14.36,168,4.6,296.4,338.0,299.0
970.1,397,20.7,19.0,90,14.40,168,4.7,296.4,338.1,299.0
969.6,401,20.7,19.0,90,14.38,168,4.7,296.4,338.1,299.0
969.1,406,20.6,18.9,90,14.34,168,4.8,296.4,338.0,299.0
968.6,410,20.6,18.9,90,14.29,168,4.8,296.4,337.8,299.0
968.1,415,20.6,18.8,90,14.25,168,4.8,296.5,337.7,299.0
967.6,419,20.6,18.7,89,14.21,167,4.9,296.5,337.6,299.0
967.1,424,20.5,18.7,89,14.17,167,4.9,296.5,337.5,299.0
966.6,428,20.5,18.6,89,14.13,167,4.9,296.5,337.4,299.0
966.1,433,20.5,18.6,89,14.10,167,4.9,296.5,337.4,299.0
965.6,437,20.4,18.5,89,14.02,167,4.9,296.5,337.2,299.0
965.1,441,20.4,18.4,88,13.89,167,4.9,296.6,336.8,299.0
964.7,445,20.4,18.2,87,13.77,167,4.9,296.6,336.5,299.0
964.2,449,20.4,18.1,87,13.71,167,4.9,296.6,336.4,299.1
963.8,453,20.4,18.1,87,13.69,167,4.9,296.7,336.4,299.1
963.4,457,20.4,18.1,87,13.69,167,4.9,296.7,336.4,299.1
962.9,461,20.4,18.1,87,13.70,167,5.0,296.7,336.4,299.1
962.5,465,20.3,18.1,87,13.72,167,5.0,296.7,336.5,299.1
962.1,469,20.3,18.1,87,13.75,167,5.0,296.7,336.6,299.1
961.6,473,20.3,18.2,88,13.77,167,5.0,296.7,336.6,299.1
961.2,477,20.2,18.2,88,13.77,167,5.0,296.7,336.6,299.1
960.7,481,20.2,18.2,88,13.79,167,5.0,296.7,336.7,299.2
960.2,486,20.1,18.2,88,13.80,167,5.1,296.7,336.7,299.2
959.7,490,20.1,18.1,89,13.78,167,5.1,296.7,336.7,299.2
959.1,495,20.1,18.1,88,13.73,167,5.1,296.7,336.5,299.2
958.6,500,20.0,17.9,88,13.62,167,5.2,296.8,336.3,299.2
958.1,505,20.0,17.8,87,13.51,167,5.2,296.8,336.0,299.2
957.6,509,20.0,17.7,86,13.42,167,5.2,296.8,335.8,299.2
957.0,514,20.0,17.6,86,13.35,167,5.2,296.9,335.6,299.2
956.5,519,20.0,17.5,86,13.30,167,5.3,296.9,335.5,299.3
956.0,523,20.0,17.5,86,13.29,167,5.3,296.9,335.5,299.3
955.5,528,19.9,17.5,86,13.31,168,5.3,296.9,335.6,299.3
955.0,533,19.9,17.5,86,13.33,168,5.4,296.9,335.6,299.3
954.5,537,19.8,17.5,87,13.33,168,5.4,296.9,335.6,299.3
954.0,542,19.8,17.5,87,13.32,169,5.4,296.9,335.6,299.3
953.5,546,19.8,17.5,87,13.31,169,5.4,296.9,335.6,299.3
953.0,551,19.8,17.5,87,13.30,170,5.5,297.0,335.6,299.3
952.5,555,19.7,17.5,87,13.30,170,5.5,297.0,335.6,299.3
952.0,560,19.7,17.5,87,13.33,171,5.5,297.0,335.7,299.3
951.5,564,19.6,17.5,87,13.33,171,5.6,297.0,335.7,299.3
950.9,569,19.6,17.5,88,13.31,172,5.6,297.0,335.6,299.3
950.4,574,19.5,17.4,88,13.28,172,5.6,297.0,335.5,299.3
949.8,580,19.5,17.4,87,13.24,173,5.7,297.0,335.4,299.3
949.2,585,19.5,17.3,87,13.20,173,5.7,297.0,335.3,299.4
948.7,590,19.4,17.2,87,13.15,174,5.8,297.0,335.2,299.4
948.1,595,19.4,17.2,87,13.13,174,5.8,297.0,335.2,299.4
947.5,600,19.4,17.1,87,13.09,175,5.9,297.1,335.1,299.4
947.0,605,19.3,17.1,87,13.07,175,5.9,297.1,335.0,299.4
946.4,610,19.3,17.1,87,13.07,175,6.0,297.1,335.1,299.4
945.9,615,19.3,17.0,87,13.02,176,6.1,297.1,335.0,299.4
945.4,620,19.2,16.9,86,12.93,176,6.1,297.1,334.7,299.4
944.8,625,19.2,16.9,86,12.89,176,6.2,297.2,334.6,299.5
944.3,630,19.2,16.8,86,12.89,176,6.3,297.2,334.6,299.5
943.8,635,19.1,16.8,86,12.87,176,6.3,297.2,334.6,299.4
943.3,639,19.1,16.7,86,12.79,176,6.4,297.2,334.4,299.4
942.7,644,19.1,16.5,85,12.63,176,6.4,297.2,333.9,299.5
942.2,649,19.1,16.2,83,12.40,176,6.5,297.3,333.4,299.5
941.7,654,19.2,16.1,82,12.28,176,6.6,297.4,333.2,299.6
941.2,658,19.2,16.1,82,12.28,176,6.6,297.4,333.2,299.6
940.7,663,19.1,16.0,82,12.27,176,6.7,297.4,333.2,299.6
940.2,668,19.1,16.0,82,12.28,176,6.7,297.5,333.2,299.6
939.7,672,19.1,16.1,83,12.30,175,6.7,297.5,333.3,299.7
939.2,676,19.0,16.1,83,12.32,175,6.8,297.5,333.4,299.7
938.7,681,19.0,16.0,83,12.31,175,6.8,297.5,333.3,299.7
938.3,685,19.0,16.0,83,12.28,175,6.8,297.5,333.3,299.7
937.8,689,18.9,15.9,83,12.24,174,6.8,297.5,333.2,299.7
937.4,693,18.9,15.9,83,12.21,174,6.9,297.5,333.1,299.7
936.9,697,18.9,15.9,83,12.20,174,6.9,297.5,333.1,299.7
936.5,701,18.9,15.8,83,12.17,173,6.9,297.5,333.0,299.7
936.1,705,18.8,15.8,83,12.16,173,6.9,297.5,333.0,299.7
935.6,709,18.8,15.8,83,12.14,172,6.9,297.6,333.0,299.7
935.2,713,18.8,15.8,83,12.15,172,6.9,297.6,333.0,299.7
934.7,717,18.7,15.8,83,12.15,172,6.9,297.6,333.0,299.7
934.3,722,18.7,15.7,83,12.13,171,6.8,297.6,333.0,299.8
933.8,726,18.7,15.7,82,12.07,171,6.8,297.6,332.8,299.8
933.3,730,18.7,15.6,82,12.03,170,6.8,297.7,332.8,299.8
932.8,735,18.7,15.6,82,12.01,170,6.8,297.7,332.7,299.8
932.3,740,18.6,15.5,82,12.00,169,6.8,297.7,332.7,299.8
931.8,744,18.6,15.5,82,11.96,169,6.8,297.7,332.6,299.8
931.4,749,18.6,15.4,82,11.93,168,6.7,297.7,332.5,299.8
930.9,753,18.5,15.4,82,11.91,167,6.7,297.7,332.5,299.8
930.4,757,18.5,15.4,82,11.91,167,6.7,297.7,332.5,299.8
929.9,762,18.5,15.4,82,11.93,166,6.7,297.7,332.6,299.9
929.5,766,18.4,15.4,83,11.94,165,6.7,297.7,332.6,299.9
929.0,770,18.4,15.4,83,11.92,164,6.7,297.7,332.6,299.9
928.6,774,18.4,15.4,83,11.90,164,6.7,297.8,332.5,299.9
928.1,779,18.4,15.3,83,11.89,163,6.7,297.8,332.5,299.9
927.7,783,18.3,15.3,82,11.86,162,6.7,297.8,332.4,299.9
927.2,787,18.3,15.2,82,11.83,161,6.7,297.8,332.4,299.9
926.8,791,18.3,15.2,82,11.80,160,6.7,297.8,332.3,300.0
926.3,796,18.3,15.2,82,11.79,160,6.7,297.8,332.3,300.0
925.8,800,18.2,15.1,82,11.76,159,6.8,297.9,332.2,300.0
925.3,805,18.2,15.1,82,11.73,158,6.8,297.9,332.1,300.0
925.0,807,18.2,15.1,82,11.72,158,6.8,297.9,332.1,300.0
924.8,809,18.2,15.1,82,11.71,158,6.9,297.9,332.1,300.0
924.3,814,18.1,15.0,82,11.70,157,6.9,297.9,332.1,300.0
923.8,819,18.1,15.0,82,11.70,157,7.0,297.9,332.1,300.0
923.2,824,18.0,15.0,82,11.69,156,7.0,297.9,332.1,300.0
922.7,829,18.0,14.9,82,11.65,156,7.1,297.9,332.0,300.0
922.2,834,18.0,14.9,82,11.62,156,7.2,297.9,331.9,300.0
921.7,838,17.9,14.8,82,11.57,156,7.2,298.0,331.8,300.0
921.2,843,17.9,14.7,81,11.49,156,7.3,298.0,331.6,300.0
920.7,848,17.9,14.5,80,11.36,156,7.4,298.0,331.3,300.1
920.2,853,18.0,14.4,80,11.27,156,7.4,298.1,331.1,300.1
919.7,857,18.0,14.3,79,11.21,156,7.5,298.2,331.0,300.2
919.2,862,18.0,14.2,79,11.17,156,7.6,298.2,330.9,300.2
918.7,867,17.9,14.2,79,11.12,156,7.6,298.2,330.8,300.2
918.1,871,17.9,14.1,78,11.06,157,7.7,298.2,330.7,300.2
917.6,876,17.9,14.0,78,11.00,157,7.7,298.2,330.5,300.2
917.1,881,17.8,13.9,77,10.92,157,7.8,298.3,330.3,300.2
916.5,887,17.8,13.8,77,10.85,157,7.8,298.3,330.1,300.3
915.9,892,17.8,13.7,77,10.83,158,7.9,298.4,330.1,300.3
915.3,898,17.8,13.7,77,10.80,158,7.9,298.4,330.1,300.3
914.7,903,17.8,13.5,76,10.71,158,7.9,298.4,329.9,300.4
914.1,909,17.8,13.3,75,10.58,158,8.0,298.5,329.6,300.4
913.5,914,17.8,13.2,74,10.48,158,8.0,298.6,329.4,300.5
913.0,920,17.8,13.1,74,10.41,159,8.0,298.6,329.2,300.5
912.4,925,17.8,13.0,74,10.37,159,8.0,298.7,329.1,300.5
911.9,930,17.8,13.0,74,10.36,159,8.0,298.7,329.2,300.5
911.4,935,17.7,13.0,74,10.38,159,8.0,298.7,329.2,300.5
910.9,940,17.7,13.0,74,10.40,158,8.0,298.7,329.3,300.6
910.4,944,17.6,13.1,75,10.44,158,8.0,298.7,329.4,300.5
909.8,949,17.6,13.1,75,10.47,158,8.0,298.7,329.4,300.6
909.3,954,17.5,13.1,75,10.48,158,8.0,298.7,329.5,300.5
908.8,959,17.4,13.1,76,10.51,157,8.0,298.6,329.5,300.5
908.3,963,17.4,13.2,76,10.56,157,8.0,298.6,329.6,300.5
907.8,968,17.3,13.2,77,10.59,156,8.0,298.6,329.7,300.5
907.3,973,17.3,13.2,77,10.56,156,8.0,298.6,329.6,300.5
906.8,978,17.2,13.1,77,10.50,155,8.0,298.6,329.5,300.5
906.3,982,17.2,13.0,76,10.43,155,8.0,298.7,329.3,300.5
905.8,987,17.2,12.9,76,10.39,154,8.0,298.7,329.3,300.6
905.3,992,17.2,12.9,76,10.39,153,8.0,298.7,329.3,300.6
904.8,997,17.1,12.9,76,10.40,153,8.0,298.7,329.3,300.6
904.3,1002,17.1,12.9,76,10.39,152,8.0,298.7,329.3,300.6
903.8,1007,17.0,12.9,77,10.40,152,7.9,298.7,329.3,300.6
903.2,1012,17.0,12.9,77,10.40,151,7.9,298.7,329.3,300.6
902.7,1017,16.9,12.9,77,10.39,151,7.9,298.7,329.2,300.6
902.1,1022,16.9,12.9,77,10.40,150,7.9,298.7,329.3,300.6
901.6,1027,16.8,12.9,78,10.43,150,7.8,298.7,329.3,300.6
901.0,1033,16.8,12.9,78,10.45,150,7.8,298.7,329.4,300.6
900.5,1038,16.7,12.9,78,10.44,150,7.8,298.7,329.4,300.6
899.9,1043,16.7,12.9,78,10.41,150,7.7,298.7,329.3,300.6
899.4,1048,16.7,12.8,78,10.39,150,7.7,298.7,329.2,300.6
898.9,1053,16.6,12.8,78,10.36,150,7.7,298.7,329.2,300.6
898.4,1057,16.6,12.7,78,10.34,150,7.6,298.7,329.1,300.6
897.9,1062,16.6,12.7,78,10.31,150,7.6,298.8,329.1,300.6
897.4,1066,16.5,12.6,78,10.27,151,7.5,298.8,329.0,300.6
897.0,1071,16.5,12.6,77,10.24,151,7.4,298.8,328.9,300.6
896.5,1075,16.5,12.5,77,10.23,152,7.4,298.8,328.9,300.7
896.0,1080,16.4,12.5,77,10.21,152,7.3,298.8,328.9,300.7
895.6,1084,16.4,12.5,77,10.19,153,7.3,298.8,328.8,300.6
895.1,1089,16.4,12.4,77,10.16,154,7.2,298.8,328.7,300.7
894.6,1093,16.3,12.3,77,10.13,155,7.1,298.9,328.7,300.7
894.1,1098,16.3,12.3,77,10.11,156,7.1,298.9,328.6,300.7
893.6,1103,16.3,12.3,77,10.11,157,7.0,298.9,328.6,300.7
893.1,1108,16.2,12.3,78,10.13,158,6.9,298.9,328.7,300.7
892.6,1113,16.2,12.4,78,10.17,159,6.9,298.9,328.8,300.7
892.0,1118,16.1,12.4,79,10.20,160,6.8,298.9,328.9,300.7
891.5,1123,16.1,12.4,79,10.21,161,6.8,298.9,328.9,300.7
891.0,1128,16.0,12.4,79,10.21,162,6.7,298.9,328.9,300.7
890.4,1133,16.0,12.3,79,10.18,163,6.7,298.9,328.8,300.7
889.9,1138,15.9,12.2,79,10.11,164,6.7,298.9,328.6,300.7
889.4,1143,15.9,12.2,79,10.06,165,6.6,298.9,328.5,300.7
888.9,1148,15.9,12.1,78,10.04,166,6.6,298.9,328.5,300.7
888.4,1152,15.8,12.1,79,10.04,167,6.6,298.9,328.5,300.7
888.0,1157,15.8,12.1,79,10.07,168,6.6,298.9,328.5,300.7
887.5,1161,15.7,12.2,80,10.11,168,6.6,298.9,328.6,300.7
887.1,1166,15.7,12.2,80,10.13,169,6.6,298.9,328.7,300.7
886.6,1170,15.6,12.2,80,10.12,169,6.6,298.9,328.7,300.7
886.2,1174,15.6,12.2,80,10.11,170,6.6,298.9,328.7,300.7
885.8,1178,15.6,12.2,80,10.11,170,6.6,298.9,328.6,300.7
885.3,1182,15.5,12.1,80,10.10,170,6.6,298.9,328.6,300.7
884.9,1186,15.5,12.1,80,10.09,170,6.7,298.9,328.6,300.7
884.4,1191,15.4,12.1,80,10.08,170,6.7,298.9,328.6,300.7
884.0,1195,15.4,12.1,81,10.07,170,6.7,298.9,328.5,300.7
883.5,1200,15.4,12.0,81,10.05,170,6.8,298.9,328.5,300.7
883.0,1204,15.3,12.0,81,10.05,170,6.8,298.9,328.5,300.7
882.6,1209,15.3,12.0,81,10.05,170,6.9,298.9,328.5,300.7
882.1,1213,15.2,12.0,81,10.05,170,6.9,298.9,328.5,300.7
881.6,1218,15.2,12.0,81,10.05,170,7.0,298.9,328.5,300.7
881.1,1223,15.1,12.0,82,10.05,170,7.0,298.9,328.5,300.7
880.7,1227,15.1,12.0,82,10.06,170,7.1,298.9,328.5,300.7
880.2,1232,15.0,12.0,82,10.07,170,7.1,298.9,328.5,300.7
879.7,1236,15.0,12.0,82,10.08,170,7.1,298.9,328.6,300.7
879.2,1241,15.0,12.0,82,10.08,170,7.1,298.9,328.6,300.7
878.8,1246,14.9,12.0,83,10.08,170,7.2,298.9,328.6,300.7
878.3,1250,14.9,12.0,83,10.08,170,7.2,298.9,328.6,300.7
877.8,1255,14.8,12.0,83,10.08,170,7.1,298.9,328.6,300.7
877.3,1260,14.8,12.0,83,10.08,170,7.1,298.9,328.6,300.7
876.8,1265,14.7,11.9,83,10.06,170,7.1,298.9,328.5,300.7
876.3,1270,14.7,11.9,83,10.02,170,7.1,298.9,328.4,300.7
875.8,1274,14.7,11.8,83,10.01,170,7.0,298.9,328.4,300.7
875.3,1279,14.6,11.8,83,9.99,170,6.9,298.9,328.4,300.7
874.8,1284,14.6,11.8,83,9.99,171,6.9,298.9,328.3,300.7
874.3,1289,14.5,11.8,84,9.98,171,6.8,298.9,328.3,300.7
873.8,1294,14.5,11.8,84,9.98,171,6.7,298.9,328.3,300.7
873.3,1299,14.4,11.8,84,10.00,171,6.6,298.9,328.4,300.7
872.7,1304,14.4,11.8,85,10.03,171,6.4,298.9,328.5,300.8
872.2,1308,14.3,11.8,85,10.02,171,6.3,298.9,328.4,300.7
871.8,1313,14.3,11.7,85,9.98,171,6.2,298.9,328.3,300.7
871.3,1318,14.3,11.7,84,9.94,171,6.1,299.0,328.2,300.7
870.8,1323,14.2,11.6,84,9.92,171,6.0,299.0,328.2,300.8
870.3,1327,14.2,11.6,84,9.90,171,5.8,299.0,328.1,300.8
869.8,1332,14.2,11.5,84,9.85,171,5.7,299.0,328.0,300.8
869.4,1337,14.1,11.5,84,9.82,171,5.6,299.0,328.0,300.8
868.9,1341,14.1,11.4,84,9.82,171,5.5,299.0,328.0,300.8
868.3,1346,14.1,11.4,84,9.83,172,5.4,299.0,328.0,300.8
867.8,1352,14.0,11.4,84,9.82,172,5.3,299.0,328.0,300.8
867.3,1357,14.0,11.4,84,9.79,172,5.2,299.0,327.9,300.8
866.8,1362,13.9,11.3,84,9.76,172,5.1,299.0,327.8,300.8
866.2,1367,13.9,11.3,84,9.75,172,5.1,299.1,327.8,300.8
865.7,1372,13.8,11.3,84,9.75,172,5.0,299.1,327.8,300.8
865.2,1377,13.8,11.3,85,9.76,173,5.0,299.1,327.8,300.8
864.7,1382,13.8,11.2,85,9.74,173,4.9,299.1,327.8,300.8
864.2,1387,13.7,11.2,85,9.69,173,4.9,299.1,327.7,300.8
863.7,1392,13.7,11.1,84,9.66,174,4.9,299.1,327.6,300.9
863.2,1397,13.7,11.1,85,9.66,175,4.9,299.1,327.6,300.9
862.7,1402,13.6,11.1,85,9.67,175,5.0,299.1,327.7,300.9
862.2,1407,13.6,11.1,85,9.67,176,5.0,299.1,327.7,300.9
861.6,1412,13.5,11.1,85,9.67,177,5.0,299.1,327.7,300.9
861.1,1417,13.5,11.1,85,9.65,178,5.1,299.1,327.6,300.9
860.6,1422,13.4,11.0,86,9.65,179,5.2,299.1,327.6,300.9
860.1,1427,13.4,11.0,86,9.65,180,5.2,299.1,327.6,300.9
859.6,1432,13.3,11.0,86,9.65,181,5.3,299.1,327.6,300.9
859.0,1437,13.3,11.0,86,9.65,182,5.4,299.1,327.6,300.9
858.5,1443,13.2,11.0,86,9.64,183,5.5,299.2,327.6,300.9
857.9,1448,13.2,11.0,86,9.63,184,5.6,299.2,327.6,300.9
857.4,1454,13.1,10.9,87,9.62,185,5.7,299.2,327.6,300.9
856.8,1459,13.1,10.9,87,9.62,186,5.8,299.2,327.6,300.9
856.3,1465,13.1,10.9,87,9.62,187,5.9,299.2,327.6,300.9
855.7,1470,13.0,10.9,87,9.63,188,6.0,299.2,327.6,300.9
855.2,1475,13.0,11.0,88,9.66,189,6.0,299.2,327.7,300.9
854.7,1480,12.9,11.0,88,9.68,189,6.1,299.2,327.8,300.9
854.2,1485,12.9,11.0,88,9.69,190,6.2,299.2,327.8,301.0
853.8,1489,12.9,10.9,88,9.66,190,6.2,299.2,327.7,301.0
853.3,1494,12.8,10.8,88,9.60,191,6.3,299.3,327.6,301.0
852.8,1499,12.8,10.7,87,9.52,191,6.3,299.3,327.4,301.0
852.3,1504,12.8,10.5,86,9.42,191,6.3,299.3,327.2,301.0
851.8,1509,12.8,10.4,85,9.35,191,6.3,299.4,327.0,301.1
851.3,1514,12.8,10.3,85,9.31,191,6.4,299.4,326.9,301.1
850.8,1518,12.8,10.3,85,9.27,191,6.3,299.4,326.9,301.1
850.3,1523,12.8,10.2,84,9.24,191,6.3,299.5,326.8,301.1
850.0,1527,12.8,10.2,84,9.21,191,6.3,299.5,326.7,301.2
849.9,1528,12.8,10.1,84,9.20,191,6.3,299.5,326.7,301.2
849.4,1533,12.8,10.1,84,9.16,191,6.3,299.5,326.7,301.2
848.9,1538,12.7,10.0,84,9.14,190,6.2,299.6,326.6,301.2
848.4,1543,12.7,10.0,84,9.15,190,6.2,299.6,326.7,301.3
847.9,1548,12.7,10.1,84,9.17,189,6.1,299.6,326.8,301.3
847.4,1553,12.6,10.1,85,9.18,189,6.1,299.6,326.8,301.3
846.9,1557,12.6,10.1,85,9.19,188,6.0,299.6,326.8,301.3
846.4,1562,12.5,10.1,85,9.19,187,6.0,299.6,326.8,301.3
845.9,1567,12.5,10.1,85,9.19,187,5.9,299.6,326.8,301.3
845.5,1571,12.5,10.0,85,9.16,186,5.8,299.6,326.8,301.3
845.1,1576,12.4,10.0,85,9.16,185,5.8,299.6,326.8,301.3
844.6,1580,12.4,10.0,85,9.18,185,5.8,299.6,326.8,301.3
844.2,1584,12.3,10.0,86,9.19,184,5.7,299.6,326.9,301.3
843.8,1588,12.3,10.0,86,9.20,183,5.7,299.7,326.9,301.3
843.4,1592,12.3,10.1,86,9.21,183,5.7,299.7,326.9,301.3
843.0,1596,12.2,10.0,86,9.21,182,5.6,299.7,326.9,301.3
842.6,1600,12.2,10.0,86,9.19,182,5.6,299.6,326.9,301.3
842.2,1604,12.2,9.9,86,9.15,182,5.6,299.6,326.7,301.3
841.8,1608,12.1,9.9,86,9.14,182,5.6,299.7,326.7,301.3
841.4,1612,12.1,9.9,87,9.16,181,5.6,299.7,326.8,301.3
841.0,1616,12.1,9.9,87,9.17,182,5.6,299.7,326.8,301.3
840.5,1621,12.0,9.9,87,9.18,182,5.6,299.7,326.8,301.3
840.1,1625,12.0,10.0,87,9.19,182,5.6,299.7,326.9,301.3
839.7,1629,11.9,10.0,88,9.22,182,5.6,299.7,327.0,301.3
839.3,1633,11.9,10.0,88,9.25,183,5.6,299.7,327.0,301.3
838.8,1638,11.9,10.1,89,9.28,184,5.5,299.7,327.2,301.4
838.4,1642,11.8,10.1,89,9.28,184,5.5,299.7,327.2,301.4
837.9,1647,11.8,10.1,89,9.29,185,5.5,299.7,327.2,301.4
837.5,1651,11.8,10.0,89,9.27,186,5.5,299.7,327.2,301.4
837.0,1656,11.7,10.0,89,9.23,187,5.5,299.7,327.1,301.4
836.6,1660,11.7,9.9,88,9.17,188,5.5,299.8,326.9,301.4
836.1,1665,11.7,9.8,88,9.12,189,5.5,299.8,326.8,301.5
835.7,1669,11.7,9.7,88,9.10,191,5.5,299.8,326.8,301.5
835.2,1674,11.7,9.7,88,9.08,192,5.5,299.8,326.8,301.5
834.8,1679,11.6,9.6,88,9.05,193,5.4,299.8,326.7,301.5
834.3,1683,11.6,9.6,87,9.01,194,5.4,299.8,326.6,301.5
833.9,1687,11.5,9.5,88,9.00,195,5.4,299.8,326.5,301.5
833.5,1692,11.5,9.5,88,8.99,197,5.4,299.9,326.5,301.5
833.0,1696,11.5,9.5,88,8.98,198,5.3,299.9,326.5,301.5
832.6,1700,11.5,9.5,88,9.00,199,5.3,299.9,326.6,301.5
832.1,1705,11.4,9.5,88,8.99,200,5.3,299.9,326.6,301.5
831.7,1710,11.4,9.4,88,8.97,202,5.2,299.9,326.5,301.5
831.2,1714,11.4,9.4,88,8.93,203,5.2,299.9,326.4,301.6
830.7,1719,11.4,9.3,87,8.91,204,5.1,300.0,326.5,301.6
830.2,1724,11.4,9.3,87,8.88,205,5.0,300.1,326.5,301.7
829.8,1729,11.4,9.2,86,8.86,206,5.0,300.2,326.5,301.8
829.3,1733,11.4,9.3,87,8.88,207,4.9,300.2,326.5,301.8
828.9,1737,11.4,9.3,87,8.88,208,4.8,300.2,326.6,301.8
