PRES,HGHT,TEMP,DWPT,RELH,MIXR,DRCT,SPED,THTA,THTE,THTV
1015.5,31,17.3,14.9,86,10.57,258,3.2,289.2,319.0,291.0
1015.1,34,18.1,14.9,82,10.56,287,1.8,290.0,319.8,291.8
1014.4,39,18.5,14.9,80,10.58,314,1.6,290.5,320.5,292.3
1013.7,45,19.8,15.5,76,10.99,324,1.6,291.8,323.2,293.8
1013.3,49,21.0,15.7,72,11.14,325,1.7,293.0,324.9,295.0
1012.7,54,21.4,15.4,69,10.91,323,1.7,293.4,324.8,295.4
1012.1,59,21.8,15.3,67,10.87,322,1.8,293.9,325.2,295.8
1011.4,66,22.3,15.6,66,11.06,322,1.8,294.5,326.4,296.4
1010.7,71,22.6,15.7,65,11.19,323,1.9,294.8,327.1,296.8
1010.1,77,22.6,15.8,65,11.23,324,1.9,294.9,327.4,296.9
1009.4,83,22.6,15.8,66,11.25,324,1.9,294.9,327.4,296.9
1008.8,88,22.5,15.8,66,11.29,326,1.9,294.9,327.5,296.9
1008.1,94,22.5,15.9,66,11.36,327,1.8,294.9,327.7,297.0
1007.4,100,22.5,16.0,67,11.45,328,1.8,295.0,328.1,297.0
1006.8,105,22.5,16.1,67,11.51,330,1.7,295.1,328.3,297.1
1006.1,111,22.4,16.1,67,11.51,332,1.7,295.1,328.3,297.1
1005.5,117,22.4,16.1,67,11.51,334,1.6,295.1,328.4,297.1
1004.9,122,22.4,16.1,68,11.52,336,1.6,295.1,328.4,297.2
1004.2,127,22.3,16.1,68,11.52,339,1.5,295.1,328.4,297.2
1003.6,133,22.3,16.1,68,11.53,342,1.4,295.1,328.5,297.2
1003.0,138,22.3,16.1,68,11.57,346,1.3,295.1,328.6,297.2
1002.4,143,22.2,16.2,69,11.61,351,1.2,295.2,328.7,297.2
1001.8,148,22.2,16.2,69,11.60,356,1.1,295.2,328.7,297.2
1001.2,154,22.2,16.2,69,11.63,3,1.1,295.2,328.8,297.3
1000.6,159,22.1,16.2,69,11.65,9,1.0,295.2,328.9,297.3
1000.0,164,22.1,16.2,69,11.68,9,1.0,295.3,329.0,297.3
999.3,170,22.1,16.3,70,11.71,24,0.9,295.3,329.1,297.4
998.7,176,22.0,16.3,70,11.74,32,0.9,295.3,329.2,297.4
998.0,181,22.0,16.3,70,11.76,39,0.9,295.3,329.3,297.4
997.4,187,21.9,16.3,71,11.78,46,1.0,295.3,329.3,297.4
996.7,193,21.9,16.3,71,11.78,52,1.0,295.3,329.3,297.4
996.1,198,21.8,16.3,71,11.77,57,1.0,295.3,329.3,297.4
995.5,203,21.8,16.3,71,11.77,62,1.0,295.3,329.3,297.4
995.0,208,21.7,16.3,71,11.77,65,1.1,295.3,329.3,297.4
994.4,213,21.7,16.3,71,11.80,69,1.1,295.3,329.4,297.4
993.9,218,21.7,16.3,72,11.80,72,1.1,295.3,329.4,297.4
993.3,222,21.6,16.3,72,11.81,74,1.2,295.3,329.5,297.4
992.8,227,21.6,16.3,72,11.84,77,1.2,295.3,329.6,297.4
992.2,232,21.6,16.4,72,11.88,79,1.2,295.4,329.7,297.5
991.6,237,21.5,16.4,73,11.89,80,1.2,295.4,329.7,297.5
991.0,243,21.4,16.4,73,11.89,82,1.2,295.3,329.7,297.5
990.4,248,21.4,16.4,73,11.90,84,1.2,295.3,329.7,297.5
989.9,253,21.3,16.4,73,11.92,86,1.3,295.3,329.8,297.5
989.3,258,21.3,16.4,73,11.92,87,1.3,295.4,329.8,297.5
988.8,262,21.3,16.4,74,11.91,89,1.3,295.3,329.8,297.5
988.2,267,21.2,16.3,74,11.91,91,1.3,295.4,329.8,297.5
987.7,272,21.2,16.3,74,11.91,93,1.3,295.4,329.8,297.5
987.2,276,21.1,16.3,74,11.90,95,1.3,295.4,329.8,297.5
986.6,281,21.1,16.3,74,11.91,97,1.3,295.4,329.8,297.5
986.1,286,21.0,16.3,75,11.92,99,1.3,295.3,329.8,297.5
985.5,291,21.0,16.3,75,11.92,101,1.4,295.4,329.8,297.5
984.9,296,20.9,16.3,75,11.91,103,1.4,295.4,329.8,297.5
984.3,301,20.9,16.3,75,11.90,105,1.4,295.4,329.8,297.5
983.7,307,20.8,16.2,75,11.87,107,1.5,295.4,329.7,297.5
983.1,312,20.8,16.2,75,11.86,109,1.5,295.4,329.7,297.5
982.5,318,20.8,16.2,75,11.85,111,1.5,295.4,329.6,297.5
981.9,323,20.7,16.1,75,11.83,113,1.6,295.4,329.6,297.5
981.2,329,20.7,16.1,75,11.81,114,1.6,295.4,329.5,297.5
980.6,334,20.6,16.1,75,11.79,116,1.7,295.4,329.5,297.5
980.0,340,20.6,16.0,75,11.77,118,1.7,295.4,329.5,297.5
979.4,345,20.5,16.0,75,11.76,119,1.8,295.4,329.4,297.5
978.7,351,20.5,16.0,75,11.74,120,1.8,295.5,329.4,297.6
978.1,356,20.5,16.0,75,11.74,121,1.8,295.5,329.4,297.6
977.5,362,20.4,16.0,76,11.76,122,1.9,295.5,329.5,297.6
976.9,367,20.3,15.9,76,11.73,123,1.9,295.5,329.4,297.5
976.3,373,20.3,15.9,76,11.71,124,1.9,295.5,329.3,297.5
975.7,378,20.3,15.9,76,11.69,125,2.0,295.5,329.3,297.6
975.0,384,20.2,15.9,76,11.70,126,2.0,295.5,329.3,297.6
974.4,389,20.2,15.9,76,11.70,126,2.0,295.5,329.4,297.6
973.8,395,20.1,15.8,76,11.70,127,2.0,295.5,329.3,297.6
973.2,400,20.1,15.8,77,11.69,128,2.0,295.5,329.3,297.6
972.6,405,20.0,15.8,77,11.68,128,2.0,295.5,329.3,297.6
972.0,411,20.0,15.8,77,11.66,129,2.0,295.5,329.3,297.6
971.4,416,20.0,15.7,77,11.65,130,2.0,295.6,329.3,297.6
970.8,421,19.9,15.7,77,11.61,131,2.0,295.6,329.2,297.6
970.2,426,19.9,15.6,76,11.57,131,2.0,295.6,329.1,297.6
969.6,432,19.8,15.6,76,11.55,132,2.0,295.6,329.0,297.6
969.0,437,19.8,15.6,77,11.56,132,2.0,295.6,329.0,297.7
968.4,443,19.7,15.6,77,11.56,133,1.9,295.6,329.0,297.6
967.8,448,19.7,15.5,77,11.51,134,1.9,295.6,328.9,297.6
967.1,454,19.6,15.4,76,11.42,134,1.9,295.6,328.7,297.6
966.5,459,19.6,15.2,76,11.31,134,1.9,295.6,328.4,297.6
965.9,465,19.6,15.2,76,11.28,135,1.9,295.7,328.3,297.7
965.3,470,19.5,15.2,76,11.31,135,1.9,295.6,328.4,297.7
964.7,476,19.5,15.2,76,11.31,136,1.9,295.6,328.4,297.6
964.1,481,19.4,15.1,76,11.25,136,1.8,295.7,328.3,297.7
963.5,486,19.4,15.0,75,11.18,137,1.8,295.7,328.1,297.7
963.0,491,19.4,14.9,75,11.13,137,1.8,295.7,328.0,297.7
962.4,496,19.3,14.9,75,11.10,137,1.8,295.7,327.9,297.7
961.9,501,19.3,14.8,75,11.09,137,1.8,295.7,327.9,297.7
961.3,506,19.3,14.8,75,11.09,138,1.8,295.7,327.9,297.7
960.7,511,19.2,14.8,76,11.08,138,1.8,295.7,327.9,297.7
960.1,516,19.2,14.8,76,11.08,138,1.7,295.7,327.9,297.7
959.6,522,19.1,14.8,76,11.07,138,1.7,295.7,327.8,297.7
959.0,527,19.1,14.7,76,11.04,138,1.7,295.7,327.7,297.7
958.4,532,19.0,14.7,76,11.02,138,1.7,295.7,327.7,297.7
957.8,538,19.0,14.7,76,11.02,138,1.7,295.7,327.7,297.7
957.2,543,18.9,14.7,76,11.02,138,1.7,295.7,327.7,297.7
956.6,548,18.9,14.6,77,11.02,138,1.6,295.7,327.7,297.7
956.1,553,18.8,14.6,77,11.02,138,1.6,295.7,327.7,297.7
955.5,558,18.8,14.6,77,11.01,138,1.6,295.7,327.6,297.7
955.0,562,18.7,14.6,77,11.00,138,1.6,295.7,327.6,297.7
954.5,567,18.7,14.6,77,11.00,138,1.6,295.7,327.6,297.7
954.1,571,18.7,14.6,77,11.01,138,1.6,295.7,327.7,297.7
953.6,575,18.6,14.6,78,11.04,138,1.6,295.7,327.7,297.7
953.1,579,18.6,14.7,78,11.07,139,1.6,295.7,327.8,297.7
952.7,584,18.5,14.7,78,11.10,139,1.6,295.7,327.9,297.7
952.2,588,18.5,14.7,79,11.11,139,1.5,295.7,327.9,297.7
951.7,592,18.4,14.7,79,11.13,140,1.5,295.7,328.0,297.7
951.2,597,18.4,14.7,79,11.14,140,1.5,295.7,328.0,297.7
950.7,602,18.4,14.7,79,11.12,141,1.5,295.7,328.0,297.7
950.1,607,18.3,14.7,79,11.11,141,1.5,295.7,327.9,297.7
949.6,611,18.3,14.6,79,11.09,142,1.5,295.7,327.9,297.7
949.1,616,18.2,14.6,79,11.06,142,1.5,295.7,327.8,297.7
948.5,621,18.2,14.6,79,11.05,143,1.5,295.8,327.8,297.7
948.0,626,18.1,14.5,80,11.04,144,1.5,295.7,327.7,297.7
947.4,631,18.1,14.5,80,11.02,144,1.5,295.8,327.7,297.7
946.8,636,18.0,14.5,80,10.99,145,1.5,295.8,327.7,297.7
946.3,642,18.0,14.5,80,11.01,145,1.4,295.8,327.7,297.7
945.7,647,17.9,14.5,80,11.01,146,1.4,295.8,327.7,297.7
945.1,652,17.9,14.4,80,10.99,146,1.4,295.8,327.6,297.7
944.5,658,17.8,14.4,80,10.97,146,1.4,295.8,327.6,297.7
943.9,663,17.8,14.3,80,10.92,146,1.4,295.8,327.4,297.7
943.3,669,17.7,14.2,80,10.82,146,1.4,295.8,327.2,297.7
942.7,674,17.7,14.0,79,10.69,145,1.4,295.8,326.8,297.7
942.1,679,17.7,13.8,78,10.59,145,1.4,295.8,326.5,297.7
941.5,685,17.6,13.7,78,10.55,144,1.4,295.8,326.5,297.7
940.9,690,17.6,13.7,78,10.53,143,1.4,295.9,326.4,297.7
940.3,695,17.6,13.6,78,10.47,142,1.4,295.9,326.3,297.7
939.7,701,17.5,13.5,77,10.40,140,1.4,295.9,326.1,297.7
939.1,706,17.5,13.3,77,10.28,138,1.4,295.9,325.8,297.7
938.6,711,17.5,13.1,75,10.11,137,1.4,295.9,325.3,297.7
938.0,717,17.4,12.7,74,9.89,135,1.5,296.0,324.7,297.7
937.5,722,17.5,12.3,72,9.64,133,1.5,296.0,324.1,297.7
936.9,726,17.5,12.0,70,9.43,131,1.5,296.1,323.6,297.8
936.4,731,17.5,11.7,69,9.26,130,1.5,296.1,323.1,297.8
935.8,736,17.5,11.4,68,9.11,128,1.6,296.2,322.8,297.8
935.3,742,17.5,11.2,67,8.95,126,1.6,296.2,322.3,297.8
934.7,747,17.4,10.8,65,8.75,125,1.6,296.3,321.8,297.8
934.1,752,17.4,10.2,63,8.40,124,1.7,296.3,320.9,297.8
933.5,758,17.5,9.3,59,7.90,123,1.7,296.4,319.6,297.8
932.9,763,17.6,8.8,56,7.62,122,1.7,296.5,318.9,297.9
932.3,769,17.6,8.8,56,7.63,121,1.8,296.6,319.0,297.9
931.7,774,17.5,8.9,57,7.71,121,1.8,296.6,319.3,298.0
931.1,780,17.5,8.9,57,7.71,120,1.8,296.6,319.3,298.0
930.5,786,17.4,8.7,57,7.62,120,1.8,296.6,319.0,298.0
929.9,791,17.4,8.4,56,7.48,121,1.8,296.6,318.7,298.0
929.3,797,17.4,8.1,55,7.32,121,1.9,296.7,318.2,298.0
928.7,802,17.4,7.8,53,7.17,121,1.9,296.7,317.9,298.0
928.1,808,17.3,7.6,53,7.09,122,1.9,296.7,317.7,298.0
927.5,813,17.3,7.6,53,7.07,123,1.9,296.8,317.6,298.0
926.9,818,17.3,7.5,53,7.04,124,1.9,296.8,317.6,298.0
926.4,823,17.2,7.4,52,7.00,125,1.9,296.8,317.5,298.0
925.8,828,17.2,7.3,52,6.95,127,1.9,296.8,317.4,298.1
925.3,834,17.2,7.2,52,6.89,128,1.9,296.8,317.2,298.1
925.0,836,17.2,7.1,52,6.87,129,1.9,296.8,317.2,298.1
924.7,839,17.1,7.1,52,6.86,129,1.9,296.9,317.1,298.1
924.1,844,17.1,7.1,52,6.84,131,1.9,296.9,317.1,298.1
923.5,849,17.0,6.9,51,6.79,132,1.9,296.9,316.9,298.1
923.0,855,17.0,6.8,51,6.70,134,1.9,296.9,316.7,298.1
922.4,860,17.0,6.6,50,6.65,135,1.9,296.9,316.6,298.1
921.8,866,16.9,6.6,50,6.63,137,1.9,296.9,316.5,298.1
921.2,871,16.9,6.5,50,6.61,138,1.9,296.9,316.5,298.1
920.6,876,16.8,6.4,50,6.57,139,2.0,296.9,316.4,298.1
920.1,881,16.8,6.3,50,6.52,140,2.0,296.9,316.2,298.1
919.5,886,16.8,6.2,50,6.47,141,2.0,296.9,316.1,298.1
919.0,891,16.7,6.1,50,6.44,143,2.0,296.9,316.0,298.1
918.5,896,16.7,6.1,50,6.42,143,2.0,296.9,316.0,298.1
917.9,901,16.6,6.1,50,6.43,144,2.1,296.9,316.0,298.1
917.4,906,16.6,6.1,50,6.43,145,2.1,296.9,316.0,298.1
916.9,911,16.5,6.1,50,6.43,146,2.1,297.0,316.0,298.1
916.3,916,16.5,6.1,50,6.46,146,2.1,297.0,316.1,298.1
915.8,921,16.5,6.2,50,6.48,147,2.2,297.0,316.2,298.1
915.3,926,16.4,6.2,51,6.51,147,2.2,297.0,316.3,298.1
914.7,931,16.3,6.2,51,6.51,148,2.2,297.0,316.2,298.1
914.1,937,16.3,6.2,51,6.50,149,2.3,297.0,316.2,298.1
913.6,942,16.2,6.2,51,6.52,149,2.3,297.0,316.3,298.1
913.0,947,16.2,6.3,52,6.55,150,2.3,297.0,316.4,298.1
912.4,953,16.1,6.4,52,6.60,151,2.4,296.9,316.5,298.1
911.8,958,16.1,6.4,53,6.64,152,2.4,296.9,316.6,298.1
911.3,963,16.0,6.5,53,6.67,152,2.4,296.9,316.7,298.1
910.7,969,15.9,6.5,54,6.69,153,2.5,296.9,316.7,298.1
910.2,973,15.9,6.6,54,6.72,154,2.5,296.9,316.8,298.1
909.7,978,15.9,6.7,54,6.78,155,2.6,296.9,317.0,298.1
909.1,983,15.8,6.8,55,6.85,156,2.6,296.9,317.2,298.2
908.6,988,15.8,7.0,56,6.95,157,2.7,296.9,317.5,298.2
908.2,992,15.7,7.2,57,7.04,158,2.7,296.9,317.7,298.2
907.7,997,15.7,7.4,58,7.12,158,2.8,296.9,317.9,298.2
907.2,1002,15.6,7.4,58,7.14,159,2.9,296.9,318.0,298.2
906.7,1006,15.6,7.4,58,7.16,160,2.9,297.0,318.1,298.2
906.2,1011,15.6,7.5,59,7.20,161,3.0,297.0,318.3,298.3
905.7,1015,15.6,7.6,59,7.25,161,3.1,297.0,318.4,298.3
905.2,1020,15.6,7.5,59,7.22,162,3.2,297.0,318.4,298.3
904.7,1025,15.6,7.2,57,7.05,163,3.2,297.1,318.0,298.4
904.2,1029,15.6,6.8,56,6.86,163,3.3,297.2,317.5,298.5
903.7,1034,15.6,6.4,54,6.68,164,3.4,297.3,317.1,298.5
903.2,1039,15.7,5.9,52,6.46,164,3.5,297.3,316.5,298.5
902.7,1043,15.7,5.3,50,6.18,165,3.6,297.4,315.8,298.5
902.2,1048,15.8,4.6,47,5.90,165,3.7,297.5,315.1,298.6
901.7,1053,15.8,3.9,45,5.62,165,3.8,297.6,314.4,298.7
901.2,1057,15.9,3.3,43,5.38,166,3.9,297.8,313.9,298.7
900.7,1062,15.9,2.9,41,5.22,166,4.0,297.8,313.5,298.8
900.2,1067,15.9,2.6,41,5.13,166,4.1,297.9,313.3,298.8
899.6,1073,16.0,2.4,40,5.07,167,4.2,298.0,313.2,298.9
899.0,1078,16.0,2.3,40,5.03,167,4.3,298.0,313.2,298.9
898.4,1084,15.9,2.3,40,5.01,167,4.4,298.1,313.2,299.0
897.7,1090,15.9,2.2,40,4.99,167,4.5,298.1,313.1,299.0
897.0,1097,15.9,2.0,39,4.95,168,4.6,298.1,313.0,299.0
896.3,1103,15.8,1.8,39,4.86,168,4.7,298.2,312.8,299.0
895.7,1110,15.8,1.4,38,4.72,168,4.9,298.2,312.4,299.0
895.0,1116,15.8,0.9,36,4.55,169,5.0,298.2,312.0,299.0
894.4,1122,15.8,0.3,35,4.36,169,5.1,298.3,311.5,299.1
893.8,1128,15.8,-0.3,33,4.18,170,5.2,298.3,311.0,299.1
893.2,1133,15.8,-0.9,32,4.01,170,5.3,298.4,310.7,299.2
892.7,1138,15.9,-1.2,31,3.91,171,5.5,298.5,310.5,299.3
892.2,1143,15.9,-1.4,31,3.86,171,5.6,298.6,310.4,299.3
891.7,1148,15.9,-1.6,30,3.81,172,5.7,298.7,310.3,299.3
891.2,1153,15.9,-1.8,30,3.76,172,5.9,298.7,310.2,299.4
890.6,1158,15.9,-1.9,29,3.72,173,6.0,298.8,310.2,299.5
890.1,1163,15.9,-2.2,29,3.65,173,6.1,298.8,310.0,299.5
889.5,1168,15.9,-2.8,28,3.50,174,6.2,298.9,309.7,299.5
889.0,1174,16.0,-3.8,25,3.25,174,6.4,299.0,309.1,299.6
888.4,1179,16.1,-4.9,23,2.99,175,6.5,299.2,308.5,299.7
887.8,1185,16.2,-5.8,22,2.79,175,6.6,299.3,308.0,299.8
887.1,1191,16.2,-6.5,20,2.64,176,6.7,299.5,307.7,299.9
886.5,1197,16.3,-7.0,20,2.55,176,6.8,299.6,307.6,300.1
885.8,1203,16.4,-7.2,19,2.52,177,6.9,299.7,307.6,300.2
885.2,1210,16.4,-7.3,19,2.50,178,7.0,299.8,307.6,300.2
884.6,1215,16.4,-7.6,19,2.45,178,7.1,299.9,307.5,300.3
884.0,1221,16.4,-7.9,18,2.39,179,7.2,299.9,307.4,300.3
883.4,1227,16.4,-8.1,18,2.34,179,7.3,300.0,307.3,300.4
882.9,1232,16.4,-8.4,17,2.29,180,7.4,300.0,307.2,300.4
882.4,1236,16.4,-8.8,17,2.23,180,7.4,300.0,307.1,300.5
881.9,1241,16.4,-9.2,16,2.16,181,7.5,300.1,307.0,300.5
881.5,1245,16.4,-9.6,16,2.10,181,7.6,300.2,306.8,300.6
881.0,1250,16.4,-9.9,15,2.05,181,7.6,300.2,306.7,300.6
880.6,1254,16.4,-10.2,15,2.01,182,7.7,300.3,306.7,300.7
880.2,1258,16.5,-10.3,15,1.98,182,7.7,300.4,306.7,300.7
879.7,1262,16.5,-10.5,15,1.96,183,7.7,300.4,306.7,300.8
879.3,1266,16.5,-10.7,15,1.93,183,7.8,300.5,306.6,300.8
878.9,1271,16.5,-11.0,14,1.88,183,7.8,300.5,306.5,300.9
878.4,1275,16.5,-11.3,14,1.84,184,7.8,300.6,306.5,300.9
878.0,1279,16.6,-11.5,14,1.81,184,7.9,300.7,306.5,301.0
877.5,1284,16.6,-11.6,13,1.79,184,7.9,300.7,306.5,301.0
877.1,1288,16.6,-11.8,13,1.77,184,7.9,300.8,306.5,301.1
876.6,1292,16.6,-11.9,13,1.75,185,7.9,300.8,306.4,301.1
876.2,1297,16.6,-12.3,13,1.70,185,7.9,300.9,306.3,301.2
875.7,1301,16.7,-12.9,12,1.62,185,8.0,301.0,306.2,301.3
875.2,1306,16.7,-13.7,11,1.52,185,8.0,301.1,306.0,301.4
874.8,1310,16.7,-14.9,10,1.38,185,8.0,301.2,305.7,301.4
874.3,1314,16.9,-16.1,9,1.25,185,8.0,301.4,305.5,301.6
873.9,1319,17.1,-15.9,9,1.26,185,8.0,301.6,305.8,301.8
873.5,1323,17.2,-15.1,10,1.35,185,8.0,301.8,306.2,302.0
873.0,1327,17.3,-14.8,10,1.39,185,8.0,301.9,306.5,302.2
872.6,1332,17.3,-14.8,10,1.39,184,8.0,301.9,306.5,302.2
872.1,1336,17.3,-14.9,10,1.38,184,7.9,302.0,306.5,302.2
871.6,1341,17.2,-15.0,10,1.37,184,7.9,302.0,306.5,302.3
871.2,1345,17.2,-15.1,10,1.36,183,7.9,302.0,306.5,302.3
870.7,1350,17.2,-15.1,10,1.36,183,7.9,302.1,306.5,302.3
870.2,1355,17.2,-15.2,10,1.35,183,7.8,302.1,306.5,302.3
869.7,1360,17.1,-15.2,10,1.35,182,7.8,302.1,306.5,302.4
869.2,1365,17.1,-15.2,10,1.35,182,7.8,302.1,306.5,302.4
868.7,1370,17.1,-15.3,10,1.34,181,7.7,302.1,306.5,302.4
868.2,1375,17.0,-15.3,10,1.34,181,7.7,302.1,306.5,302.4
867.7,1379,17.0,-15.4,10,1.33,180,7.6,302.1,306.5,302.4
867.2,1384,17.0,-15.5,10,1.32,180,7.5,302.2,306.5,302.4
866.7,1389,16.9,-15.5,10,1.32,179,7.5,302.2,306.5,302.4
866.2,1394,16.9,-15.6,10,1.32,179,7.4,302.2,306.5,302.4
865.8,1398,16.9,-15.6,10,1.31,178,7.4,302.2,306.5,302.4
865.3,1403,16.8,-15.6,10,1.31,178,7.3,302.2,306.5,302.4
864.8,1407,16.8,-15.6,10,1.31,177,7.2,302.2,306.5,302.5
864.4,1412,16.7,-15.6,10,1.31,177,7.2,302.2,306.5,302.5
863.9,1416,16.7,-15.7,10,1.31,176,7.1,302.2,306.5,302.5
863.5,1421,16.7,-15.7,10,1.31,176,7.1,302.2,306.5,302.5
863.0,1425,16.6,-15.7,10,1.31,176,7.0,302.2,306.5,302.5
862.6,1430,16.6,-15.7,10,1.31,175,7.0,302.2,306.5,302.5
862.1,1434,16.6,-15.7,10,1.31,175,6.9,302.3,306.6,302.5
861.6,1439,16.5,-15.7,10,1.31,175,6.8,302.3,306.6,302.5
861.1,1444,16.5,-15.7,10,1.31,175,6.8,302.3,306.6,302.5
860.6,1449,16.5,-15.7,10,1.31,176,6.7,302.3,306.6,302.5
860.1,1454,16.4,-15.7,10,1.31,176,6.7,302.3,306.6,302.6
859.6,1459,16.4,-15.8,10,1.30,176,6.7,302.3,306.6,302.6
859.0,1464,16.4,-15.9,10,1.29,176,6.6,302.4,306.6,302.6
858.5,1470,16.3,-16.1,9,1.26,177,6.6,302.4,306.6,302.6
857.9,1475,16.3,-16.4,9,1.23,177,6.5,302.4,306.5,302.7
857.4,1481,16.3,-16.8,9,1.20,178,6.5,302.5,306.4,302.7
856.9,1486,16.3,-17.3,9,1.15,178,6.5,302.5,306.3,302.7
856.4,1491,16.3,-17.6,8,1.12,179,6.5,302.6,306.3,302.8
855.9,1496,16.3,-17.5,8,1.13,180,6.4,302.6,306.4,302.8
855.4,1501,16.3,-17.3,9,1.15,180,6.4,302.7,306.5,302.9
854.9,1506,16.3,-17.2,9,1.16,181,6.4,302.7,306.5,302.9
854.4,1511,16.3,-17.2,9,1.16,181,6.4,302.7,306.6,303.0
853.8,1516,16.3,-17.2,9,1.16,181,6.4,302.8,306.7,303.0
853.3,1521,16.3,-17.0,9,1.18,182,6.4,302.9,306.8,303.1
852.8,1526,16.3,-16.9,9,1.20,182,6.4,302.9,306.9,303.1
852.2,1532,16.3,-16.8,9,1.21,182,6.4,303.0,307.0,303.2
851.7,1537,16.3,-16.7,9,1.21,182,6.5,303.0,307.0,303.2
851.1,1543,16.2,-16.6,9,1.22,181,6.5,303.0,307.1,303.3
850.6,1548,16.2,-16.6,9,1.23,181,6.5,303.1,307.1,303.3
850.1,1554,16.2,-16.5,9,1.24,181,6.5,303.1,307.2,303.3
850.0,1554,16.2,-16.5,9,1.24,180,6.6,303.1,307.2,303.3
849.5,1559,16.2,-16.5,9,1.24,180,6.6,303.2,307.3,303.4
849.0,1564,16.2,-16.3,9,1.26,179,6.6,303.2,307.4,303.4
848.5,1569,16.2,-16.1,9,1.28,179,6.7,303.2,307.5,303.5
848.0,1574,16.2,-15.9,10,1.30,178,6.7,303.3,307.6,303.5
847.5,1579,16.1,-15.8,10,1.32,177,6.8,303.3,307.6,303.5
847.0,1584,16.1,-15.8,10,1.32,175,6.8,303.3,307.7,303.6
846.5,1589,16.1,-15.9,10,1.31,174,6.9,303.4,307.7,303.6
846.0,1594,16.1,-16.0,10,1.30,173,6.9,303.4,307.7,303.6
845.4,1600,16.1,-16.1,10,1.29,172,7.0,303.5,307.7,303.7
844.9,1605,16.1,-16.0,10,1.30,170,7.1,303.6,307.8,303.8
844.4,1611,16.2,-15.8,10,1.32,169,7.1,303.7,308.0,303.9
843.8,1616,16.2,-15.5,10,1.35,168,7.2,303.8,308.2,304.0
843.3,1621,16.3,-15.3,10,1.38,166,7.3,303.9,308.4,304.1
842.7,1627,16.3,-15.3,10,1.38,165,7.4,304.0,308.5,304.2
842.2,1632,16.4,-15.3,10,1.39,164,7.5,304.1,308.7,304.4
841.7,1638,16.5,-15.3,10,1.38,163,7.5,304.2,308.8,304.5
841.1,1643,16.5,-15.4,10,1.38,162,7.6,304.3,308.8,304.6
840.6,1649,16.5,-15.4,10,1.37,160,7.7,304.4,308.9,304.6
840.0,1654,16.5,-15.5,10,1.37,159,7.8,304.4,308.9,304.7
839.5,1659,16.5,-15.5,10,1.37,158,7.9,304.5,309.0,304.7
839.0,1665,16.5,-15.5,10,1.36,157,7.9,304.5,309.0,304.8
838.4,1670,16.5,-15.5,10,1.36,157,8.0,304.6,309.1,304.8
837.9,1676,16.4,-15.5,10,1.37,156,8.1,304.6,309.1,304.8
837.4,1681,16.4,-15.5,10,1.37,155,8.2,304.6,309.1,304.9
836.8,1687,16.4,-15.5,10,1.37,154,8.2,304.6,309.2,304.9
836.3,1692,16.3,-15.5,10,1.37,154,8.3,304.6,309.2,304.9
835.8,1697,16.3,-15.5,10,1.37,153,8.4,304.6,309.2,304.9
835.3,1702,16.2,-15.6,10,1.37,153,8.4,304.6,309.2,304.9
834.8,1707,16.2,-15.6,10,1.36,152,8.5,304.6,309.2,304.9
834.4,1711,16.1,-15.6,10,1.36,152,8.6,304.6,309.1,304.9
833.9,1716,16.1,-15.6,10,1.36,151,8.6,304.7,309.2,304.9
833.4,1721,16.1,-15.7,10,1.36,151,8.7,304.7,309.2,304.9
832.9,1726,16.1,-15.7,10,1.35,151,8.7,304.7,309.2,305.0
832.4,1731,16.0,-15.7,10,1.35,151,8.7,304.7,309.2,305.0
831.9,1736,16.0,-15.8,10,1.35,150,8.8,304.8,309.2,305.0
831.4,1741,16.0,-15.8,10,1.34,150,8.8,304.8,309.3,305.1
830.9,1746,16.0,-15.8,10,1.34,150,8.8,304.8,309.3,305.1
830.5,1751,16.0,-15.9,10,1.33,150,8.8,304.9,309.3,305.1
830.0,1756,16.0,-16.0,10,1.32,150,8.8,304.9,309.3,305.2
829.5,1761,16.0,-16.1,10,1.32,150,8.8,305.0,309.4,305.3
829.1,1766,16.0,-16.1,10,1.31,150,8.8,305.1,309.4,305.3
828.6,1770,16.0,-16.2,10,1.31,151,8.7,305.1,309.5,305.4
828.1,1775,16.0,-16.3,9,1.30,151,8.7,305.2,309.5,305.4
827.6,1781,16.1,-16.5,9,1.28,151,8.6,305.3,309.5,305.5
827.0,1786,16.2,-16.9,9,1.23,151,8.5,305.5,309.6,305.7
826.5,1792,16.4,-17.7,8,1.16,152,8.4,305.8,309.6,306.0
825.9,1798,16.6,-18.4,8,1.09,152,8.3,306.0,309.6,306.2
825.4,1803,16.6,-18.7,7,1.06,153,8.2,306.1,309.6,306.3
824.8,1809,16.6,-18.8,7,1.05,154,8.1,306.1,309.7,306.3
824.3,1815,16.5,-18.9,7,1.05,154,8.0,306.1,309.7,306.3
823.7,1820,16.5,-18.9,7,1.04,155,7.9,306.2,309.7,306.4
823.2,1825,16.5,-19.0,7,1.04,156,7.8,306.2,309.7,306.4
822.8,1830,16.6,-19.1,7,1.03,157,7.7,306.3,309.8,306.5
822.3,1835,16.6,-19.3,7,1.02,158,7.6,306.4,309.8,306.6
821.9,1840,16.6,-19.4,7,1.01,159,7.5,306.5,309.9,306.7
821.4,1844,16.6,-19.4,7,1.00,160,7.4,306.5,309.9,306.7
821.0,1849,16.6,-19.5,7,0.99,161,7.3,306.5,309.9,306.7
820.5,1853,16.6,-19.6,7,0.98,162,7.2,306.6,309.9,306.8
820.1,1858,16.6,-19.7,7,0.98,163,7.2,306.6,309.9,306.8
819.7,1862,16.6,-19.8,7,0.97,164,7.1,306.6,309.9,306.8
819.2,1867,16.5,-19.9,7,0.97,165,7.1,306.6,309.9,306.8
818.8,1872,16.5,-19.9,7,0.96,166,7.0,306.7,309.9,306.8
