PRES,HGHT,TEMP,DWPT,RELH,MIXR,DRCT,SPED,THTA,THTE,THTV
1009.9,31,27.2,21.0,69,15.73,172,8.9,299.5,345.7,302.3
1009.2,37,26.9,21.4,72,16.06,181,5.2,299.2,346.3,302.1
1009.0,39,26.3,21.3,74,16.00,184,4.8,298.7,345.5,301.6
1008.4,43,25.9,21.2,76,15.92,185,4.9,298.3,344.7,301.1
1007.7,50,25.7,21.2,76,15.89,185,5.2,298.2,344.5,301.0
1007.2,54,25.6,21.0,76,15.77,185,5.5,298.2,344.2,301.0
1006.7,58,25.6,20.8,75,15.54,185,5.8,298.2,343.5,301.0
1006.2,63,25.6,20.6,74,15.38,185,6.1,298.2,343.1,301.0
1005.7,67,25.5,20.5,74,15.31,185,6.3,298.2,342.9,300.9
1005.2,71,25.5,20.5,74,15.31,185,6.5,298.2,342.9,301.0
1004.7,76,25.5,20.6,74,15.37,185,6.7,298.3,343.1,301.0
1004.3,80,25.5,20.6,74,15.38,186,6.9,298.3,343.2,301.1
1003.8,84,25.5,20.5,74,15.25,186,7.0,298.3,342.8,301.0
1003.3,89,25.4,20.4,74,15.18,186,7.1,298.3,342.6,301.0
1002.8,93,25.4,20.4,74,15.17,186,7.2,298.3,342.6,301.0
1002.2,98,25.4,20.3,74,15.17,186,7.3,298.3,342.6,301.0
1001.7,102,25.4,20.4,74,15.19,186,7.3,298.4,342.7,301.1
1001.2,107,25.4,20.3,74,15.14,186,7.4,298.4,342.6,301.1
1000.6,112,25.5,20.2,73,15.03,186,7.4,298.5,342.5,301.2
1000.0,118,25.5,20.1,72,14.97,186,7.4,298.7,342.4,301.3
999.5,122,25.5,20.1,72,15.01,186,7.4,298.7,342.6,301.4
998.8,128,25.5,20.2,72,15.08,186,7.3,298.8,342.9,301.5
998.2,133,25.4,20.2,73,15.07,186,7.3,298.7,342.8,301.4
997.6,138,25.4,20.1,72,14.98,186,7.2,298.8,342.6,301.4
997.0,144,25.4,20.0,72,14.88,186,7.2,298.8,342.3,301.4
996.4,149,25.4,20.0,72,14.90,186,7.1,298.8,342.4,301.5
995.9,154,25.4,20.0,72,14.96,185,7.0,298.9,342.7,301.5
995.3,159,25.3,20.0,73,14.97,185,6.9,298.9,342.7,301.5
994.7,164,25.3,20.0,73,14.94,185,6.8,298.9,342.6,301.5
994.2,169,25.3,20.0,73,14.97,185,6.7,298.9,342.7,301.6
993.6,174,25.2,19.9,73,14.92,185,6.6,298.9,342.5,301.5
993.1,179,25.2,19.9,73,14.90,185,6.5,298.9,342.5,301.6
992.6,183,25.2,19.9,73,14.88,184,6.4,298.9,342.5,301.6
992.0,188,25.2,19.9,72,14.87,184,6.3,299.0,342.6,301.7
991.5,193,25.2,19.9,73,14.89,184,6.2,299.0,342.6,301.7
990.9,198,25.1,19.9,73,14.89,184,6.1,299.0,342.6,301.7
990.4,202,25.0,19.9,73,14.89,183,6.0,299.0,342.6,301.7
989.9,207,25.0,19.8,73,14.89,183,5.9,299.0,342.6,301.7
989.3,212,24.9,19.8,73,14.88,183,5.8,299.0,342.6,301.7
988.8,217,24.9,19.8,73,14.84,182,5.6,299.0,342.4,301.6
988.3,222,24.9,19.7,73,14.81,182,5.5,299.0,342.4,301.7
987.7,226,24.9,19.7,73,14.79,181,5.4,299.1,342.4,301.7
987.2,231,24.9,19.7,73,14.79,181,5.3,299.1,342.5,301.8
986.7,236,24.9,19.7,73,14.78,181,5.2,299.1,342.4,301.8
986.2,240,24.8,19.7,73,14.77,180,5.1,299.1,342.4,301.8
985.7,245,24.8,19.6,73,14.75,180,5.0,299.1,342.4,301.8
985.2,249,24.7,19.7,73,14.78,179,4.9,299.2,342.5,301.8
984.6,254,24.8,19.7,74,14.85,179,4.7,299.2,342.8,301.9
984.1,259,24.7,19.7,74,14.82,179,4.6,299.2,342.6,301.8
983.6,263,24.6,19.6,74,14.75,178,4.5,299.2,342.4,301.8
983.0,268,24.6,19.5,73,14.64,178,4.4,299.2,342.1,301.8
982.4,274,24.6,19.3,72,14.50,178,4.3,299.3,341.8,301.9
981.9,279,24.7,19.2,72,14.41,178,4.2,299.4,341.7,302.0
981.3,284,24.8,19.2,71,14.39,177,4.1,299.6,341.8,302.1
980.7,290,24.9,19.2,71,14.46,177,4.0,299.7,342.2,302.3
980.0,295,24.8,19.2,71,14.39,177,3.9,299.6,341.9,302.2
979.4,301,24.8,19.1,71,14.36,177,3.8,299.7,341.9,302.3
978.8,306,24.8,19.0,70,14.30,177,3.7,299.8,341.8,302.3
978.1,312,24.8,19.0,70,14.25,177,3.6,299.8,341.7,302.4
977.5,318,24.7,18.9,70,14.23,178,3.5,299.8,341.6,302.4
976.8,324,24.7,18.9,70,14.21,178,3.4,299.8,341.6,302.4
976.2,330,24.6,18.9,71,14.25,178,3.3,299.8,341.7,302.4
975.6,335,24.6,19.0,71,14.29,179,3.3,299.8,341.8,302.4
974.9,341,24.5,19.0,72,14.34,179,3.2,299.8,342.0,302.4
974.3,347,24.4,19.0,72,14.37,180,3.1,299.8,342.0,302.4
973.7,352,24.3,19.0,72,14.38,180,3.0,299.8,342.0,302.3
973.0,358,24.3,19.0,73,14.39,181,2.9,299.8,342.0,302.3
972.4,364,24.2,19.0,73,14.38,181,2.9,299.7,342.0,302.3
971.8,369,24.2,19.0,73,14.33,182,2.8,299.8,341.9,302.3
971.2,375,24.2,18.9,72,14.28,183,2.7,299.8,341.8,302.4
970.6,380,24.1,18.9,72,14.27,183,2.7,299.8,341.8,302.4
970.0,386,24.1,18.8,72,14.24,184,2.6,299.9,341.8,302.4
969.4,391,24.1,18.8,72,14.20,185,2.6,299.9,341.7,302.5
968.9,396,24.1,18.7,72,14.18,185,2.5,299.9,341.6,302.5
968.3,401,24.0,18.7,72,14.18,186,2.5,299.9,341.6,302.5
967.8,406,24.0,18.7,72,14.18,186,2.5,299.9,341.6,302.5
967.2,411,23.9,18.7,73,14.21,187,2.4,299.9,341.7,302.5
966.7,416,23.9,18.8,73,14.24,187,2.4,299.9,341.8,302.5
966.1,421,23.8,18.8,73,14.25,188,2.4,299.9,341.8,302.5
965.6,426,23.8,18.8,73,14.26,188,2.3,299.9,341.9,302.5
965.0,431,23.7,18.8,74,14.29,189,2.3,299.9,342.0,302.5
964.5,436,23.7,18.8,74,14.33,189,2.3,299.9,342.1,302.5
963.9,441,23.7,18.8,74,14.35,190,2.3,299.9,342.1,302.5
963.3,446,23.6,18.9,75,14.38,190,2.3,299.9,342.2,302.5
962.7,452,23.6,18.9,75,14.38,190,2.3,300.0,342.2,302.5
962.1,457,23.5,18.8,75,14.34,191,2.3,299.9,342.1,302.5
961.5,463,23.5,18.7,75,14.29,191,2.3,299.9,342.0,302.5
960.8,469,23.4,18.7,75,14.26,192,2.3,299.9,341.9,302.5
960.2,475,23.3,18.7,75,14.25,192,2.3,299.9,341.9,302.5
959.5,481,23.3,18.6,75,14.24,193,2.3,299.9,341.8,302.5
958.8,487,23.2,18.6,75,14.23,193,2.3,299.9,341.8,302.5
958.1,494,23.2,18.6,76,14.23,194,2.3,299.9,341.8,302.5
957.4,500,23.1,18.6,76,14.20,195,2.3,299.9,341.7,302.5
956.7,507,23.0,18.5,76,14.17,196,2.3,299.9,341.6,302.5
955.9,513,23.0,18.5,76,14.15,196,2.3,299.9,341.6,302.5
955.2,520,22.9,18.5,76,14.17,197,2.3,299.9,341.6,302.5
954.5,527,22.8,18.5,77,14.18,198,2.3,299.9,341.7,302.5
953.8,533,22.8,18.5,77,14.16,199,2.4,299.9,341.6,302.5
953.1,539,22.7,18.4,77,14.08,200,2.4,299.9,341.3,302.4
952.5,545,22.6,18.3,77,14.03,202,2.4,299.9,341.2,302.4
951.9,551,22.6,18.3,77,14.02,203,2.4,299.9,341.1,302.4
951.3,556,22.5,18.3,77,14.04,204,2.4,299.9,341.2,302.4
950.7,562,22.5,18.3,77,14.10,205,2.4,299.9,341.4,302.5
950.1,567,22.4,18.4,78,14.17,206,2.4,299.9,341.6,302.5
949.5,573,22.4,18.5,78,14.22,208,2.4,299.9,341.8,302.5
948.9,578,22.3,18.5,79,14.24,209,2.4,299.9,341.8,302.5
948.3,583,22.3,18.5,79,14.23,211,2.4,299.9,341.8,302.5
947.7,589,22.2,18.5,79,14.26,212,2.4,299.9,341.9,302.5
947.1,595,22.2,18.5,80,14.29,213,2.4,299.9,342.0,302.5
946.5,600,22.1,18.5,80,14.27,215,2.4,299.9,341.9,302.5
945.9,606,22.1,18.4,80,14.24,217,2.4,299.9,341.8,302.5
945.3,611,22.0,18.4,80,14.23,218,2.4,300.0,341.8,302.5
944.6,617,22.0,18.4,80,14.25,220,2.4,300.0,341.9,302.5
944.0,623,21.9,18.5,81,14.31,221,2.4,300.0,342.0,302.5
943.4,629,21.9,18.6,82,14.42,223,2.4,300.0,342.4,302.6
942.7,635,21.8,18.7,82,14.54,224,2.4,300.0,342.7,302.6
942.0,641,21.8,18.7,83,14.59,226,2.4,300.0,342.9,302.6
941.3,648,21.7,18.7,83,14.54,228,2.4,300.0,342.7,302.6
940.6,654,21.6,18.6,83,14.45,229,2.4,300.0,342.5,302.6
940.0,660,21.6,18.5,83,14.41,231,2.4,300.0,342.3,302.5
939.3,667,21.5,18.5,83,14.39,233,2.4,300.0,342.3,302.5
938.7,673,21.4,18.5,83,14.38,234,2.4,300.0,342.3,302.5
938.0,678,21.4,18.4,83,14.38,236,2.4,300.0,342.2,302.6
937.4,684,21.4,18.4,83,14.38,237,2.4,300.0,342.3,302.6
936.8,690,21.4,18.5,84,14.42,238,2.4,300.1,342.5,302.6
936.2,696,21.4,18.5,84,14.47,240,2.5,300.1,342.7,302.7
935.5,701,21.3,18.6,84,14.53,241,2.5,300.1,342.9,302.7
934.9,707,21.2,18.6,85,14.56,242,2.5,300.1,343.0,302.7
934.2,714,21.2,18.6,85,14.59,243,2.5,300.1,343.0,302.7
933.6,720,21.1,18.6,86,14.63,243,2.5,300.1,343.1,302.7
932.9,726,21.0,18.6,86,14.64,244,2.5,300.1,343.1,302.7
932.2,733,21.0,18.6,86,14.64,245,2.5,300.1,343.2,302.7
931.5,739,20.9,18.6,87,14.67,245,2.5,300.1,343.2,302.7
930.8,745,20.9,18.7,87,14.70,246,2.5,300.1,343.3,302.7
930.1,752,20.8,18.7,87,14.72,246,2.5,300.1,343.4,302.8
929.5,758,20.8,18.6,87,14.70,246,2.4,300.1,343.4,302.8
928.8,764,20.7,18.6,88,14.70,246,2.4,300.1,343.4,302.8
928.1,771,20.7,18.6,88,14.73,246,2.4,300.1,343.5,302.8
927.4,777,20.6,18.7,89,14.78,246,2.4,300.1,343.6,302.8
926.8,783,20.5,18.7,89,14.81,246,2.4,300.1,343.6,302.7
926.1,790,20.4,18.7,90,14.82,246,2.4,300.1,343.6,302.7
925.4,796,20.3,18.7,90,14.80,245,2.4,300.1,343.6,302.7
925.0,800,20.3,18.6,90,14.78,245,2.4,300.0,343.5,302.7
924.8,802,20.3,18.6,90,14.77,245,2.4,300.0,343.5,302.7
924.2,807,20.2,18.6,90,14.74,244,2.4,300.0,343.4,302.7
923.6,813,20.1,18.5,91,14.71,244,2.4,300.0,343.3,302.7
923.0,819,20.1,18.5,91,14.71,244,2.4,300.0,343.3,302.7
922.4,824,20.0,18.6,91,14.76,243,2.4,300.0,343.4,302.7
921.8,830,20.0,18.6,92,14.80,243,2.4,300.0,343.6,302.7
921.2,836,19.9,18.6,92,14.82,242,2.4,300.0,343.6,302.7
920.6,841,19.9,18.6,93,14.83,242,2.4,300.0,343.6,302.7
920.0,847,19.8,18.6,93,14.81,241,2.4,300.0,343.6,302.7
919.4,853,19.8,18.6,93,14.79,241,2.5,300.0,343.5,302.7
918.8,858,19.7,18.5,93,14.76,241,2.5,300.0,343.4,302.7
918.2,864,19.7,18.5,93,14.74,241,2.5,300.0,343.4,302.7
917.6,869,19.6,18.5,93,14.74,241,2.6,300.1,343.4,302.7
917.0,875,19.6,18.5,93,14.74,241,2.6,300.0,343.4,302.7
916.4,880,19.5,18.5,94,14.74,241,2.7,300.0,343.4,302.7
915.8,886,19.5,18.5,94,14.75,241,2.7,300.0,343.4,302.7
915.3,891,19.4,18.4,94,14.75,241,2.8,300.0,343.4,302.7
914.7,897,19.3,18.4,95,14.76,242,2.8,300.0,343.4,302.7
914.1,903,19.3,18.4,95,14.76,242,2.9,300.0,343.4,302.7
913.5,908,19.2,18.4,95,14.72,243,3.0,300.0,343.3,302.7
912.9,914,19.2,18.3,95,14.69,243,3.0,300.1,343.3,302.7
912.2,920,19.2,18.4,95,14.73,244,3.1,300.1,343.4,302.8
911.6,926,19.1,18.4,96,14.77,245,3.2,300.1,343.6,302.8
911.0,932,19.1,18.4,96,14.82,245,3.3,300.1,343.7,302.8
910.4,937,19.0,18.4,96,14.82,246,3.3,300.1,343.7,302.8
909.8,943,18.9,18.4,97,14.80,247,3.4,300.1,343.6,302.7
909.2,949,18.9,18.4,97,14.78,247,3.5,300.1,343.5,302.7
908.5,955,18.8,18.3,97,14.77,248,3.6,300.1,343.5,302.8
907.9,961,18.8,18.3,97,14.75,249,3.6,300.1,343.5,302.8
907.3,967,18.8,18.3,97,14.74,250,3.7,300.1,343.5,302.8
906.6,973,18.7,18.3,98,14.76,250,3.8,300.1,343.6,302.8
906.0,979,18.6,18.3,98,14.76,251,3.9,300.1,343.5,302.8
905.3,986,18.6,18.3,98,14.74,252,3.9,300.1,343.5,302.8
904.6,992,18.5,18.2,98,14.70,253,4.0,300.1,343.4,302.8
903.9,999,18.5,18.2,98,14.68,253,4.1,300.2,343.3,302.8
903.2,1006,18.4,18.2,99,14.72,254,4.1,300.1,343.4,302.8
902.5,1012,18.3,18.3,100,14.79,255,4.2,300.1,343.6,302.8
901.8,1019,18.2,18.2,100,14.78,255,4.3,300.1,343.6,302.8
901.1,1026,18.2,18.2,100,14.76,256,4.4,300.1,343.6,302.8
900.4,1032,18.2,18.2,100,14.73,256,4.4,300.2,343.5,302.8
899.7,1039,18.1,18.1,100,14.72,257,4.5,300.2,343.5,302.9
899.0,1046,18.1,18.1,100,14.70,257,4.6,300.2,343.5,302.9
898.3,1053,18.1,18.1,100,14.68,258,4.7,300.3,343.5,302.9
897.6,1059,18.1,18.1,100,14.68,258,4.7,300.3,343.5,303.0
897.0,1065,18.0,18.0,100,14.68,259,4.8,300.4,343.6,303.0
896.3,1072,18.0,18.0,100,14.68,259,4.9,300.4,343.7,303.1
895.7,1077,18.0,18.0,100,14.66,259,4.9,300.5,343.6,303.1
895.1,1083,18.0,18.0,100,14.65,260,5.0,300.5,343.6,303.1
894.5,1089,18.0,18.0,100,14.63,260,5.1,300.5,343.6,303.2
894.0,1094,17.9,17.9,100,14.62,260,5.1,300.5,343.6,303.2
893.4,1100,17.9,17.9,100,14.60,261,5.2,300.6,343.6,303.2
892.8,1105,17.9,17.9,100,14.60,261,5.2,300.6,343.6,303.2
892.2,1111,17.9,17.9,100,14.58,261,5.3,300.6,343.6,303.3
891.7,1116,17.8,17.8,100,14.57,261,5.4,300.7,343.6,303.3
891.1,1122,17.8,17.8,100,14.55,262,5.4,300.7,343.6,303.3
890.5,1127,17.8,17.8,100,14.53,262,5.4,300.7,343.6,303.3
890.0,1133,17.7,17.7,100,14.51,262,5.5,300.7,343.5,303.4
889.4,1138,17.7,17.7,100,14.47,262,5.5,300.7,343.4,303.4
888.9,1143,17.6,17.6,100,14.40,262,5.5,300.7,343.2,303.3
888.3,1148,17.5,17.5,100,14.32,263,5.6,300.7,342.9,303.2
887.8,1154,17.4,17.4,100,14.21,263,5.6,300.6,342.5,303.2
887.2,1159,17.3,17.1,99,13.99,263,5.6,300.5,341.7,303.0
886.7,1164,17.1,16.9,99,13.80,263,5.6,300.4,341.1,302.9
886.1,1170,17.0,16.9,99,13.79,263,5.6,300.4,341.0,302.8
885.6,1175,17.0,16.9,100,13.83,263,5.6,300.4,341.1,302.9
885.1,1180,16.9,16.9,100,13.86,264,5.6,300.4,341.2,302.9
884.6,1185,16.9,16.9,100,13.84,264,5.6,300.4,341.2,302.9
884.1,1190,16.9,16.9,100,13.81,264,5.6,300.4,341.1,302.9
883.6,1195,16.8,16.8,100,13.79,264,5.6,300.4,341.1,302.9
883.1,1199,16.8,16.8,100,13.78,264,5.5,300.5,341.1,302.9
882.5,1204,16.8,16.8,100,13.78,264,5.5,300.5,341.1,303.0
882.0,1210,16.8,16.8,100,13.78,265,5.5,300.5,341.2,303.0
881.5,1215,16.8,16.8,100,13.77,265,5.4,300.6,341.2,303.1
880.9,1220,16.8,16.8,100,13.76,265,5.4,300.6,341.2,303.1
880.4,1226,16.7,16.7,100,13.75,265,5.3,300.6,341.2,303.1
879.8,1231,16.7,16.7,100,13.75,265,5.3,300.7,341.2,303.2
879.2,1237,16.7,16.7,100,13.75,265,5.2,300.7,341.3,303.2
878.6,1243,16.7,16.7,100,13.75,266,5.1,300.8,341.4,303.3
878.0,1248,16.7,16.7,100,13.76,266,5.1,300.8,341.5,303.3
877.4,1254,16.7,16.7,100,13.79,266,5.0,300.9,341.6,303.4
876.8,1260,16.7,16.7,100,13.81,266,4.9,301.0,341.8,303.5
876.2,1266,16.7,16.7,100,13.80,267,4.9,301.0,341.8,303.5
875.5,1273,16.7,16.7,100,13.75,267,4.8,301.0,341.6,303.5
874.9,1279,16.6,16.6,100,13.69,268,4.7,301.0,341.4,303.5
874.2,1285,16.5,16.5,100,13.64,268,4.6,301.0,341.3,303.5
873.6,1292,16.5,16.5,100,13.61,268,4.6,301.0,341.2,303.5
872.9,1298,16.5,16.5,100,13.61,269,4.5,301.1,341.3,303.5
872.2,1305,16.5,16.5,100,13.64,269,4.4,301.2,341.5,303.6
871.6,1312,16.5,16.5,100,13.66,270,4.4,301.2,341.6,303.7
870.9,1318,16.5,16.5,100,13.66,270,4.3,301.3,341.7,303.8
870.2,1325,16.5,16.5,100,13.66,271,4.2,301.3,341.7,303.8
869.6,1331,16.4,16.4,100,13.62,272,4.2,301.3,341.6,303.8
869.0,1337,16.3,16.3,100,13.57,272,4.1,301.3,341.5,303.8
868.3,1343,16.3,16.3,100,13.54,273,4.0,301.3,341.4,303.8
867.7,1350,16.3,16.3,100,13.55,274,4.0,301.4,341.5,303.9
867.1,1356,16.3,16.3,100,13.58,275,3.9,301.5,341.7,304.0
866.4,1362,16.3,16.3,100,13.62,276,3.9,301.6,341.9,304.1
865.8,1368,16.3,16.3,100,13.62,277,3.8,301.6,342.0,304.1
865.1,1375,16.3,16.3,100,13.60,278,3.8,301.7,342.0,304.1
864.5,1381,16.3,16.3,100,13.57,279,3.7,301.7,341.9,304.1
863.8,1388,16.2,16.2,100,13.55,279,3.7,301.7,341.9,304.2
863.2,1394,16.1,16.1,100,13.50,281,3.7,301.7,341.7,304.2
862.5,1401,16.1,16.1,100,13.45,282,3.6,301.7,341.6,304.2
861.8,1407,16.1,16.1,100,13.44,283,3.6,301.8,341.6,304.2
861.2,1414,16.0,16.0,100,13.43,284,3.6,301.8,341.6,304.2
860.5,1421,16.0,16.0,100,13.44,285,3.5,301.9,341.7,304.3
859.8,1428,16.1,16.1,100,13.47,286,3.5,302.0,341.9,304.4
859.1,1435,16.1,16.1,100,13.48,287,3.5,302.0,342.0,304.5
858.4,1442,16.0,16.0,100,13.45,288,3.5,302.0,341.9,304.5
857.7,1449,16.0,16.0,100,13.44,289,3.5,302.1,342.0,304.5
856.9,1456,16.0,16.0,100,13.46,290,3.5,302.2,342.2,304.6
856.2,1463,16.0,16.0,100,13.48,291,3.5,302.3,342.3,304.7
855.5,1471,16.0,16.0,100,13.49,292,3.5,302.3,342.4,304.8
854.8,1478,16.0,16.0,100,13.49,292,3.5,302.4,342.5,304.8
854.1,1485,16.0,15.9,100,13.47,293,3.5,302.4,342.5,304.9
853.4,1492,15.9,15.9,100,13.46,294,3.5,302.5,342.5,304.9
852.7,1498,15.9,15.9,100,13.44,294,3.5,302.5,342.5,305.0
852.0,1505,15.9,15.9,100,13.45,295,3.5,302.6,342.6,305.0
851.3,1512,15.9,15.9,100,13.46,295,3.5,302.6,342.7,305.1
850.6,1520,15.9,15.9,100,13.48,296,3.5,302.7,342.8,305.2
850.0,1525,15.9,15.9,100,13.48,296,3.5,302.8,342.9,305.2
849.9,1527,15.9,15.9,100,13.48,296,3.5,302.8,342.9,305.2
849.1,1534,15.9,15.9,100,13.48,296,3.5,302.8,343.0,305.3
848.4,1541,15.8,15.8,100,13.46,297,3.6,302.9,343.0,305.3
847.7,1549,15.8,15.8,100,13.42,297,3.6,302.9,342.8,305.3
847.0,1556,15.7,15.7,100,13.39,297,3.6,302.9,342.8,305.3
846.3,1563,15.7,15.7,100,13.36,297,3.6,302.9,342.7,305.4
845.6,1570,15.6,15.6,100,13.30,298,3.6,303.0,342.6,305.4
844.9,1577,15.6,15.6,100,13.31,298,3.6,303.0,342.6,305.4
844.2,1584,15.6,15.6,100,13.33,298,3.6,303.1,342.8,305.5
843.6,1590,15.6,15.6,100,13.34,299,3.6,303.1,342.9,305.6
842.9,1597,15.6,15.6,100,13.30,299,3.7,303.2,342.9,305.6
842.3,1603,15.5,15.5,100,13.24,299,3.7,303.2,342.7,305.6
841.6,1610,15.5,15.4,100,13.20,300,3.7,303.2,342.6,305.6
841.0,1616,15.4,15.4,100,13.21,300,3.7,303.2,342.6,305.6
840.4,1622,15.4,15.4,100,13.22,301,3.7,303.3,342.7,305.7
839.8,1628,15.4,15.4,100,13.22,302,3.7,303.3,342.7,305.7
839.3,1634,15.4,15.4,100,13.21,302,3.7,303.3,342.7,305.7
838.7,1640,15.4,15.4,100,13.20,303,3.8,303.4,342.8,305.8
838.1,1645,15.3,15.3,100,13.19,303,3.8,303.4,342.8,305.8
837.6,1651,15.3,15.3,100,13.18,304,3.8,303.5,342.8,305.9
837.0,1656,15.3,15.3,100,13.17,305,3.9,303.5,342.8,305.9
836.5,1662,15.3,15.3,100,13.16,305,3.9,303.5,342.8,305.9
835.9,1668,15.2,15.2,100,13.14,306,4.0,303.5,342.8,305.9
835.3,1674,15.2,15.2,100,13.12,306,4.0,303.6,342.7,305.9
834.8,1680,15.2,15.2,100,13.11,307,4.1,303.6,342.8,306.0
834.2,1686,15.2,15.2,100,13.12,307,4.2,303.7,342.9,306.0
833.5,1692,15.2,15.2,100,13.11,307,4.3,303.7,342.9,306.1
832.9,1699,15.1,15.0,100,13.00,308,4.4,303.7,342.5,306.1
832.2,1705,15.0,14.9,99,12.88,308,4.5,303.7,342.2,306.0
831.6,1712,14.9,14.8,99,12.87,308,4.6,303.7,342.1,306.0
830.9,1719,14.9,14.9,100,12.89,308,4.7,303.7,342.3,306.1
830.3,1725,14.9,14.9,100,12.90,308,4.8,303.8,342.4,306.1
829.6,1732,14.9,14.8,100,12.88,308,4.9,303.8,342.3,306.2
829.0,1738,14.8,14.8,100,12.88,308,5.0,303.8,342.4,306.2
828.4,1744,14.8,14.8,100,12.89,308,5.1,303.9,342.5,306.2
827.8,1750,14.8,14.8,100,12.88,308,5.2,303.9,342.5,306.3
827.3,1756,14.8,14.7,100,12.86,307,5.4,303.9,342.4,306.3
826.8,1761,14.7,14.7,100,12.84,307,5.5,303.9,342.4,306.3
826.2,1767,14.7,14.7,100,12.82,307,5.6,304.0,342.3,306.3
825.8,1772,14.6,14.6,100,12.79,307,5.7,304.0,342.2,306.3
825.3,1777,14.6,14.6,100,12.73,306,5.8,303.9,342.0,306.3
824.8,1782,14.5,14.5,100,12.68,306,5.8,303.9,341.9,306.3
824.3,1787,14.5,14.5,100,12.66,306,5.9,304.0,341.9,306.3
823.8,1792,14.5,14.4,100,12.66,305,6.0,304.0,341.9,306.3
823.2,1798,14.5,14.4,99,12.64,305,6.0,304.1,341.9,306.4
822.7,1803,14.4,14.3,99,12.56,305,6.1,304.1,341.7,306.4
822.2,1808,14.3,14.2,99,12.49,304,6.1,304.0,341.4,306.3
821.7,1814,14.2,14.2,100,12.45,304,6.2,304.0,341.2,306.2
821.1,1819,14.1,14.0,99,12.35,304,6.2,303.9,340.8,306.1
820.6,1825,14.0,14.0,100,12.31,304,6.2,303.8,340.7,306.1
820.1,1830,14.0,13.9,99,12.26,303,6.2,303.9,340.6,306.1
819.6,1835,14.0,13.1,94,11.63,303,6.2,303.9,338.8,306.0
819.1,1841,13.9,11.0,83,10.10,303,6.1,303.9,334.2,305.7
818.6,1846,13.8,6.5,61,7.46,303,6.1,303.8,326.5,305.2
818.1,1851,13.8,1.2,42,5.09,303,6.1,303.8,319.5,304.8
817.6,1856,13.7,-1.1,36,4.31,303,6.0,303.8,317.2,304.6
817.1,1861,13.7,-0.7,37,4.46,302,6.0,303.9,317.7,304.7
816.6,1866,13.8,-0.4,38,4.54,302,5.9,304.0,318.1,304.8
816.2,1871,13.9,-0.8,36,4.43,302,5.8,304.2,318.0,305.0
815.7,1875,14.1,-1.2,35,4.30,302,5.8,304.5,317.9,305.3
815.2,1880,14.4,-1.4,34,4.23,302,5.7,304.8,318.0,305.6
814.8,1885,14.6,-1.4,33,4.25,302,5.6,305.1,318.4,305.9
814.3,1890,14.9,-1.2,33,4.30,302,5.5,305.4,318.9,306.2
813.8,1895,15.1,-1.1,33,4.34,301,5.5,305.8,319.3,306.6
813.3,1900,15.3,-1.1,32,4.35,301,5.4,306.0,319.6,306.8
812.9,1905,15.5,-1.1,32,4.33,301,5.3,306.2,319.8,307.0
812.4,1910,15.7,-1.3,31,4.27,301,5.2,306.5,319.9,307.3
811.9,1915,16.0,-1.5,30,4.22,300,5.1,306.9,320.2,307.7
811.4,1920,16.3,-1.5,30,4.22,300,5.0,307.2,320.5,308.0
810.9,1926,16.5,-1.5,29,4.22,300,4.9,307.5,320.8,308.3
810.3,1931,16.6,-1.6,29,4.21,299,4.9,307.7,321.0,308.5
809.8,1937,16.7,-1.7,28,4.18,299,4.8,307.9,321.1,308.7
809.2,1943,16.9,-1.8,28,4.14,298,4.7,308.2,321.3,309.0
808.7,1949,17.2,-1.9,27,4.12,298,4.6,308.5,321.6,309.2
808.1,1955,17.3,-1.9,27,4.13,297,4.6,308.7,321.8,309.5
807.5,1961,17.5,-1.8,27,4.15,296,4.5,308.9,322.1,309.7
806.9,1968,17.6,-1.8,27,4.15,295,4.5,309.2,322.3,309.9
806.3,1974,17.8,-1.9,26,4.12,294,4.4,309.4,322.6,310.2
805.7,1981,18.0,-2.1,26,4.08,294,4.4,309.7,322.7,310.4
805.1,1987,18.1,-2.2,25,4.03,293,4.3,309.8,322.7,310.6
804.5,1993,18.2,-2.4,25,3.99,292,4.3,310.0,322.8,310.8
803.9,1999,18.2,-2.5,24,3.97,291,4.3,310.1,322.8,310.9
803.3,2005,18.3,-2.5,24,3.95,290,4.2,310.2,322.9,311.0
802.8,2011,18.3,-2.6,24,3.94,289,4.2,310.3,322.9,311.0
802.2,2017,18.3,-2.6,24,3.93,288,4.2,310.4,323.0,311.1
801.7,2023,18.3,-2.6,24,3.94,287,4.2,310.5,323.1,311.2
801.1,2029,18.4,-2.6,24,3.95,286,4.2,310.6,323.2,311.3
800.6,2034,18.4,-2.6,24,3.93,285,4.2,310.7,323.3,311.4
800.1,2040,18.4,-2.8,24,3.90,284,4.1,310.7,323.3,311.5
799.6,2045,18.4,-2.9,23,3.87,283,4.1,310.8,323.2,311.5
799.1,2051,18.4,-3.0,23,3.85,282,4.1,310.8,323.2,311.5
798.6,2056,18.3,-3.0,23,3.84,281,4.1,310.8,323.2,311.5
798.0,2062,18.3,-3.0,23,3.83,280,4.1,310.9,323.2,311.6
