PRES,HGHT,TEMP,DWPT,RELH,MIXR,DRCT,SPED,THTA,THTE,THTV
1014.8,31,20.3,17.9,86,12.81,272,1.2,292.2,328.7,294.5
1013.9,38,20.8,17.6,82,12.62,10,1.2,292.8,328.8,295.0
1013.3,43,20.9,17.6,81,12.58,24,1.7,293.0,328.9,295.2
1012.6,49,21.2,17.6,80,12.56,27,2.0,293.2,329.2,295.5
1011.9,55,21.3,17.5,79,12.50,28,2.2,293.4,329.2,295.6
1011.2,61,21.3,17.4,78,12.43,28,2.3,293.6,329.2,295.7
1010.6,66,21.4,17.3,78,12.40,29,2.4,293.6,329.2,295.8
1010.1,71,21.4,17.3,78,12.37,29,2.5,293.7,329.1,295.8
1009.5,76,21.3,17.2,77,12.35,30,2.6,293.7,329.1,295.9
1008.8,82,21.4,17.2,77,12.32,31,2.8,293.8,329.1,295.9
1008.2,87,21.4,17.1,77,12.29,32,2.9,293.9,329.1,296.0
1007.5,93,21.5,17.1,76,12.24,33,3.0,294.0,329.2,296.2
1006.9,99,21.6,17.1,75,12.26,34,3.1,294.2,329.4,296.4
1006.2,105,21.7,17.1,75,12.29,34,3.2,294.4,329.7,296.5
1005.5,111,21.8,17.2,75,12.33,35,3.3,294.4,329.9,296.6
1004.7,117,21.7,17.2,75,12.37,35,3.4,294.5,330.1,296.7
1004.0,123,21.6,17.2,76,12.39,36,3.5,294.4,330.1,296.6
1003.3,130,21.5,17.2,76,12.38,36,3.6,294.4,330.0,296.6
1002.5,136,21.6,17.2,76,12.44,37,3.6,294.5,330.3,296.7
1001.8,143,21.7,17.3,76,12.50,37,3.7,294.7,330.6,296.9
1001.0,149,21.7,17.3,76,12.49,38,3.7,294.8,330.8,297.0
1000.2,156,21.7,17.2,76,12.45,38,3.8,294.8,330.7,297.0
1000.0,158,21.6,17.2,76,12.44,39,3.8,294.8,330.6,297.0
999.5,163,21.6,17.2,76,12.42,39,3.8,294.8,330.6,297.0
998.7,170,21.5,17.2,76,12.43,39,3.9,294.7,330.5,296.9
997.9,176,21.3,17.1,77,12.41,39,3.9,294.6,330.4,296.8
997.2,183,21.2,17.1,77,12.39,40,4.0,294.6,330.2,296.8
996.4,189,21.1,17.1,78,12.39,40,4.0,294.5,330.2,296.7
995.7,195,21.0,17.1,78,12.40,40,4.1,294.5,330.2,296.7
995.0,202,21.0,17.1,79,12.42,40,4.1,294.5,330.3,296.7
994.3,208,20.9,17.1,79,12.45,40,4.2,294.6,330.4,296.8
993.6,214,20.9,17.1,79,12.46,41,4.2,294.6,330.5,296.8
992.8,220,20.9,17.0,79,12.40,41,4.3,294.6,330.3,296.8
992.1,227,20.8,17.0,79,12.35,41,4.4,294.6,330.2,296.8
991.4,233,20.8,17.0,79,12.36,41,4.5,294.6,330.2,296.8
990.7,239,20.7,17.0,79,12.37,41,4.6,294.6,330.3,296.8
990.0,245,20.6,16.9,79,12.35,41,4.7,294.6,330.2,296.8
989.3,251,20.6,16.9,79,12.33,41,4.8,294.6,330.1,296.8
988.7,257,20.6,16.9,80,12.34,41,4.9,294.7,330.2,296.8
988.0,263,20.5,16.9,80,12.34,41,5.0,294.7,330.2,296.8
987.3,269,20.5,16.9,80,12.35,41,5.1,294.7,330.2,296.9
986.7,275,20.4,16.9,80,12.35,41,5.2,294.7,330.2,296.9
986.0,280,20.4,16.9,80,12.35,42,5.3,294.7,330.2,296.9
985.4,286,20.3,16.9,81,12.35,42,5.4,294.7,330.2,296.9
984.8,291,20.3,16.8,81,12.35,42,5.5,294.7,330.3,296.9
984.2,296,20.2,16.8,81,12.34,42,5.6,294.7,330.3,296.9
983.6,301,20.2,16.8,81,12.32,42,5.8,294.7,330.2,296.9
983.1,306,20.1,16.7,81,12.28,42,5.9,294.7,330.1,296.9
982.5,311,20.1,16.6,80,12.21,42,5.9,294.7,329.9,296.9
982.0,316,20.1,16.5,80,12.14,42,6.0,294.8,329.7,296.9
981.5,320,20.1,16.5,80,12.11,42,6.1,294.8,329.7,297.0
980.9,325,20.1,16.5,80,12.11,42,6.2,294.9,329.8,297.0
980.4,330,20.0,16.5,80,12.12,42,6.3,294.8,329.8,297.0
979.9,334,20.0,16.5,80,12.12,42,6.3,294.8,329.7,297.0
979.3,339,19.9,16.5,80,12.12,43,6.4,294.8,329.8,297.0
978.7,344,19.9,16.5,81,12.15,43,6.4,294.9,329.9,297.0
978.1,350,19.8,16.6,82,12.22,43,6.5,294.8,330.0,297.0
977.5,355,19.7,16.6,82,12.26,43,6.5,294.8,330.1,297.0
976.9,360,19.7,16.6,82,12.22,43,6.6,294.8,330.0,296.9
976.3,366,19.7,16.4,82,12.14,43,6.6,294.8,329.8,297.0
975.7,371,19.7,16.4,81,12.10,44,6.6,294.9,329.8,297.0
975.1,377,19.6,16.5,82,12.19,44,6.7,294.8,330.0,297.0
974.4,382,19.5,16.7,84,12.33,44,6.7,294.8,330.3,297.0
973.8,388,19.4,16.7,84,12.36,44,6.7,294.7,330.3,296.9
973.1,394,19.3,16.6,84,12.30,45,6.8,294.7,330.1,296.9
972.4,400,19.3,16.5,84,12.21,45,6.8,294.7,329.9,296.9
971.8,406,19.2,16.4,84,12.14,45,6.8,294.8,329.7,296.9
971.1,412,19.2,16.2,83,12.05,45,6.8,294.8,329.5,297.0
970.4,418,19.2,16.2,83,12.02,45,6.8,294.9,329.6,297.0
969.7,425,19.2,16.2,83,12.03,46,6.9,294.9,329.6,297.0
969.0,431,19.1,16.1,83,11.97,46,6.9,294.8,329.3,297.0
968.2,437,19.0,16.0,82,11.88,46,6.9,294.9,329.1,297.0
967.5,444,19.0,15.9,82,11.83,46,6.9,295.0,329.1,297.0
966.8,450,19.0,15.9,82,11.80,46,6.9,295.0,329.0,297.1
966.1,456,18.9,15.8,82,11.80,46,6.9,295.0,329.0,297.1
965.5,462,18.9,15.9,83,11.83,46,6.9,295.0,329.1,297.1
964.8,468,18.8,16.0,83,11.90,46,6.9,295.0,329.3,297.1
964.2,473,18.8,16.0,84,11.98,46,6.9,295.0,329.5,297.1
963.5,479,18.7,16.1,85,11.99,46,6.9,294.9,329.5,297.1
962.9,485,18.6,16.0,84,11.92,46,6.9,295.0,329.3,297.1
962.3,491,18.6,15.9,84,11.87,46,6.8,295.0,329.2,297.1
961.6,497,18.6,15.9,84,11.86,46,6.8,295.0,329.2,297.1
960.9,503,18.5,15.9,84,11.87,46,6.8,295.0,329.3,297.1
960.2,509,18.5,15.9,85,11.90,46,6.7,295.0,329.4,297.1
959.5,515,18.4,15.9,85,11.93,46,6.7,295.0,329.5,297.1
958.8,521,18.4,15.9,85,11.91,46,6.6,295.0,329.4,297.1
958.1,528,18.3,15.8,85,11.85,46,6.6,295.0,329.2,297.1
957.4,534,18.2,15.7,85,11.82,46,6.5,295.0,329.1,297.1
956.7,540,18.1,15.7,86,11.82,45,6.5,295.0,329.1,297.1
956.0,546,18.1,15.7,86,11.83,45,6.4,295.0,329.1,297.1
955.3,553,18.0,15.7,86,11.84,45,6.4,295.0,329.2,297.1
954.6,559,18.0,15.7,87,11.83,45,6.3,295.0,329.1,297.1
954.0,565,17.9,15.7,87,11.82,45,6.3,295.0,329.1,297.1
953.3,571,17.8,15.7,87,11.81,45,6.2,295.0,329.1,297.1
952.6,578,17.8,15.6,87,11.81,46,6.2,295.0,329.1,297.1
951.9,584,17.7,15.6,87,11.81,46,6.1,295.0,329.1,297.1
951.2,590,17.7,15.6,88,11.82,46,6.1,295.0,329.1,297.1
950.5,596,17.6,15.6,88,11.82,46,6.0,295.0,329.1,297.1
949.8,603,17.5,15.6,88,11.81,46,6.0,295.0,329.1,297.1
949.1,609,17.5,15.6,89,11.80,46,6.0,295.0,329.1,297.1
948.4,615,17.4,15.6,89,11.80,47,5.9,295.0,329.0,297.1
947.7,621,17.4,15.6,89,11.81,47,5.9,295.0,329.1,297.1
947.0,628,17.3,15.6,89,11.82,47,5.9,295.0,329.1,297.1
946.3,634,17.3,15.6,90,11.84,48,5.8,295.0,329.2,297.1
945.6,640,17.2,15.6,90,11.86,48,5.8,295.0,329.2,297.1
944.9,647,17.1,15.6,91,11.86,48,5.8,295.0,329.2,297.1
944.2,653,17.1,15.5,91,11.83,49,5.7,295.0,329.2,297.1
943.6,659,17.0,15.5,91,11.81,49,5.7,295.0,329.1,297.1
942.9,665,17.0,15.5,91,11.81,50,5.7,295.0,329.1,297.1
942.2,671,16.9,15.5,92,11.84,50,5.7,295.0,329.2,297.1
941.6,677,16.8,15.6,92,11.88,50,5.6,295.0,329.3,297.1
940.9,683,16.8,15.5,92,11.87,51,5.6,295.0,329.3,297.1
940.3,689,16.7,15.4,92,11.80,51,5.6,295.0,329.0,297.1
939.7,694,16.7,15.3,92,11.72,52,5.5,295.0,328.8,297.1
939.0,700,16.6,15.3,92,11.70,52,5.5,295.0,328.8,297.1
938.4,706,16.6,15.3,92,11.73,52,5.5,295.0,328.9,297.1
937.8,712,16.5,15.4,93,11.79,53,5.5,295.0,329.1,297.1
937.1,718,16.5,15.4,94,11.86,53,5.4,295.1,329.3,297.2
936.5,723,16.4,15.5,94,11.89,53,5.4,295.1,329.4,297.2
935.8,729,16.4,15.4,94,11.87,54,5.4,295.1,329.3,297.2
935.2,735,16.3,15.4,94,11.85,54,5.3,295.0,329.2,297.1
934.5,741,16.2,15.4,95,11.86,54,5.3,295.0,329.3,297.1
933.9,747,16.2,15.4,95,11.85,55,5.3,295.0,329.2,297.1
933.3,752,16.1,15.3,95,11.80,55,5.3,295.0,329.1,297.1
932.8,757,16.1,15.2,95,11.74,55,5.3,295.0,328.9,297.1
932.2,762,16.0,15.2,95,11.71,55,5.2,295.0,328.8,297.1
931.7,767,16.0,15.2,95,11.72,56,5.2,295.0,328.8,297.1
931.1,772,15.9,15.2,95,11.75,56,5.2,295.0,328.9,297.1
930.6,777,15.9,15.3,96,11.79,56,5.2,295.1,329.1,297.1
930.0,782,15.9,15.3,96,11.81,56,5.2,295.1,329.1,297.1
929.5,787,15.8,15.2,96,11.77,56,5.2,295.0,329.0,297.1
928.9,792,15.7,15.1,96,11.70,56,5.1,295.0,328.8,297.1
928.4,797,15.7,15.0,95,11.59,56,5.1,295.0,328.5,297.1
927.8,802,15.7,14.8,95,11.47,56,5.1,295.1,328.2,297.1
927.3,808,15.6,14.7,94,11.40,56,5.1,295.1,328.0,297.1
926.7,813,15.6,14.7,94,11.40,56,5.1,295.1,328.0,297.1
926.1,819,15.6,14.7,94,11.39,56,5.1,295.1,328.0,297.1
925.5,824,15.5,14.6,94,11.38,56,5.0,295.1,328.0,297.1
925.0,828,15.5,14.6,95,11.39,56,5.0,295.1,328.0,297.1
924.9,830,15.5,14.6,95,11.39,56,5.0,295.1,328.0,297.1
924.3,835,15.4,14.6,95,11.40,55,5.0,295.1,328.0,297.1
923.7,841,15.3,14.6,95,11.39,55,5.0,295.1,328.0,297.1
923.1,846,15.3,14.6,95,11.37,54,4.9,295.1,328.0,297.1
922.5,851,15.3,14.5,96,11.36,54,4.9,295.1,327.9,297.1
922.0,856,15.2,14.5,96,11.36,53,4.9,295.1,327.9,297.1
921.4,861,15.2,14.5,96,11.35,53,4.8,295.2,327.9,297.2
920.9,866,15.1,14.5,96,11.32,52,4.8,295.2,327.9,297.2
920.3,872,15.1,14.5,96,11.32,51,4.7,295.2,327.9,297.2
919.8,877,15.1,14.4,96,11.31,50,4.7,295.2,327.8,297.2
919.2,882,15.0,14.4,96,11.31,49,4.6,295.2,327.9,297.2
918.6,887,15.0,14.4,96,11.30,48,4.6,295.2,327.8,297.2
918.0,893,14.9,14.4,97,11.29,47,4.6,295.2,327.8,297.2
917.4,899,14.9,14.4,97,11.28,46,4.5,295.2,327.8,297.2
916.8,904,14.8,14.4,97,11.29,44,4.5,295.2,327.8,297.2
916.1,910,14.8,14.4,98,11.32,43,4.4,295.2,328.0,297.2
915.5,916,14.7,14.5,98,11.38,42,4.4,295.2,328.1,297.3
914.8,922,14.7,14.6,99,11.49,40,4.3,295.3,328.5,297.3
914.2,928,14.7,14.7,100,11.58,39,4.3,295.3,328.8,297.4
913.5,934,14.7,14.7,100,11.57,38,4.3,295.4,328.8,297.4
912.9,940,14.7,14.5,99,11.48,37,4.3,295.4,328.6,297.4
912.3,946,14.6,14.4,98,11.35,35,4.3,295.4,328.2,297.4
911.7,952,14.6,14.2,98,11.26,34,4.2,295.4,328.0,297.4
911.1,957,14.6,14.1,97,11.19,33,4.2,295.5,327.8,297.5
910.5,963,14.5,14.1,97,11.17,32,4.2,295.5,327.8,297.5
909.9,969,14.5,14.1,97,11.19,31,4.2,295.5,327.9,297.5
909.3,974,14.5,14.2,98,11.25,30,4.2,295.5,328.1,297.5
908.7,980,14.4,14.2,99,11.28,30,4.3,295.5,328.2,297.5
908.1,985,14.4,14.1,99,11.23,29,4.3,295.5,328.0,297.5
907.6,990,14.3,14.1,98,11.20,28,4.3,295.5,328.0,297.5
907.1,995,14.3,14.1,99,11.22,28,4.3,295.6,328.0,297.6
906.6,999,14.3,14.1,99,11.24,27,4.3,295.6,328.1,297.6
906.1,1004,14.2,14.1,99,11.21,27,4.3,295.6,328.0,297.6
905.6,1008,14.2,14.0,99,11.18,27,4.3,295.6,327.9,297.6
905.2,1012,14.2,14.0,99,11.19,27,4.3,295.6,328.0,297.6
904.7,1017,14.2,14.1,99,11.22,27,4.3,295.7,328.1,297.6
904.2,1021,14.2,14.1,100,11.27,26,4.3,295.7,328.4,297.7
903.8,1026,14.2,14.1,100,11.29,26,4.3,295.7,328.5,297.8
903.2,1030,14.1,14.1,100,11.26,26,4.3,295.8,328.4,297.8
902.7,1035,14.1,14.0,99,11.21,26,4.3,295.8,328.3,297.8
902.1,1041,14.1,13.9,99,11.16,26,4.3,295.8,328.2,297.8
901.6,1046,14.1,13.8,98,11.07,26,4.3,295.8,327.9,297.8
900.9,1052,14.0,13.7,98,11.00,26,4.2,295.9,327.8,297.8
900.3,1058,14.0,13.7,98,10.98,26,4.2,295.9,327.7,297.8
899.7,1064,14.0,13.5,97,10.91,25,4.2,295.9,327.5,297.8
899.1,1069,13.9,13.3,96,10.76,25,4.1,295.9,327.2,297.9
898.5,1075,14.0,13.2,95,10.66,25,4.1,296.0,327.0,297.9
897.9,1081,14.0,13.3,95,10.73,25,4.0,296.1,327.3,298.0
897.3,1087,13.9,13.5,97,10.90,24,3.9,296.1,327.8,298.1
896.6,1092,13.9,13.4,97,10.85,24,3.9,296.1,327.6,298.0
896.0,1099,13.8,13.1,95,10.62,23,3.8,296.1,327.0,298.0
895.3,1105,13.8,12.8,94,10.43,23,3.8,296.2,326.5,298.0
894.7,1111,13.9,12.7,92,10.35,22,3.7,296.3,326.4,298.1
894.0,1118,13.9,12.6,92,10.34,21,3.7,296.3,326.4,298.2
893.3,1124,13.8,12.6,93,10.34,21,3.6,296.3,326.4,298.2
892.6,1130,13.7,12.6,93,10.36,20,3.6,296.4,326.5,298.2
892.0,1136,13.7,12.7,94,10.40,19,3.5,296.4,326.6,298.2
891.4,1142,13.6,12.8,95,10.49,18,3.5,296.4,326.9,298.2
890.8,1148,13.5,13.0,96,10.59,18,3.4,296.3,327.1,298.2
890.2,1153,13.4,13.0,97,10.64,17,3.4,296.2,327.2,298.1
889.7,1158,13.3,13.0,98,10.61,16,3.4,296.2,327.1,298.1
889.1,1164,13.3,12.9,97,10.56,16,3.4,296.3,326.9,298.1
888.6,1168,13.3,12.8,96,10.48,15,3.3,296.3,326.8,298.1
888.1,1173,13.3,12.6,95,10.38,15,3.3,296.3,326.6,298.2
887.6,1178,13.4,12.6,95,10.36,15,3.3,296.4,326.6,298.3
887.0,1184,13.3,12.5,95,10.33,15,3.3,296.4,326.5,298.2
886.5,1189,13.3,12.4,94,10.26,15,3.3,296.5,326.3,298.3
885.9,1194,13.4,12.3,93,10.17,15,3.3,296.6,326.3,298.4
885.3,1200,13.5,12.1,91,10.09,15,3.2,296.8,326.2,298.6
884.7,1206,13.6,12.0,90,10.03,16,3.2,297.0,326.2,298.8
884.1,1212,13.6,12.0,90,10.00,17,3.2,297.0,326.2,298.8
883.4,1218,13.5,12.0,90,9.99,18,3.2,297.0,326.2,298.8
882.8,1223,13.4,11.9,90,9.96,19,3.1,297.0,326.1,298.8
882.3,1229,13.4,11.8,90,9.91,20,3.1,296.9,325.9,298.7
881.7,1234,13.3,11.7,90,9.84,21,3.1,297.0,325.7,298.7
881.2,1239,13.4,11.6,89,9.77,22,3.0,297.1,325.6,298.8
880.6,1244,13.4,11.5,88,9.73,24,3.0,297.1,325.6,298.9
880.1,1249,13.4,11.5,89,9.76,25,2.9,297.2,325.7,298.9
879.6,1254,13.3,11.6,89,9.83,26,2.9,297.2,325.9,298.9
879.1,1259,13.3,11.8,91,9.94,28,2.9,297.2,326.2,298.9
878.6,1264,13.2,12.0,92,10.07,29,2.8,297.1,326.5,298.9
878.1,1269,13.1,12.1,94,10.18,30,2.7,297.0,326.7,298.9
877.6,1274,12.9,12.2,96,10.25,31,2.7,296.9,326.8,298.7
877.0,1279,12.7,12.3,97,10.29,32,2.6,296.8,326.8,298.6
876.5,1284,12.6,12.3,98,10.29,33,2.6,296.7,326.7,298.6
876.0,1289,12.6,12.2,97,10.24,34,2.5,296.8,326.6,298.6
875.5,1294,12.6,12.1,97,10.16,34,2.4,296.8,326.4,298.6
875.0,1298,12.5,12.0,96,10.10,35,2.3,296.8,326.3,298.6
874.6,1303,12.5,11.9,96,10.06,34,2.3,296.8,326.2,298.6
874.1,1308,12.5,11.8,96,10.01,34,2.2,296.8,326.0,298.6
873.5,1313,12.5,11.7,95,9.94,33,2.1,296.9,325.9,298.7
873.0,1318,12.6,11.7,94,9.92,32,2.0,297.0,326.0,298.8
872.5,1323,12.5,11.7,95,9.97,31,1.9,297.0,326.2,298.8
871.9,1328,12.5,11.8,96,10.05,29,1.8,297.0,326.4,298.8
871.4,1334,12.3,11.9,97,10.11,27,1.8,296.9,326.4,298.7
870.8,1339,12.2,12.0,98,10.14,25,1.7,296.9,326.4,298.7
870.3,1344,12.2,11.9,99,10.14,22,1.6,296.9,326.4,298.7
869.7,1349,12.1,11.9,99,10.13,18,1.5,296.9,326.5,298.7
869.2,1354,12.1,11.9,99,10.13,15,1.4,296.9,326.5,298.7
868.8,1359,12.1,11.9,99,10.13,10,1.4,296.9,326.5,298.7
868.4,1363,12.0,11.9,99,10.13,5,1.3,296.9,326.5,298.7
868.0,1367,12.0,11.9,99,10.13,360,1.3,296.9,326.5,298.8
867.6,1370,12.0,11.9,99,10.14,355,1.2,297.0,326.6,298.8
867.2,1374,12.0,11.9,99,10.17,349,1.2,297.0,326.7,298.8
866.8,1378,12.0,11.9,99,10.17,343,1.1,297.0,326.7,298.9
866.4,1382,12.0,11.9,99,10.13,336,1.1,297.0,326.6,298.9
865.9,1386,12.0,11.8,99,10.10,330,1.1,297.1,326.6,298.9
865.5,1390,11.9,11.8,99,10.07,324,1.1,297.1,326.5,298.9
865.0,1395,11.9,11.7,99,10.03,318,1.1,297.1,326.4,298.9
864.6,1399,11.9,11.6,98,9.98,311,1.2,297.1,326.3,298.9
864.1,1404,11.8,11.6,98,9.96,306,1.2,297.1,326.2,298.9
863.6,1409,11.8,11.6,98,9.96,300,1.2,297.2,326.3,298.9
863.1,1414,11.8,11.6,98,9.96,295,1.3,297.2,326.3,299.0
862.6,1418,11.8,11.5,99,9.96,290,1.3,297.2,326.3,299.0
862.1,1423,11.7,11.5,99,9.96,286,1.4,297.2,326.3,299.0
861.6,1428,11.7,11.5,99,9.97,282,1.5,297.2,326.4,299.0
861.1,1433,11.7,11.5,99,9.97,279,1.5,297.3,326.4,299.0
860.7,1438,11.6,11.5,99,9.95,275,1.6,297.3,326.3,299.0
860.2,1442,11.6,11.5,99,9.93,272,1.7,297.3,326.3,299.1
859.7,1447,11.6,11.4,99,9.91,269,1.7,297.3,326.3,299.1
859.3,1451,11.6,11.4,99,9.89,267,1.8,297.3,326.3,299.1
858.8,1456,11.5,11.4,99,9.88,264,1.9,297.3,326.3,299.1
858.3,1460,11.5,11.4,99,9.90,262,2.0,297.4,326.3,299.1
857.9,1465,11.5,11.4,99,9.92,260,2.0,297.4,326.4,299.2
857.4,1469,11.5,11.4,100,9.95,257,2.1,297.4,326.5,299.2
856.9,1474,11.5,11.5,100,9.97,255,2.1,297.5,326.7,299.3
856.4,1479,11.5,11.5,100,9.99,253,2.2,297.5,326.8,299.3
855.9,1484,11.5,11.4,100,9.97,251,2.2,297.6,326.8,299.4
855.4,1489,11.5,11.4,100,9.94,249,2.3,297.6,326.7,299.4
854.8,1494,11.4,11.3,99,9.90,248,2.3,297.6,326.6,299.4
854.3,1500,11.4,11.2,99,9.83,246,2.3,297.6,326.4,299.4
853.8,1505,11.3,11.1,98,9.75,244,2.3,297.6,326.2,299.3
853.3,1510,11.3,11.0,98,9.72,242,2.3,297.6,326.1,299.4
852.8,1514,11.3,11.0,98,9.72,240,2.3,297.6,326.1,299.4
852.3,1519,11.2,11.0,99,9.74,238,2.3,297.7,326.2,299.4
851.9,1523,11.3,11.1,99,9.81,236,2.3,297.7,326.5,299.5
851.4,1528,11.3,11.3,100,9.91,234,2.3,297.8,326.9,299.6
851.0,1532,11.3,11.3,100,9.94,232,2.2,297.9,327.0,299.7
850.5,1537,11.3,11.3,100,9.93,230,2.2,297.9,327.0,299.7
850.0,1542,11.3,11.3,100,9.91,230,2.2,297.9,327.0,299.7
849.5,1547,11.2,11.2,100,9.90,227,2.1,298.0,327.0,299.7
848.9,1552,11.2,11.2,100,9.86,226,2.1,298.0,326.9,299.8
848.4,1558,11.2,11.1,99,9.82,224,2.0,298.0,326.8,299.8
847.9,1563,11.1,11.0,99,9.80,223,2.0,298.0,326.8,299.8
847.3,1568,11.1,11.0,99,9.77,222,2.0,298.0,326.6,299.7
846.7,1574,11.0,10.9,99,9.72,222,1.9,298.0,326.5,299.7
846.2,1580,10.9,10.7,99,9.62,222,1.9,298.0,326.2,299.7
845.6,1585,10.8,10.5,98,9.46,222,1.9,297.9,325.7,299.6
845.0,1591,10.7,10.1,96,9.23,223,1.9,297.8,324.9,299.5
844.4,1597,10.5,9.8,95,9.07,224,1.9,297.7,324.4,299.4
843.8,1603,10.4,9.7,95,8.99,226,1.9,297.7,324.1,299.3
843.2,1609,10.4,9.6,95,8.93,228,1.9,297.7,324.0,299.3
842.6,1615,10.4,9.4,94,8.84,230,2.0,297.8,323.7,299.4
842.0,1621,10.4,9.3,93,8.79,232,2.1,297.8,323.6,299.4
841.3,1627,10.3,9.4,94,8.81,235,2.1,297.8,323.8,299.4
840.7,1633,10.3,9.3,94,8.80,237,2.3,297.8,323.7,299.4
840.1,1639,10.3,9.2,93,8.74,239,2.4,297.9,323.6,299.5
839.5,1645,10.3,9.2,93,8.72,242,2.5,297.9,323.6,299.5
838.9,1651,10.2,9.1,93,8.68,244,2.7,297.9,323.5,299.5
838.3,1658,10.2,8.9,91,8.55,245,2.9,298.0,323.2,299.5
837.7,1664,10.3,8.6,89,8.37,247,3.1,298.1,322.8,299.6
837.0,1671,10.3,8.3,87,8.23,248,3.3,298.2,322.6,299.7
836.3,1678,10.3,8.3,88,8.26,249,3.5,298.3,322.7,299.8
835.6,1685,10.2,8.6,90,8.43,250,3.7,298.2,323.1,299.8
834.8,1692,10.0,8.7,92,8.51,251,3.9,298.1,323.2,299.7
834.1,1700,9.9,8.3,90,8.26,252,4.2,298.1,322.5,299.6
833.4,1706,10.0,7.3,83,7.72,252,4.4,298.3,321.1,299.7
832.8,1713,10.1,6.4,78,7.24,253,4.6,298.4,319.9,299.7
832.1,1719,10.2,5.6,73,6.85,253,4.8,298.6,319.0,299.8
831.6,1725,10.2,4.8,69,6.50,253,5.0,298.6,318.0,299.8
831.0,1730,10.2,4.3,67,6.27,253,5.2,298.8,317.5,299.9
830.5,1736,10.3,4.1,66,6.21,254,5.4,298.9,317.5,300.0
829.9,1741,10.4,3.7,63,6.02,254,5.5,299.0,317.1,300.1
829.4,1747,10.6,2.7,58,5.62,254,5.7,299.3,316.3,300.4
828.8,1753,10.7,2.4,56,5.50,254,5.8,299.5,316.1,300.5
828.2,1759,10.6,2.4,57,5.51,254,6.0,299.4,316.1,300.4
827.6,1765,10.7,0.9,51,4.92,254,6.1,299.6,314.6,300.5
827.0,1771,11.4,-2.8,37,3.77,254,6.2,300.5,312.1,301.1
826.3,1777,12.4,-6.6,26,2.82,254,6.3,301.5,310.4,302.0
825.7,1784,12.9,-8.0,23,2.53,254,6.4,302.1,310.1,302.6
825.1,1790,13.1,-7.9,22,2.56,254,6.5,302.4,310.6,302.9
824.5,1797,13.4,-7.9,22,2.55,254,6.5,302.7,310.8,303.2
823.9,1803,13.5,-8.5,21,2.45,254,6.6,303.0,310.8,303.4
823.3,1808,13.7,-9.1,20,2.33,255,6.7,303.2,310.6,303.6
822.8,1814,13.7,-9.9,18,2.20,255,6.7,303.3,310.4,303.7
822.3,1819,13.8,-10.6,17,2.08,255,6.8,303.4,310.1,303.8
821.8,1824,13.8,-10.9,17,2.03,255,6.8,303.5,310.1,303.9
821.3,1829,13.8,-10.6,17,2.08,255,6.9,303.6,310.3,304.0
820.8,1834,13.8,-9.9,18,2.19,255,6.9,303.6,310.7,304.0
820.2,1840,13.8,-9.3,19,2.30,255,7.0,303.7,311.1,304.1
819.7,1846,13.9,-9.0,20,2.36,256,7.0,303.8,311.3,304.2
819.1,1852,13.9,-9.1,19,2.34,256,7.0,303.8,311.3,304.3
818.5,1858,13.9,-9.4,19,2.30,256,7.1,303.9,311.3,304.3
817.9,1864,13.8,-9.6,19,2.26,256,7.1,303.9,311.2,304.4
817.3,1869,13.8,-9.6,19,2.25,256,7.1,304.0,311.2,304.4
816.8,1875,13.7,-9.6,19,2.26,256,7.1,304.0,311.2,304.4
816.3,1881,13.7,-9.5,19,2.28,257,7.1,304.0,311.3,304.4
815.7,1886,13.7,-9.3,19,2.32,257,7.1,304.0,311.4,304.4
815.2,1891,13.6,-9.2,20,2.34,257,7.1,304.0,311.5,304.4
814.7,1896,13.6,-9.1,20,2.36,257,7.1,304.0,311.5,304.4
814.2,1902,13.5,-8.9,20,2.39,256,7.0,304.0,311.6,304.4
813.7,1907,13.5,-8.6,21,2.45,256,7.0,304.0,311.8,304.4
813.2,1912,13.4,-8.2,21,2.53,256,7.0,304.0,312.1,304.5
812.7,1917,13.4,-7.7,22,2.63,256,6.9,304.0,312.4,304.5
812.2,1922,13.3,-7.2,23,2.74,255,6.9,304.0,312.7,304.5
811.7,1928,13.3,-6.8,24,2.82,255,6.9,304.0,313.0,304.5
811.1,1934,13.2,-6.8,24,2.84,254,6.8,304.0,313.0,304.5
810.6,1940,13.2,-7.0,24,2.79,254,6.8,304.0,312.8,304.5
810.0,1946,13.2,-7.9,22,2.60,253,6.7,304.1,312.4,304.6
809.4,1952,13.2,-9.5,20,2.30,252,6.7,304.2,311.6,304.7
808.8,1957,13.4,-11.5,17,1.96,252,6.7,304.4,310.8,304.8
808.3,1963,13.5,-13.2,14,1.71,251,6.6,304.7,310.2,305.0
807.8,1969,13.7,-14.3,13,1.57,250,6.6,304.8,310.0,305.1
807.3,1974,13.8,-15.0,12,1.48,249,6.6,305.0,309.9,305.3
806.8,1978,13.8,-15.4,12,1.43,248,6.6,305.1,309.9,305.4
806.4,1983,13.9,-15.6,12,1.41,247,6.6,305.2,309.9,305.5
806.0,1987,13.9,-15.6,11,1.41,247,6.6,305.3,310.0,305.6
805.6,1991,13.9,-15.6,11,1.41,246,6.6,305.4,310.1,305.6
805.2,1996,13.9,-15.5,12,1.43,245,6.6,305.4,310.1,305.7
804.7,2000,14.0,-15.2,12,1.45,245,6.6,305.5,310.3,305.8
804.3,2005,14.0,-15.0,12,1.49,244,6.7,305.5,310.4,305.8
803.9,2009,13.9,-14.8,12,1.51,244,6.7,305.6,310.5,305.8
803.4,2014,13.9,-14.6,12,1.53,244,6.7,305.6,310.6,305.9
802.9,2020,13.9,-14.4,13,1.56,243,6.8,305.6,310.7,305.9
802.3,2025,13.9,-14.3,13,1.58,243,6.8,305.7,310.9,305.9
801.8,2031,13.8,-14.2,13,1.59,243,6.8,305.7,310.9,306.0
