PRES,HGHT,TEMP,DWPT,RELH,MIXR,DRCT,SPED,THTA,THTE,THTV
1011.9,31,22.2,20.1,88,14.83,261,3.7,294.4,336.9,297.0
1011.2,37,22.6,20.2,86,14.91,268,2.3,294.8,337.7,297.4
1010.5,43,22.9,20.2,85,14.95,274,1.9,295.1,338.1,297.8
1009.7,49,23.3,20.5,84,15.16,276,1.8,295.6,339.4,298.3
1009.2,54,23.5,20.4,83,15.15,276,1.9,295.9,339.7,298.6
1008.7,59,23.6,20.3,82,15.03,276,2.0,296.0,339.4,298.7
1008.1,64,23.6,20.3,82,15.05,275,2.0,296.1,339.6,298.8
1007.3,70,23.8,20.4,81,15.14,275,2.1,296.3,340.2,299.0
1006.7,76,24.0,20.5,81,15.25,275,2.1,296.6,340.7,299.3
1006.0,81,24.2,20.7,81,15.42,274,2.1,296.8,341.5,299.5
1005.4,87,24.2,20.7,81,15.51,274,2.1,296.9,341.9,299.7
1004.7,93,24.2,20.7,81,15.50,274,2.1,297.0,341.9,299.7
1004.0,99,24.1,20.7,81,15.52,274,2.1,296.9,342.0,299.7
1003.4,105,24.1,20.8,82,15.64,273,2.0,297.0,342.4,299.8
1002.7,111,24.1,20.9,82,15.75,273,2.0,297.1,342.8,299.9
1002.1,116,24.1,20.9,82,15.72,272,1.9,297.1,342.7,299.8
1001.4,122,24.0,20.8,82,15.63,271,1.9,297.0,342.4,299.8
1000.8,128,23.9,20.7,82,15.53,271,1.8,297.0,342.0,299.7
1000.1,133,23.8,20.7,83,15.56,270,1.7,297.0,342.1,299.7
1000.0,134,23.8,20.7,83,15.58,268,1.6,296.9,342.1,299.7
999.5,139,23.8,20.8,83,15.64,268,1.6,297.0,342.4,299.8
998.8,145,23.8,20.8,84,15.71,267,1.5,297.0,342.6,299.8
998.2,151,23.7,20.9,84,15.76,265,1.4,297.0,342.8,299.8
997.5,156,23.7,20.9,84,15.81,264,1.4,297.1,342.9,299.9
996.8,162,23.7,20.9,85,15.83,261,1.3,297.1,343.0,299.9
996.1,168,23.6,20.9,85,15.81,259,1.2,297.1,343.0,299.9
995.5,174,23.6,20.9,85,15.79,256,1.1,297.1,342.9,299.9
994.8,180,23.5,20.8,85,15.77,252,1.0,297.1,342.9,299.9
994.1,186,23.5,20.8,85,15.78,248,0.9,297.1,342.9,299.9
993.4,192,23.4,20.8,86,15.80,242,0.8,297.1,343.0,299.9
992.7,198,23.3,20.8,86,15.80,235,0.7,297.1,343.0,299.9
992.1,204,23.3,20.8,86,15.79,226,0.6,297.1,342.9,299.9
991.4,210,23.2,20.9,87,15.84,215,0.6,297.1,343.1,299.9
990.8,215,23.2,20.9,87,15.92,203,0.5,297.1,343.4,300.0
990.2,221,23.2,21.0,87,16.00,188,0.5,297.2,343.6,300.0
989.6,226,23.2,21.0,87,16.00,174,0.5,297.2,343.6,300.0
989.1,230,23.1,21.0,88,15.98,161,0.6,297.2,343.6,300.1
988.5,235,23.1,21.0,88,15.99,150,0.7,297.2,343.7,300.1
988.0,240,23.1,21.0,88,16.01,141,0.8,297.2,343.7,300.1
987.5,245,23.0,21.0,88,16.05,135,0.9,297.2,343.9,300.1
986.9,250,23.0,21.1,89,16.12,129,1.0,297.3,344.1,300.2
986.3,255,23.0,21.0,89,16.12,125,1.1,297.3,344.2,300.2
985.8,260,23.0,21.0,89,16.10,122,1.2,297.3,344.1,300.2
985.2,265,22.9,21.0,89,16.11,119,1.4,297.4,344.2,300.2
984.5,271,22.9,21.0,89,16.11,117,1.5,297.4,344.2,300.2
983.9,276,22.8,21.0,89,16.08,114,1.6,297.3,344.1,300.2
983.3,282,22.8,21.0,89,16.09,113,1.8,297.4,344.1,300.2
982.7,287,22.8,21.0,90,16.12,111,1.9,297.4,344.2,300.2
982.1,292,22.7,21.0,90,16.10,110,2.0,297.4,344.2,300.3
981.5,298,22.7,20.9,90,16.07,109,2.2,297.4,344.1,300.3
980.9,303,22.6,20.9,90,16.07,108,2.3,297.4,344.1,300.3
980.4,308,22.6,20.9,90,16.10,108,2.4,297.4,344.2,300.3
979.8,313,22.5,20.9,91,16.10,107,2.5,297.4,344.2,300.3
979.2,319,22.5,20.9,91,16.10,106,2.6,297.4,344.2,300.3
978.5,324,22.4,20.9,91,16.07,106,2.7,297.4,344.1,300.3
977.9,330,22.4,20.8,91,16.02,105,2.8,297.5,344.0,300.3
977.2,336,22.5,20.7,90,15.97,105,2.8,297.6,344.0,300.4
976.6,341,22.4,20.7,90,15.94,104,2.9,297.5,343.9,300.4
976.0,347,22.3,20.6,90,15.89,104,3.0,297.5,343.7,300.3
975.4,352,22.2,20.6,91,15.88,104,3.0,297.5,343.6,300.3
974.8,357,22.2,20.6,91,15.89,103,3.0,297.5,343.7,300.3
974.2,363,22.2,20.6,91,15.90,103,3.1,297.5,343.8,300.4
973.7,368,22.2,20.6,91,15.90,103,3.1,297.6,343.8,300.4
973.1,373,22.1,20.6,91,15.90,102,3.1,297.6,343.8,300.4
972.5,378,22.1,20.6,92,15.93,102,3.1,297.6,343.9,300.4
971.9,384,22.0,20.6,92,15.95,102,3.1,297.6,343.9,300.4
971.3,389,21.9,20.6,92,15.91,101,3.1,297.6,343.8,300.4
970.7,394,21.9,20.5,92,15.87,101,3.1,297.6,343.7,300.4
970.1,400,21.9,20.6,92,15.90,100,3.0,297.6,343.8,300.4
969.5,405,21.8,20.6,93,15.96,100,3.0,297.6,344.0,300.4
968.9,411,21.8,20.6,93,15.97,100,3.0,297.6,344.0,300.4
968.3,416,21.7,20.6,93,15.97,99,3.0,297.6,344.0,300.4
967.6,422,21.6,20.6,94,15.98,99,2.9,297.6,344.0,300.4
967.0,428,21.6,20.6,94,16.04,99,2.9,297.6,344.2,300.4
966.3,434,21.5,20.7,95,16.10,98,2.9,297.6,344.4,300.4
965.6,440,21.4,20.7,96,16.14,98,2.8,297.5,344.4,300.4
964.9,446,21.4,20.7,96,16.09,98,2.8,297.5,344.3,300.4
964.3,452,21.3,20.5,95,15.98,98,2.8,297.5,344.0,300.4
963.7,458,21.3,20.4,95,15.87,98,2.7,297.5,343.7,300.4
963.0,463,21.2,20.3,94,15.77,98,2.7,297.6,343.4,300.4
962.4,469,21.2,20.2,94,15.64,98,2.7,297.6,343.1,300.4
961.9,474,21.2,20.1,93,15.54,99,2.6,297.7,342.9,300.4
961.3,479,21.2,20.0,93,15.51,99,2.6,297.7,342.8,300.5
960.7,484,21.2,19.9,93,15.45,100,2.6,297.7,342.7,300.5
960.1,490,21.2,19.8,92,15.30,100,2.6,297.7,342.3,300.5
959.5,495,21.1,19.6,91,15.17,101,2.5,297.8,341.9,300.5
958.9,501,21.1,19.5,90,15.04,102,2.5,297.8,341.6,300.5
958.3,506,21.1,19.4,90,14.98,103,2.5,297.9,341.5,300.5
957.7,511,21.1,19.4,90,14.96,104,2.5,297.9,341.5,300.5
957.1,517,21.0,19.4,90,14.97,104,2.5,297.9,341.5,300.5
956.5,522,21.0,19.4,91,15.02,105,2.5,297.9,341.6,300.6
955.9,528,20.9,19.5,91,15.06,106,2.5,297.9,341.7,300.6
955.3,534,20.9,19.5,92,15.11,107,2.5,297.9,341.9,300.6
954.7,539,20.8,19.5,92,15.16,108,2.6,297.9,342.0,300.6
954.1,545,20.8,19.6,93,15.18,109,2.6,297.9,342.1,300.6
953.5,550,20.7,19.5,93,15.13,110,2.6,297.9,341.9,300.6
952.8,556,20.6,19.4,92,15.01,111,2.6,297.9,341.6,300.6
952.2,561,20.6,19.2,91,14.84,112,2.6,297.9,341.1,300.5
951.6,567,20.6,19.0,90,14.68,112,2.7,297.9,340.7,300.6
951.1,572,20.6,18.9,90,14.57,113,2.7,298.0,340.5,300.6
950.5,577,20.6,18.8,89,14.52,114,2.7,298.1,340.4,300.7
949.9,583,20.6,18.8,89,14.54,114,2.8,298.1,340.5,300.7
949.4,588,20.6,18.8,90,14.56,115,2.8,298.1,340.5,300.7
948.8,593,20.5,18.8,90,14.56,115,2.8,298.1,340.6,300.7
948.2,598,20.5,18.8,90,14.58,116,2.8,298.1,340.6,300.7
947.7,603,20.4,18.8,91,14.58,116,2.9,298.1,340.6,300.7
947.2,608,20.4,18.8,91,14.56,117,2.9,298.1,340.6,300.7
946.7,612,20.3,18.7,90,14.51,117,2.9,298.1,340.4,300.7
946.2,617,20.3,18.6,90,14.40,118,2.9,298.1,340.1,300.7
945.7,622,20.3,18.4,89,14.26,118,2.9,298.2,339.8,300.7
945.2,626,20.3,18.4,89,14.23,118,2.9,298.2,339.8,300.8
944.7,631,20.3,18.4,89,14.27,119,3.0,298.2,339.9,300.8
944.2,635,20.2,18.5,90,14.32,119,3.0,298.2,340.0,300.8
943.6,640,20.2,18.5,90,14.32,120,3.0,298.3,340.1,300.8
943.1,645,20.2,18.5,90,14.32,120,3.0,298.3,340.1,300.8
942.6,650,20.1,18.4,90,14.31,121,3.0,298.3,340.0,300.8
942.1,654,20.1,18.4,90,14.27,122,2.9,298.3,339.9,300.8
941.5,659,20.0,18.3,90,14.19,122,2.9,298.3,339.7,300.8
941.0,664,20.0,18.2,89,14.13,123,2.9,298.3,339.6,300.8
940.5,669,20.0,18.2,89,14.14,123,2.9,298.3,339.6,300.9
939.9,675,19.9,18.3,90,14.19,124,2.9,298.3,339.7,300.9
939.3,680,19.9,18.3,90,14.19,124,2.9,298.3,339.8,300.9
938.8,685,19.9,18.2,90,14.14,125,2.9,298.3,339.6,300.9
938.2,690,19.8,18.1,90,14.07,125,2.8,298.4,339.5,300.9
937.6,695,19.8,18.0,89,13.94,126,2.8,298.4,339.1,300.9
937.1,701,19.8,17.8,88,13.80,126,2.8,298.5,338.8,300.9
936.5,706,19.8,17.7,88,13.75,126,2.8,298.5,338.7,301.0
935.9,711,19.8,17.7,88,13.78,126,2.8,298.6,338.9,301.0
935.3,717,19.8,17.7,88,13.77,126,2.7,298.6,338.8,301.0
934.7,722,19.7,17.6,87,13.65,126,2.7,298.6,338.5,301.0
934.2,727,19.7,17.3,86,13.41,126,2.7,298.6,337.9,301.0
933.6,733,19.8,17.1,84,13.24,126,2.7,298.8,337.5,301.1
933.0,738,19.8,17.0,84,13.19,126,2.7,298.9,337.5,301.2
932.5,743,19.8,17.0,84,13.21,125,2.6,298.9,337.6,301.2
931.9,748,19.7,17.0,84,13.21,125,2.6,298.9,337.5,301.2
931.4,753,19.7,17.0,84,13.17,124,2.6,298.9,337.4,301.2
930.9,758,19.7,16.9,84,13.14,124,2.5,298.9,337.4,301.2
930.3,763,19.6,17.0,84,13.18,123,2.5,298.9,337.5,301.3
929.8,768,19.6,17.0,85,13.24,122,2.5,298.9,337.7,301.3
929.2,773,19.5,17.0,85,13.22,121,2.5,298.9,337.6,301.3
928.7,778,19.5,16.9,85,13.15,120,2.4,298.9,337.4,301.3
928.2,783,19.5,16.8,85,13.09,119,2.4,298.9,337.3,301.3
927.6,788,19.5,16.8,84,13.06,118,2.4,299.0,337.3,301.3
927.1,793,19.4,16.8,85,13.08,117,2.3,299.0,337.3,301.3
926.6,798,19.4,16.7,85,13.05,116,2.3,299.0,337.2,301.3
926.0,803,19.3,16.6,84,12.96,115,2.3,299.0,337.0,301.3
925.5,808,19.3,16.5,84,12.84,114,2.2,299.0,336.7,301.3
925.0,813,19.3,16.4,83,12.75,114,2.2,299.0,336.4,301.3
924.9,813,19.3,16.3,83,12.73,113,2.2,299.0,336.4,301.3
924.3,819,19.3,16.3,83,12.73,112,2.2,299.1,336.4,301.3
923.8,824,19.2,16.5,84,12.85,111,2.1,299.0,336.7,301.3
923.2,830,19.1,16.6,85,12.99,109,2.1,299.0,337.1,301.3
922.6,835,19.0,16.7,86,13.04,108,2.1,299.0,337.2,301.3
922.0,840,19.0,16.6,86,13.03,107,2.1,299.0,337.2,301.3
921.4,846,18.9,16.7,87,13.05,106,2.0,299.0,337.3,301.3
920.9,851,18.9,16.8,87,13.14,105,2.0,299.0,337.5,301.3
920.3,856,18.8,16.8,88,13.20,105,2.0,299.0,337.6,301.3
919.7,862,18.8,16.8,88,13.17,104,1.9,299.0,337.6,301.3
919.2,867,18.7,16.7,88,13.11,103,1.9,299.0,337.4,301.3
918.6,872,18.7,16.6,88,13.08,102,1.9,299.0,337.4,301.4
918.0,878,18.6,16.7,88,13.10,102,1.9,299.0,337.4,301.4
917.4,883,18.6,16.6,88,13.06,102,1.9,299.0,337.3,301.3
916.8,889,18.6,16.5,88,12.97,101,1.8,299.1,337.1,301.4
916.2,894,18.6,16.4,87,12.88,101,1.8,299.1,336.9,301.4
915.7,900,18.5,16.3,87,12.85,101,1.8,299.1,336.8,301.4
915.0,906,18.5,16.3,87,12.82,101,1.8,299.1,336.7,301.4
914.4,911,18.4,16.2,87,12.77,101,1.8,299.1,336.6,301.4
913.8,917,18.4,16.1,86,12.71,102,1.8,299.2,336.5,301.5
913.2,923,18.4,16.1,86,12.67,102,1.7,299.2,336.4,301.5
912.6,929,18.4,16.0,86,12.64,102,1.7,299.2,336.3,301.5
912.0,935,18.3,16.0,87,12.66,103,1.7,299.2,336.4,301.5
911.4,940,18.3,16.0,87,12.68,103,1.7,299.2,336.5,301.5
910.7,946,18.2,16.0,87,12.69,104,1.7,299.2,336.5,301.5
910.1,952,18.2,16.0,87,12.66,104,1.7,299.2,336.4,301.5
909.5,958,18.1,15.9,87,12.59,105,1.7,299.3,336.2,301.5
908.8,964,18.1,15.7,86,12.41,105,1.8,299.3,335.7,301.5
908.2,970,18.1,15.4,84,12.18,106,1.8,299.3,335.1,301.5
907.6,976,18.1,15.2,83,12.06,106,1.8,299.4,334.9,301.6
907.0,982,18.0,15.2,83,12.04,106,1.8,299.4,334.8,301.6
906.4,987,18.0,15.2,84,12.05,106,1.8,299.4,334.9,301.6
905.9,992,17.9,15.2,84,12.07,107,1.9,299.4,334.9,301.6
905.3,998,17.9,15.2,84,12.09,107,1.9,299.4,335.0,301.6
904.7,1003,17.9,15.2,85,12.11,106,1.9,299.4,335.1,301.6
904.2,1008,17.8,15.2,85,12.13,106,1.9,299.4,335.1,301.6
903.6,1014,17.8,15.2,85,12.10,106,2.0,299.5,335.0,301.6
903.0,1019,17.7,15.1,85,12.06,105,2.0,299.5,334.9,301.6
902.5,1025,17.7,15.1,85,12.02,105,2.0,299.5,334.8,301.6
901.9,1030,17.6,15.1,85,12.03,104,2.1,299.5,334.9,301.7
901.3,1036,17.6,15.1,85,12.06,104,2.1,299.5,335.0,301.7
900.8,1041,17.6,15.1,86,12.10,103,2.2,299.5,335.1,301.7
900.2,1046,17.5,15.1,86,12.10,102,2.2,299.5,335.1,301.7
899.6,1052,17.5,15.1,86,12.06,101,2.3,299.5,335.0,301.7
899.1,1057,17.4,15.0,85,11.99,100,2.3,299.6,334.8,301.7
898.5,1062,17.4,14.9,85,11.93,99,2.3,299.6,334.7,301.7
898.0,1067,17.4,14.8,84,11.83,98,2.4,299.6,334.4,301.7
897.4,1073,17.4,14.6,84,11.74,97,2.4,299.6,334.2,301.8
896.9,1078,17.4,14.5,83,11.66,96,2.5,299.7,334.0,301.8
896.3,1083,17.3,14.4,83,11.60,95,2.5,299.7,333.9,301.8
895.8,1088,17.3,14.4,83,11.59,94,2.6,299.7,333.9,301.8
895.2,1093,17.2,14.4,83,11.60,93,2.6,299.7,333.9,301.8
894.7,1099,17.2,14.4,84,11.62,91,2.7,299.7,334.0,301.8
894.1,1104,17.2,14.4,84,11.62,90,2.7,299.8,334.0,301.9
893.6,1109,17.2,14.4,84,11.60,89,2.8,299.8,334.0,301.9
893.0,1115,17.2,14.2,83,11.49,88,2.8,299.9,333.7,301.9
892.5,1120,17.2,14.0,81,11.33,87,2.8,299.9,333.4,302.0
891.9,1125,17.2,13.8,80,11.19,86,2.9,300.0,333.1,302.0
891.4,1131,17.2,13.7,80,11.13,85,2.9,300.1,332.9,302.1
890.8,1136,17.2,13.7,80,11.10,84,3.0,300.1,332.9,302.1
890.3,1141,17.2,13.7,80,11.11,84,3.0,300.1,332.9,302.1
889.7,1147,17.1,13.7,80,11.13,83,3.0,300.1,333.0,302.1
889.1,1152,17.1,13.7,80,11.14,82,3.1,300.1,333.0,302.1
888.5,1158,17.0,13.7,80,11.13,82,3.1,300.2,333.0,302.2
887.9,1164,17.0,13.6,80,11.08,81,3.1,300.2,332.9,302.2
887.3,1169,17.0,13.4,80,10.99,81,3.2,300.2,332.7,302.2
886.7,1175,17.0,13.3,79,10.89,81,3.2,300.3,332.5,302.3
886.1,1181,17.0,13.2,78,10.84,80,3.2,300.4,332.5,302.3
885.5,1187,17.0,13.2,78,10.83,80,3.2,300.4,332.5,302.4
884.9,1193,17.0,13.1,78,10.79,80,3.3,300.4,332.4,302.4
884.4,1198,16.9,13.1,78,10.76,80,3.3,300.4,332.2,302.4
883.8,1203,16.9,13.0,78,10.72,81,3.3,300.4,332.2,302.4
883.3,1208,16.9,13.0,78,10.68,81,3.3,300.5,332.1,302.4
882.8,1214,16.9,12.9,77,10.63,81,3.3,300.5,332.0,302.4
882.2,1219,16.8,12.8,77,10.56,82,3.3,300.6,331.9,302.5
881.7,1224,16.8,12.6,76,10.47,82,3.3,300.6,331.6,302.5
881.1,1230,16.8,12.5,75,10.37,83,3.3,300.7,331.4,302.5
880.5,1235,16.8,12.4,75,10.31,83,3.3,300.7,331.3,302.6
879.9,1241,16.8,12.3,75,10.29,84,3.3,300.8,331.3,302.6
879.3,1247,16.8,12.4,75,10.33,85,3.4,300.8,331.5,302.7
878.8,1252,16.8,12.5,76,10.41,86,3.4,300.8,331.7,302.7
878.2,1258,16.7,12.6,77,10.50,86,3.4,300.8,331.9,302.7
877.6,1264,16.7,12.7,77,10.56,87,3.4,300.8,332.1,302.7
877.0,1270,16.6,12.6,77,10.54,88,3.4,300.8,332.1,302.8
876.4,1275,16.6,12.5,77,10.44,88,3.4,300.9,331.9,302.8
875.8,1281,16.6,12.2,76,10.27,89,3.4,300.9,331.4,302.8
875.2,1286,16.6,11.9,74,10.05,90,3.4,301.0,330.8,302.8
874.7,1292,16.6,11.6,72,9.87,90,3.4,301.1,330.4,302.8
874.1,1297,16.6,11.6,72,9.83,91,3.4,301.1,330.4,302.9
873.6,1303,16.6,11.6,72,9.88,91,3.4,301.1,330.5,302.9
873.0,1308,16.6,11.7,73,9.94,92,3.4,301.2,330.7,303.0
872.5,1314,16.5,11.7,73,9.97,92,3.4,301.2,330.8,303.0
871.9,1319,16.5,11.6,73,9.91,92,3.4,301.2,330.7,303.0
871.4,1325,16.5,11.4,72,9.75,92,3.4,301.2,330.3,303.0
870.8,1330,16.5,11.1,71,9.60,92,3.4,301.3,329.9,303.0
870.3,1335,16.5,11.0,70,9.52,92,3.4,301.3,329.7,303.1
869.8,1340,16.5,11.0,70,9.52,92,3.4,301.4,329.8,303.1
869.3,1345,16.4,11.1,71,9.59,92,3.4,301.4,330.0,303.1
868.7,1350,16.4,11.2,71,9.67,92,3.4,301.4,330.2,303.2
868.2,1355,16.3,11.3,72,9.71,92,3.4,301.4,330.4,303.2
867.7,1360,16.3,11.3,72,9.71,92,3.4,301.4,330.4,303.2
867.2,1365,16.3,11.3,72,9.73,92,3.3,301.4,330.4,303.2
866.7,1370,16.2,11.3,73,9.78,91,3.3,301.5,330.6,303.2
866.2,1375,16.2,11.4,73,9.79,91,3.3,301.5,330.6,303.2
865.6,1381,16.2,11.3,73,9.76,91,3.3,301.5,330.6,303.3
865.1,1386,16.2,11.3,73,9.78,91,3.3,301.6,330.7,303.3
864.6,1391,16.1,11.5,74,9.92,91,3.3,301.6,331.1,303.4
864.0,1397,16.1,11.8,76,10.13,91,3.3,301.6,331.7,303.4
863.4,1402,16.0,12.0,77,10.23,91,3.3,301.6,332.0,303.4
862.9,1408,16.0,11.9,77,10.21,91,3.3,301.6,332.0,303.4
862.3,1414,15.9,11.9,77,10.19,91,3.3,301.6,331.9,303.4
861.7,1419,15.9,11.9,77,10.18,91,3.3,301.6,331.9,303.4
861.1,1425,15.8,11.8,77,10.17,92,3.3,301.6,331.9,303.4
860.5,1431,15.8,11.8,78,10.19,92,3.2,301.6,331.9,303.4
860.0,1437,15.7,11.8,78,10.19,93,3.2,301.6,331.9,303.4
859.4,1442,15.7,11.8,78,10.19,93,3.2,301.6,331.9,303.4
858.8,1448,15.6,11.8,78,10.16,94,3.2,301.6,331.8,303.4
858.2,1454,15.6,11.7,78,10.10,95,3.1,301.6,331.7,303.4
857.7,1459,15.5,11.5,77,10.01,96,3.1,301.6,331.4,303.4
857.1,1465,15.5,11.4,77,9.94,97,3.1,301.7,331.3,303.5
856.5,1471,15.5,11.4,76,9.90,98,3.1,301.7,331.3,303.5
855.9,1477,15.5,11.3,76,9.87,99,3.0,301.8,331.2,303.6
855.3,1483,15.5,11.2,76,9.85,100,3.0,301.8,331.2,303.6
854.7,1489,15.4,11.2,76,9.83,101,3.0,301.8,331.2,303.6
854.1,1495,15.4,11.2,76,9.81,102,2.9,301.8,331.1,303.6
853.5,1501,15.3,11.2,76,9.81,103,2.9,301.8,331.1,303.6
852.9,1507,15.3,11.2,76,9.81,104,2.9,301.8,331.1,303.6
852.3,1513,15.2,11.2,77,9.82,105,2.9,301.9,331.2,303.6
851.6,1519,15.2,11.1,77,9.82,106,2.9,301.9,331.2,303.7
851.0,1525,15.2,11.1,77,9.82,107,2.8,301.9,331.2,303.7
850.4,1531,15.1,11.1,77,9.80,107,2.8,301.9,331.2,303.7
850.0,1536,15.1,11.1,77,9.80,107,2.8,302.0,331.2,303.8
849.8,1537,15.1,11.1,77,9.80,108,2.8,302.0,331.2,303.8
849.2,1543,15.1,11.1,77,9.80,108,2.8,302.0,331.2,303.8
848.6,1549,15.0,11.0,77,9.77,109,2.8,302.0,331.1,303.7
848.1,1555,14.9,11.0,77,9.74,109,2.8,302.0,331.1,303.7
847.5,1561,14.9,10.9,77,9.73,109,2.8,302.0,331.1,303.8
846.9,1567,14.9,10.9,77,9.75,108,2.8,302.0,331.1,303.8
846.3,1573,14.8,11.0,78,9.76,108,2.8,302.0,331.2,303.8
845.7,1579,14.8,11.0,78,9.77,107,2.9,302.0,331.2,303.8
845.1,1585,14.7,11.0,78,9.77,107,2.9,302.0,331.2,303.8
844.4,1591,14.6,10.9,79,9.77,106,2.9,302.0,331.2,303.8
843.8,1598,14.6,10.9,78,9.74,105,2.9,302.0,331.1,303.8
843.2,1604,14.5,10.8,78,9.69,104,2.9,302.0,331.0,303.8
842.5,1610,14.5,10.8,78,9.68,103,3.0,302.1,331.0,303.9
841.9,1617,14.5,10.7,78,9.67,102,3.0,302.1,331.0,303.9
841.2,1623,14.4,10.7,78,9.66,101,3.0,302.1,331.0,303.9
840.6,1630,14.4,10.7,79,9.64,100,3.0,302.1,330.9,303.9
840.0,1636,14.3,10.6,78,9.60,99,3.1,302.2,330.8,303.9
839.3,1643,14.3,10.4,78,9.51,98,3.1,302.2,330.7,303.9
838.7,1649,14.4,10.3,77,9.45,97,3.1,302.4,330.6,304.1
838.0,1656,14.4,10.3,76,9.42,96,3.1,302.5,330.7,304.2
837.4,1662,14.4,10.3,76,9.41,94,3.1,302.5,330.7,304.2
836.7,1669,14.4,10.3,76,9.42,93,3.1,302.5,330.8,304.3
836.0,1676,14.4,10.3,77,9.45,92,3.1,302.6,330.9,304.3
835.3,1683,14.3,10.3,77,9.46,91,3.1,302.6,331.0,304.3
834.6,1690,14.3,10.3,77,9.45,90,3.1,302.6,331.0,304.4
833.9,1697,14.2,10.2,77,9.42,89,3.1,302.7,330.9,304.4
833.3,1704,14.2,10.1,77,9.39,88,3.0,302.7,330.8,304.4
832.7,1710,14.2,10.1,77,9.37,87,3.0,302.7,330.8,304.4
832.0,1716,14.1,10.1,77,9.36,86,2.9,302.8,330.8,304.5
831.4,1723,14.1,10.0,76,9.29,85,2.8,302.8,330.7,304.5
830.8,1729,14.1,9.7,75,9.14,84,2.7,302.9,330.3,304.6
830.2,1736,14.1,9.2,72,8.85,83,2.7,303.0,329.6,304.6
829.5,1742,14.2,8.7,69,8.53,82,2.6,303.1,328.8,304.7
828.8,1749,14.3,8.2,67,8.26,80,2.5,303.3,328.2,304.8
828.2,1756,14.3,7.8,65,8.05,79,2.3,303.4,327.7,304.8
827.5,1762,14.3,7.5,63,7.89,77,2.2,303.5,327.3,304.9
826.9,1769,14.4,7.4,63,7.86,76,2.1,303.6,327.3,305.0
826.2,1776,14.3,7.6,64,7.94,74,2.0,303.6,327.6,305.1
825.6,1782,14.3,7.7,64,7.99,72,1.8,303.6,327.8,305.1
825.0,1789,14.3,7.6,64,7.97,69,1.7,303.6,327.8,305.1
824.3,1795,14.2,7.5,64,7.91,66,1.5,303.7,327.6,305.1
823.7,1802,14.2,7.3,63,7.80,62,1.4,303.7,327.3,305.2
823.0,1809,14.2,6.9,61,7.59,57,1.3,303.8,326.8,305.2
822.4,1815,14.3,6.2,58,7.25,51,1.1,303.9,326.0,305.3
821.7,1822,14.4,5.2,54,6.75,44,1.0,304.1,324.7,305.4
821.1,1829,14.6,3.7,48,6.11,35,0.9,304.4,323.1,305.5
820.4,1835,14.8,2.0,42,5.41,25,0.9,304.7,321.4,305.7
819.8,1842,15.1,0.1,36,4.70,13,0.9,305.1,319.7,305.9
819.2,1848,15.4,-1.6,31,4.14,1,0.9,305.4,318.4,306.2
818.6,1855,15.6,-2.6,28,3.86,350,0.9,305.8,317.9,306.5
817.9,1861,15.7,-2.8,28,3.80,341,1.0,305.9,317.9,306.6
817.3,1868,15.7,-2.7,28,3.85,334,1.1,306.0,318.1,306.7
816.7,1874,15.6,-2.5,29,3.89,329,1.2,306.0,318.2,306.7
816.1,1880,15.6,-2.5,29,3.91,324,1.4,306.0,318.3,306.7
815.5,1887,15.6,-2.5,29,3.92,321,1.5,306.1,318.4,306.8
814.8,1893,15.6,-2.3,29,3.96,319,1.6,306.1,318.5,306.8
814.2,1900,15.5,-2.0,30,4.06,317,1.8,306.1,318.9,306.9
813.6,1906,15.6,-1.5,31,4.22,316,1.9,306.2,319.5,307.0
813.0,1912,15.6,-1.2,32,4.32,315,2.0,306.3,319.9,307.1
812.4,1918,15.6,-1.2,32,4.32,315,2.1,306.4,320.0,307.2
811.8,1925,15.7,-1.7,30,4.18,314,2.3,306.6,319.8,307.4
811.2,1931,15.9,-2.1,29,4.04,314,2.4,306.8,319.5,307.6
810.6,1937,15.9,-2.5,28,3.92,314,2.5,306.9,319.3,307.6
810.0,1943,15.9,-3.1,27,3.76,315,2.6,306.9,318.9,307.6
809.4,1950,15.9,-3.7,26,3.59,315,2.7,307.0,318.4,307.7
808.9,1956,15.9,-4.1,25,3.49,316,2.7,307.1,318.2,307.7
808.3,1962,15.9,-4.0,25,3.53,316,2.8,307.1,318.3,307.8
807.7,1968,15.9,-3.5,26,3.66,317,2.9,307.2,318.8,307.9
807.1,1974,15.9,-3.4,26,3.68,318,2.9,307.3,319.0,308.0
806.6,1979,15.9,-4.0,25,3.53,318,3.0,307.3,318.5,308.0
806.0,1985,15.9,-5.0,23,3.26,319,3.0,307.4,317.8,308.0
805.5,1991,15.9,-6.5,21,2.91,320,3.1,307.4,316.8,308.0
804.9,1997,15.9,-7.8,19,2.64,321,3.1,307.5,316.0,308.0
804.3,2003,15.9,-8.2,18,2.56,322,3.1,307.6,315.9,308.0
803.8,2009,15.8,-8.1,19,2.59,323,3.2,307.6,316.0,308.1
803.2,2015,15.8,-7.9,19,2.63,323,3.2,307.6,316.1,308.1
802.6,2021,15.7,-7.7,19,2.68,324,3.2,307.6,316.2,308.1
802.0,2027,15.7,-7.2,20,2.78,325,3.2,307.6,316.6,308.1
801.5,2033,15.6,-6.5,21,2.94,326,3.3,307.6,317.1,308.2
800.9,2040,15.5,-5.8,22,3.10,327,3.3,307.6,317.5,308.2
800.3,2046,15.5,-5.6,23,3.14,327,3.3,307.6,317.7,308.2
799.7,2052,15.5,-6.4,22,2.97,328,3.3,307.7,317.2,308.2
799.2,2058,15.5,-7.9,19,2.65,329,3.3,307.8,316.3,308.3
