PRES,HGHT,TEMP,DWPT,RELH,MIXR,DRCT,SPED,THTA,THTE,THTV
1016.6,31,23.7,20.9,84,15.44,46,4.3,295.5,340.0,298.2
1015.8,38,24.0,20.9,83,15.49,52,3.4,295.8,340.5,298.5
1015.4,41,24.0,20.9,83,15.52,56,3.2,295.9,340.7,298.6
1014.7,47,24.0,20.9,83,15.51,57,3.4,295.9,340.7,298.7
1014.0,53,24.0,20.8,83,15.45,57,3.6,295.9,340.6,298.7
1013.2,60,23.9,20.7,82,15.35,57,3.9,295.9,340.3,298.7
1012.7,65,23.9,20.6,82,15.24,57,4.2,296.0,340.0,298.7
1012.0,70,23.9,20.4,81,15.09,57,4.5,296.0,339.6,298.7
1011.3,76,23.9,20.2,80,14.92,58,4.7,296.0,339.2,298.7
1010.7,82,23.8,20.2,80,14.89,58,5.0,296.1,339.1,298.7
1010.0,87,23.8,20.2,81,14.96,58,5.2,296.1,339.3,298.7
1009.4,93,23.7,20.3,81,15.00,58,5.5,296.1,339.4,298.7
1008.7,99,23.7,20.3,81,15.03,59,5.7,296.1,339.5,298.8
1008.0,105,23.6,20.3,82,15.05,59,5.9,296.1,339.6,298.7
1007.3,111,23.5,20.3,82,15.02,59,6.1,296.1,339.5,298.7
1006.6,118,23.5,20.2,82,14.97,59,6.3,296.1,339.3,298.7
1005.9,123,23.4,20.1,82,14.91,60,6.4,296.1,339.1,298.7
1005.2,129,23.4,20.1,82,14.86,60,6.6,296.1,339.0,298.7
1004.6,135,23.3,20.0,82,14.82,60,6.7,296.1,338.9,298.7
1004.0,140,23.2,20.0,82,14.80,61,6.9,296.1,338.8,298.7
1003.4,145,23.2,20.0,82,14.81,61,7.0,296.1,338.9,298.7
1002.8,150,23.2,20.0,82,14.83,61,7.1,296.1,338.9,298.7
1002.2,156,23.1,20.0,83,14.85,61,7.1,296.1,339.0,298.7
1001.6,161,23.1,20.0,83,14.88,61,7.2,296.1,339.1,298.7
1000.9,167,23.0,20.1,83,14.92,62,7.2,296.1,339.2,298.7
1000.3,172,22.9,20.1,84,14.93,62,7.3,296.1,339.2,298.7
1000.0,175,22.9,20.0,84,14.92,62,7.3,296.1,339.2,298.7
999.6,178,22.9,20.0,84,14.92,62,7.3,296.1,339.2,298.7
998.9,185,22.8,20.0,84,14.92,62,7.3,296.1,339.2,298.7
998.2,191,22.8,20.0,84,14.91,62,7.3,296.1,339.2,298.7
997.5,197,22.7,20.0,85,14.90,63,7.2,296.1,339.1,298.7
996.8,203,22.6,20.0,85,14.92,63,7.2,296.1,339.2,298.7
996.1,209,22.6,20.0,85,14.92,63,7.1,296.1,339.2,298.7
995.4,215,22.5,20.0,86,14.92,63,7.1,296.1,339.2,298.7
994.7,221,22.5,20.0,86,14.96,63,7.0,296.1,339.3,298.7
994.0,227,22.4,20.0,86,15.00,64,7.0,296.1,339.4,298.7
993.3,234,22.4,20.0,87,15.01,64,6.9,296.1,339.5,298.7
992.6,240,22.3,20.0,87,15.01,64,6.8,296.1,339.4,298.7
991.9,246,22.2,20.0,87,15.01,64,6.7,296.1,339.4,298.7
991.1,253,22.2,20.0,88,15.05,65,6.6,296.1,339.6,298.7
990.4,259,22.1,20.1,88,15.09,65,6.5,296.1,339.7,298.7
989.6,266,22.1,20.1,89,15.12,65,6.5,296.1,339.8,298.8
988.9,272,22.0,20.1,89,15.12,66,6.4,296.1,339.8,298.8
988.1,279,21.9,20.0,89,15.10,66,6.3,296.1,339.7,298.8
987.4,286,21.8,20.0,89,15.05,66,6.2,296.1,339.5,298.7
986.6,292,21.8,19.9,89,14.98,67,6.1,296.0,339.3,298.7
985.9,299,21.7,19.9,89,14.96,67,6.0,296.0,339.3,298.7
985.2,305,21.7,19.9,90,15.03,68,6.0,296.1,339.5,298.7
984.4,312,21.6,19.9,90,15.07,68,5.9,296.1,339.6,298.7
983.7,318,21.5,19.9,90,15.01,69,5.9,296.1,339.4,298.7
983.0,324,21.5,19.8,90,14.97,69,5.8,296.0,339.3,298.7
982.3,330,21.4,19.9,91,15.03,70,5.8,296.1,339.5,298.7
981.7,336,21.3,19.9,92,15.11,71,5.8,296.0,339.7,298.7
981.0,342,21.3,20.0,92,15.17,71,5.7,296.1,339.9,298.7
980.4,347,21.2,20.0,92,15.16,71,5.7,296.1,339.9,298.7
979.8,353,21.2,20.0,93,15.15,72,5.7,296.1,339.8,298.7
979.2,358,21.1,19.9,93,15.11,72,5.7,296.1,339.7,298.7
978.6,363,21.1,19.9,93,15.10,73,5.7,296.1,339.7,298.7
978.0,368,21.1,19.9,93,15.15,73,5.7,296.1,339.8,298.8
977.5,374,21.0,19.9,94,15.16,73,5.8,296.1,339.9,298.7
976.9,379,20.9,19.9,94,15.14,74,5.8,296.1,339.8,298.7
976.3,384,20.9,19.9,94,15.12,74,5.8,296.1,339.7,298.7
975.7,389,20.8,19.9,94,15.12,74,5.9,296.1,339.7,298.7
975.1,395,20.8,19.9,95,15.15,74,5.9,296.1,339.8,298.7
974.5,400,20.7,19.9,95,15.18,74,5.9,296.1,339.9,298.8
973.9,405,20.7,19.9,95,15.21,74,6.0,296.1,340.0,298.8
973.4,410,20.7,19.9,96,15.23,74,6.0,296.1,340.1,298.8
972.8,415,20.6,19.9,96,15.18,75,6.0,296.1,339.9,298.8
972.2,420,20.5,19.8,95,15.11,75,6.1,296.1,339.7,298.7
971.6,425,20.5,19.8,96,15.09,75,6.1,296.1,339.6,298.7
971.0,431,20.4,19.8,96,15.12,75,6.1,296.1,339.7,298.7
970.5,436,20.4,19.8,96,15.15,75,6.2,296.1,339.8,298.7
969.9,441,20.4,19.8,97,15.15,75,6.2,296.1,339.9,298.8
969.3,446,20.3,19.7,97,15.10,75,6.2,296.1,339.7,298.8
968.7,452,20.2,19.7,96,15.05,75,6.2,296.1,339.5,298.7
968.1,457,20.2,19.6,97,15.03,76,6.2,296.1,339.5,298.7
967.5,463,20.2,19.6,97,15.04,76,6.2,296.1,339.5,298.7
966.9,468,20.1,19.6,97,15.02,76,6.2,296.1,339.5,298.7
966.2,474,20.0,19.7,98,15.09,76,6.2,296.1,339.7,298.8
965.6,479,20.0,19.7,98,15.16,76,6.2,296.1,339.9,298.8
965.0,485,19.9,19.8,99,15.20,77,6.2,296.1,340.0,298.8
964.3,491,19.9,19.8,99,15.21,77,6.2,296.1,340.0,298.8
963.7,496,19.8,19.7,99,15.18,77,6.2,296.1,340.0,298.8
963.1,502,19.8,19.6,99,15.10,78,6.2,296.1,339.7,298.8
962.5,507,19.7,19.6,99,15.04,78,6.1,296.1,339.5,298.7
961.9,512,19.7,19.5,99,14.98,78,6.1,296.1,339.4,298.7
961.3,518,19.6,19.3,98,14.82,79,6.1,296.1,338.9,298.7
960.7,523,19.6,19.1,97,14.60,79,6.1,296.1,338.3,298.7
960.1,529,19.6,18.8,96,14.40,79,6.1,296.1,337.8,298.7
959.5,534,19.5,18.8,95,14.37,80,6.1,296.2,337.7,298.7
958.8,540,19.5,19.0,97,14.53,80,6.2,296.2,338.2,298.8
958.2,546,19.5,19.2,99,14.80,80,6.2,296.2,339.0,298.8
957.5,552,19.4,19.4,100,15.01,81,6.2,296.2,339.6,298.9
956.9,558,19.4,19.4,100,14.94,81,6.2,296.2,339.4,298.9
956.2,564,19.4,19.2,99,14.79,81,6.2,296.3,339.1,298.9
955.6,569,19.3,18.9,97,14.49,81,6.3,296.2,338.2,298.8
955.0,575,19.2,18.4,96,14.11,82,6.3,296.2,337.0,298.7
954.4,581,19.1,18.3,95,13.97,82,6.4,296.2,336.6,298.6
953.8,586,19.1,18.3,95,14.02,82,6.4,296.2,336.8,298.7
953.1,592,19.1,18.4,96,14.08,82,6.5,296.2,337.0,298.7
952.5,597,19.0,18.4,96,14.09,83,6.5,296.3,337.0,298.8
952.0,602,19.0,18.3,96,14.07,83,6.6,296.3,337.0,298.8
951.4,608,19.0,18.3,96,14.05,83,6.6,296.3,337.0,298.8
950.8,613,18.9,18.3,96,14.02,83,6.6,296.3,336.9,298.8
950.3,618,18.9,18.2,96,14.00,83,6.7,296.3,336.8,298.8
949.7,623,18.8,18.2,96,13.99,83,6.7,296.3,336.8,298.8
949.2,628,18.8,18.2,96,13.98,83,6.8,296.3,336.8,298.8
948.6,632,18.8,18.2,96,13.99,83,6.8,296.4,336.9,298.8
948.1,637,18.7,18.2,97,14.00,83,6.9,296.3,336.9,298.8
947.6,642,18.7,18.1,97,13.96,83,6.9,296.3,336.7,298.8
947.0,647,18.6,18.0,96,13.86,83,7.0,296.4,336.5,298.8
946.4,653,18.6,17.9,96,13.77,83,7.0,296.4,336.2,298.8
945.9,658,18.6,17.8,95,13.70,83,7.1,296.4,336.1,298.8
945.3,663,18.5,17.8,95,13.67,83,7.1,296.4,336.0,298.8
944.7,668,18.5,17.8,95,13.68,83,7.1,296.4,336.1,298.9
944.2,673,18.5,17.8,96,13.67,83,7.2,296.4,336.0,298.9
943.6,678,18.4,17.7,96,13.63,82,7.2,296.5,335.9,298.9
943.0,684,18.4,17.6,95,13.56,82,7.3,296.5,335.8,298.9
942.4,689,18.4,17.5,95,13.49,82,7.3,296.5,335.6,298.9
941.9,694,18.3,17.5,95,13.47,82,7.3,296.5,335.5,298.9
941.3,700,18.3,17.5,95,13.47,81,7.4,296.5,335.6,298.9
940.7,705,18.3,17.5,95,13.48,81,7.4,296.5,335.6,298.9
940.1,711,18.2,17.5,95,13.47,81,7.5,296.5,335.6,298.9
939.4,716,18.2,17.4,95,13.45,81,7.5,296.6,335.6,299.0
938.8,722,18.1,17.4,95,13.41,81,7.5,296.6,335.4,299.0
938.2,728,18.1,17.3,95,13.36,81,7.6,296.6,335.4,299.0
937.6,733,18.1,17.2,95,13.30,81,7.6,296.6,335.2,299.0
937.0,739,18.0,17.1,94,13.21,81,7.7,296.6,334.9,299.0
936.4,745,18.0,17.0,94,13.12,81,7.7,296.6,334.7,299.0
935.8,750,18.0,17.0,94,13.10,81,7.8,296.7,334.7,299.0
935.2,755,17.9,17.0,94,13.12,81,7.8,296.7,334.8,299.0
934.6,761,17.9,17.0,94,13.12,81,7.9,296.7,334.8,299.1
934.0,766,17.9,16.9,94,13.09,81,7.9,296.8,334.8,299.1
933.5,771,17.9,16.9,94,13.06,81,7.9,296.8,334.7,299.1
932.9,776,17.8,16.8,94,13.03,81,8.0,296.8,334.6,299.1
932.3,782,17.8,16.8,94,13.03,81,8.0,296.8,334.7,299.1
931.8,787,17.7,16.8,94,13.02,82,8.1,296.8,334.6,299.1
931.2,792,17.7,16.8,94,13.00,82,8.1,296.8,334.6,299.1
930.6,797,17.7,16.7,94,12.97,82,8.1,296.8,334.5,299.1
930.0,803,17.6,16.7,94,12.98,82,8.2,296.9,334.5,299.2
929.4,808,17.6,16.7,95,13.00,82,8.2,296.9,334.6,299.2
928.8,814,17.5,16.7,95,12.98,83,8.2,296.9,334.5,299.2
928.2,819,17.5,16.6,95,12.95,83,8.2,296.9,334.5,299.2
927.6,825,17.4,16.6,95,12.90,83,8.2,296.9,334.4,299.2
927.0,831,17.4,16.5,94,12.85,83,8.2,296.9,334.3,299.2
926.4,836,17.4,16.5,94,12.83,83,8.2,296.9,334.2,299.2
925.8,842,17.3,16.4,94,12.79,83,8.2,297.0,334.1,299.2
925.2,847,17.3,16.4,94,12.75,83,8.2,297.0,334.0,299.3
925.0,849,17.3,16.3,94,12.72,83,8.2,297.0,334.0,299.3
924.7,852,17.3,16.3,94,12.69,83,8.2,297.0,333.9,299.3
924.1,858,17.3,16.2,93,12.63,83,8.2,297.0,333.7,299.3
923.6,863,17.2,16.1,93,12.60,83,8.2,297.0,333.7,299.3
923.0,868,17.2,16.1,93,12.57,82,8.1,297.1,333.6,299.3
922.5,873,17.2,16.1,93,12.56,82,8.1,297.1,333.6,299.3
921.9,878,17.1,16.1,94,12.56,82,8.1,297.1,333.6,299.3
921.4,883,17.1,16.1,94,12.58,82,8.1,297.1,333.7,299.3
920.8,888,17.0,16.1,94,12.60,81,8.0,297.1,333.7,299.3
920.3,893,17.0,16.1,94,12.58,81,8.0,297.1,333.7,299.4
919.7,899,17.0,16.0,94,12.53,81,7.9,297.1,333.6,299.4
919.1,904,17.0,15.9,94,12.47,80,7.9,297.2,333.5,299.4
918.5,909,17.0,15.8,93,12.41,80,7.8,297.3,333.4,299.5
917.9,915,17.0,15.7,92,12.32,79,7.8,297.3,333.2,299.5
917.4,920,16.9,15.6,92,12.24,79,7.8,297.3,333.0,299.5
916.8,926,16.9,15.6,92,12.24,79,7.7,297.4,333.0,299.5
916.2,931,16.9,15.6,92,12.28,78,7.7,297.4,333.1,299.6
915.7,936,16.8,15.7,93,12.32,78,7.7,297.4,333.3,299.6
915.1,941,16.8,15.7,93,12.36,77,7.6,297.4,333.4,299.6
914.5,947,16.7,15.8,94,12.40,77,7.6,297.4,333.5,299.6
913.9,952,16.7,15.7,94,12.39,77,7.6,297.4,333.5,299.6
913.3,958,16.7,15.7,94,12.35,76,7.5,297.4,333.4,299.6
912.7,964,16.7,15.6,93,12.28,76,7.5,297.5,333.2,299.7
912.1,969,16.7,15.5,93,12.20,76,7.5,297.5,333.1,299.7
911.5,975,16.7,15.4,92,12.19,76,7.5,297.6,333.1,299.8
910.9,981,16.7,15.4,92,12.20,75,7.5,297.6,333.2,299.8
910.3,987,16.6,15.4,93,12.19,75,7.5,297.7,333.2,299.8
909.7,992,16.6,15.4,93,12.18,75,7.5,297.7,333.2,299.8
909.1,998,16.6,15.4,93,12.17,75,7.5,297.7,333.2,299.9
908.5,1003,16.5,15.4,93,12.20,75,7.5,297.7,333.3,299.9
907.9,1009,16.5,15.4,93,12.23,74,7.5,297.7,333.4,299.9
907.3,1015,16.4,15.5,94,12.27,74,7.5,297.7,333.5,299.9
906.7,1020,16.4,15.4,94,12.26,74,7.5,297.7,333.5,299.9
906.1,1026,16.3,15.4,94,12.21,74,7.5,297.8,333.4,299.9
905.5,1031,16.3,15.3,94,12.17,74,7.5,297.8,333.3,299.9
905.0,1036,16.3,15.3,94,12.16,73,7.6,297.8,333.3,299.9
904.4,1042,16.2,15.3,94,12.17,73,7.6,297.8,333.3,300.0
903.9,1047,16.2,15.3,94,12.17,73,7.6,297.8,333.3,300.0
903.3,1052,16.1,15.3,95,12.18,73,7.6,297.8,333.4,300.0
902.8,1057,16.1,15.3,95,12.17,72,7.6,297.8,333.3,300.0
902.3,1062,16.0,15.2,95,12.15,72,7.7,297.8,333.3,300.0
901.8,1067,16.0,15.2,95,12.14,72,7.7,297.8,333.2,300.0
901.3,1071,15.9,15.2,95,12.14,71,7.7,297.8,333.2,300.0
900.8,1076,15.9,15.2,96,12.17,71,7.7,297.8,333.3,300.0
900.3,1081,15.9,15.3,96,12.21,71,7.8,297.8,333.5,300.0
899.8,1085,15.8,15.3,97,12.24,70,7.8,297.8,333.5,300.0
899.3,1090,15.8,15.3,97,12.22,70,7.8,297.8,333.5,300.0
898.8,1095,15.7,15.2,97,12.19,69,7.9,297.8,333.4,300.0
898.3,1100,15.7,15.2,97,12.16,69,7.9,297.8,333.3,300.0
897.7,1105,15.6,15.1,97,12.12,69,8.0,297.8,333.2,300.0
897.2,1110,15.6,15.0,96,12.06,68,8.0,297.8,333.0,300.0
896.7,1115,15.6,14.9,96,11.95,68,8.0,297.9,332.8,300.0
896.1,1120,15.6,14.8,95,11.88,67,8.1,297.9,332.6,300.1
895.6,1125,15.6,14.7,94,11.84,67,8.1,298.0,332.6,300.1
895.0,1130,15.6,14.7,94,11.81,66,8.1,298.0,332.6,300.2
894.5,1136,15.6,14.6,94,11.76,66,8.1,298.1,332.4,300.2
893.9,1141,15.6,14.5,94,11.71,66,8.2,298.1,332.3,300.2
893.4,1146,15.5,14.5,94,11.70,65,8.2,298.1,332.3,300.2
892.8,1152,15.5,14.5,94,11.71,65,8.2,298.1,332.4,300.2
892.2,1157,15.4,14.5,94,11.72,65,8.2,298.1,332.4,300.2
891.7,1163,15.4,14.5,94,11.70,64,8.2,298.2,332.4,300.3
891.1,1168,15.4,14.4,94,11.66,64,8.2,298.2,332.3,300.3
890.6,1172,15.3,14.3,94,11.62,64,8.1,298.2,332.2,300.3
890.2,1177,15.3,14.3,94,11.61,64,8.1,298.2,332.2,300.3
889.7,1181,15.2,14.3,94,11.61,64,8.1,298.2,332.2,300.3
889.3,1185,15.2,14.3,94,11.61,64,8.0,298.2,332.2,300.3
888.9,1189,15.2,14.3,94,11.61,64,8.0,298.2,332.2,300.3
888.4,1193,15.2,14.3,95,11.61,64,7.9,298.2,332.2,300.3
888.0,1197,15.1,14.3,95,11.60,64,7.8,298.2,332.2,300.3
887.6,1202,15.1,14.3,95,11.59,64,7.8,298.2,332.1,300.3
887.1,1206,15.1,14.2,95,11.57,64,7.7,298.2,332.1,300.3
886.7,1210,15.0,14.2,95,11.55,64,7.6,298.2,332.1,300.3
886.2,1215,15.0,14.2,95,11.55,65,7.5,298.2,332.0,300.3
885.8,1219,14.9,14.2,95,11.56,65,7.5,298.2,332.1,300.3
885.3,1224,14.9,14.2,96,11.57,66,7.4,298.2,332.1,300.3
884.8,1228,14.9,14.2,96,11.58,66,7.3,298.2,332.1,300.3
884.3,1233,14.8,14.2,96,11.58,67,7.2,298.3,332.1,300.3
883.8,1238,14.8,14.2,96,11.57,67,7.2,298.3,332.1,300.3
883.3,1243,14.7,14.1,96,11.55,68,7.1,298.3,332.1,300.3
882.8,1248,14.7,14.1,96,11.52,69,7.1,298.3,332.0,300.3
882.2,1253,14.6,14.1,96,11.51,69,7.1,298.3,332.0,300.3
881.7,1258,14.6,14.1,97,11.54,70,7.0,298.3,332.1,300.4
881.1,1263,14.5,14.1,97,11.58,71,7.0,298.3,332.2,300.4
880.6,1269,14.5,14.1,98,11.60,71,7.0,298.3,332.2,300.4
880.0,1275,14.4,14.1,98,11.59,72,7.1,298.3,332.2,300.4
879.4,1281,14.4,14.1,98,11.61,72,7.1,298.3,332.3,300.4
878.7,1287,14.4,14.2,99,11.65,73,7.1,298.3,332.4,300.4
878.1,1293,14.3,14.2,99,11.68,73,7.2,298.3,332.5,300.4
877.4,1300,14.3,14.2,100,11.70,74,7.2,298.4,332.6,300.5
876.7,1306,14.2,14.2,100,11.70,74,7.3,298.4,332.6,300.5
876.1,1312,14.2,14.2,100,11.67,74,7.4,298.4,332.5,300.5
875.4,1319,14.1,14.0,99,11.59,74,7.5,298.4,332.3,300.5
874.8,1325,14.1,13.9,99,11.51,74,7.6,298.4,332.2,300.5
874.2,1331,14.1,13.9,99,11.47,75,7.6,298.5,332.1,300.5
873.6,1337,14.1,13.8,98,11.43,74,7.7,298.5,332.0,300.6
873.0,1342,14.0,13.7,98,11.36,74,7.8,298.6,331.8,300.6
872.4,1347,14.0,13.6,97,11.28,74,7.9,298.6,331.7,300.6
871.9,1353,14.0,13.5,96,11.20,74,8.0,298.6,331.5,300.7
871.3,1358,14.0,13.4,96,11.14,74,8.1,298.7,331.4,300.7
870.8,1364,14.0,13.3,95,11.09,74,8.2,298.7,331.3,300.7
870.2,1369,14.0,13.2,95,11.04,74,8.2,298.8,331.2,300.8
869.6,1375,14.0,13.1,94,10.96,74,8.3,298.8,331.0,300.8
869.0,1381,14.0,13.0,94,10.87,74,8.4,298.9,330.8,300.8
868.4,1386,14.0,12.8,93,10.77,74,8.4,298.9,330.6,300.8
867.9,1392,14.0,12.6,92,10.65,74,8.5,299.0,330.3,300.9
867.3,1397,14.0,12.4,90,10.50,74,8.6,299.1,330.0,300.9
866.8,1403,14.0,12.2,88,10.33,74,8.6,299.2,329.6,301.0
866.2,1408,14.1,11.9,87,10.18,74,8.6,299.3,329.3,301.1
865.7,1413,14.1,11.8,86,10.09,74,8.7,299.4,329.1,301.2
865.2,1418,14.1,11.7,85,10.04,74,8.7,299.4,329.0,301.2
864.7,1422,14.1,11.7,85,10.03,74,8.8,299.4,329.0,301.2
864.3,1427,14.1,11.6,85,10.01,74,8.8,299.4,329.0,301.2
863.8,1432,14.1,11.6,85,9.97,75,8.8,299.5,328.9,301.3
863.3,1436,14.0,11.5,85,9.94,75,8.9,299.5,328.8,301.3
862.9,1441,14.0,11.5,85,9.90,75,8.9,299.5,328.7,301.3
862.4,1445,13.9,11.4,85,9.86,76,8.9,299.5,328.6,301.3
862.0,1450,13.9,11.3,84,9.79,76,9.0,299.5,328.4,301.3
861.5,1455,13.9,11.2,84,9.75,76,9.0,299.5,328.3,301.3
861.0,1460,13.9,11.1,84,9.71,77,9.0,299.5,328.2,301.3
860.4,1465,13.8,11.1,83,9.67,77,9.1,299.6,328.1,301.3
859.9,1470,13.8,11.0,83,9.60,77,9.1,299.6,328.0,301.3
859.3,1476,13.7,10.8,82,9.51,78,9.1,299.6,327.7,301.3
858.7,1482,13.7,10.6,81,9.38,78,9.2,299.6,327.4,301.3
858.1,1487,13.7,10.4,80,9.25,78,9.2,299.7,327.1,301.3
857.5,1493,13.7,10.1,79,9.10,78,9.2,299.7,326.7,301.4
856.9,1500,13.7,9.9,78,8.96,79,9.3,299.8,326.4,301.5
856.3,1506,13.8,9.7,77,8.88,79,9.3,299.9,326.3,301.5
855.6,1512,13.8,9.7,76,8.84,79,9.3,300.0,326.3,301.6
855.0,1518,13.8,9.6,76,8.82,79,9.4,300.1,326.2,301.6
854.4,1524,13.8,9.6,76,8.80,79,9.4,300.1,326.3,301.7
853.9,1529,13.8,9.5,76,8.79,79,9.4,300.2,326.3,301.8
853.3,1535,13.8,9.5,75,8.78,79,9.4,300.2,326.3,301.8
852.8,1540,13.8,9.5,75,8.76,79,9.4,300.3,326.3,301.9
852.3,1545,13.8,9.4,75,8.72,79,9.4,300.4,326.3,301.9
851.7,1551,13.8,9.3,74,8.66,78,9.5,300.5,326.2,302.0
851.2,1556,13.9,9.2,73,8.60,78,9.5,300.5,326.1,302.1
850.7,1561,13.9,9.1,73,8.53,78,9.5,300.6,326.0,302.1
850.1,1567,13.9,8.9,72,8.43,78,9.5,300.7,325.8,302.2
850.0,1568,13.9,8.8,72,8.41,77,9.5,300.7,325.7,302.2
849.6,1572,13.9,8.7,71,8.31,77,9.5,300.7,325.5,302.2
849.0,1578,13.9,8.4,70,8.17,77,9.5,300.7,325.1,302.2
848.4,1583,13.9,8.1,68,8.01,77,9.5,300.8,324.8,302.3
847.9,1589,13.9,7.6,66,7.77,76,9.5,300.9,324.2,302.3
847.4,1594,14.0,7.0,63,7.42,76,9.5,301.0,323.3,302.4
846.8,1599,14.1,6.2,59,7.04,75,9.5,301.2,322.3,302.5
846.3,1604,14.2,5.4,56,6.68,75,9.5,301.4,321.5,302.6
845.8,1609,14.3,5.2,55,6.59,74,9.5,301.5,321.4,302.7
845.3,1615,14.3,5.4,55,6.67,74,9.5,301.6,321.7,302.8
844.8,1620,14.3,5.5,55,6.70,73,9.5,301.6,321.9,302.9
844.2,1625,14.3,5.4,55,6.69,73,9.5,301.7,321.9,302.9
843.7,1630,14.3,5.5,55,6.73,72,9.5,301.8,322.1,303.0
843.2,1636,14.3,5.7,56,6.80,72,9.6,301.8,322.4,303.1
842.6,1641,14.3,5.7,56,6.84,71,9.6,301.9,322.5,303.1
842.1,1647,14.3,5.8,57,6.88,71,9.6,301.9,322.7,303.1
841.5,1653,14.3,6.0,57,6.96,70,9.6,302.0,323.0,303.2
840.9,1658,14.3,6.2,58,7.09,70,9.7,302.0,323.4,303.3
840.3,1664,14.3,6.5,59,7.24,69,9.7,302.1,324.0,303.4
839.8,1670,14.3,6.6,60,7.28,69,9.7,302.2,324.2,303.5
839.2,1676,14.4,6.4,59,7.22,69,9.7,302.3,324.1,303.6
838.6,1681,14.4,6.4,58,7.19,68,9.8,302.4,324.1,303.7
838.1,1687,14.5,6.6,59,7.30,68,9.8,302.5,324.5,303.8
837.6,1692,14.5,6.9,61,7.49,68,9.8,302.5,325.2,303.9
837.1,1697,14.5,7.2,61,7.61,67,9.8,302.6,325.6,304.0
836.6,1702,14.5,7.2,62,7.64,67,9.8,302.7,325.7,304.1
836.2,1706,14.5,7.2,61,7.62,67,9.9,302.8,325.8,304.1
835.7,1711,14.6,7.1,61,7.59,67,9.9,302.8,325.8,304.2
835.2,1716,14.6,7.0,61,7.57,66,9.9,302.9,325.8,304.3
834.7,1721,14.6,7.0,60,7.54,66,9.9,302.9,325.7,304.3
834.2,1726,14.5,6.9,60,7.50,66,9.9,303.0,325.7,304.4
833.7,1731,14.6,6.8,60,7.48,66,9.9,303.0,325.7,304.4
833.2,1737,14.5,6.8,60,7.48,66,9.8,303.1,325.7,304.4
832.6,1742,14.5,6.8,60,7.48,65,9.8,303.1,325.7,304.4
832.1,1748,14.4,6.8,60,7.46,65,9.8,303.1,325.7,304.5
831.6,1753,14.4,6.7,60,7.44,65,9.8,303.1,325.6,304.5
831.0,1758,14.4,6.7,60,7.41,65,9.8,303.1,325.6,304.5
830.5,1763,14.3,6.6,60,7.39,65,9.7,303.1,325.5,304.5
830.1,1768,14.3,6.6,60,7.37,65,9.7,303.1,325.5,304.5
829.6,1773,14.3,6.5,60,7.35,65,9.7,303.2,325.4,304.5
829.1,1778,14.3,6.4,59,7.31,65,9.6,303.2,325.4,304.6
828.6,1783,14.3,6.3,59,7.26,65,9.6,303.3,325.3,304.6
828.2,1788,14.3,6.2,58,7.20,65,9.5,303.4,325.2,304.7
827.7,1793,14.3,6.0,57,7.12,65,9.5,303.4,325.1,304.7
827.2,1798,14.3,5.9,57,7.07,65,9.5,303.5,324.9,304.8
826.7,1803,14.3,5.8,57,7.03,65,9.4,303.5,324.8,304.8
826.2,1808,14.2,5.8,57,7.01,65,9.4,303.5,324.8,304.8
825.7,1813,14.2,5.8,57,7.01,65,9.3,303.5,324.8,304.8
825.2,1818,14.2,5.8,57,7.02,65,9.3,303.5,324.9,304.8
824.7,1823,14.2,5.7,57,7.00,66,9.2,303.6,324.9,304.9
824.2,1828,14.2,5.7,57,6.99,66,9.2,303.6,324.9,304.9
823.7,1834,14.1,5.7,57,6.98,66,9.1,303.6,324.9,304.9
823.2,1839,14.1,5.7,57,6.98,66,9.1,303.7,324.9,305.0
822.7,1844,14.1,5.7,57,6.99,66,9.1,303.7,325.0,305.0
822.2,1849,14.1,5.7,57,6.99,67,9.0,303.8,325.0,305.1
821.7,1854,14.1,5.7,57,6.99,67,9.0,303.8,325.1,305.1
821.2,1859,14.1,5.7,57,6.99,67,8.9,303.9,325.2,305.2
820.7,1864,14.1,5.7,57,7.00,67,8.9,303.9,325.2,305.2
820.3,1869,14.1,5.7,57,7.00,67,8.9,304.0,325.2,305.2
819.8,1874,14.1,5.6,57,7.00,67,8.8,304.0,325.3,305.3
819.3,1879,14.0,5.6,57,7.00,67,8.8,304.0,325.3,305.3
818.8,1884,14.0,5.6,57,7.00,67,8.8,304.0,325.3,305.3
818.3,1889,13.9,5.6,57,7.00,67,8.8,304.0,325.3,305.3
817.8,1894,13.9,5.6,57,7.01,67,8.8,304.0,325.3,305.3
817.3,1899,13.8,5.6,58,7.01,67,8.8,304.0,325.4,305.3
816.8,1904,13.8,5.6,58,7.02,67,8.8,304.0,325.4,305.3
816.3,1910,13.8,5.6,58,7.02,67,8.8,304.0,325.4,305.3
815.8,1915,13.7,5.7,58,7.04,67,8.8,304.1,325.5,305.4
815.3,1920,13.7,5.7,58,7.06,67,8.8,304.1,325.6,305.4
814.8,1925,13.6,5.7,59,7.05,67,8.8,304.1,325.5,305.4
814.3,1930,13.6,5.6,58,7.02,67,8.9,304.1,325.5,305.4
813.8,1935,13.6,5.6,58,7.00,66,8.9,304.1,325.4,305.4
813.4,1940,13.5,5.5,58,6.99,66,9.0,304.1,325.4,305.4
812.9,1945,13.5,5.5,58,6.98,66,9.0,304.1,325.4,305.4
812.5,1949,13.5,5.5,58,6.97,66,9.1,304.1,325.3,305.4
812.0,1954,13.4,5.5,59,6.98,66,9.1,304.1,325.4,305.4
811.6,1959,13.4,5.6,59,7.02,66,9.2,304.1,325.5,305.4
811.1,1963,13.3,5.7,60,7.09,66,9.2,304.2,325.7,305.5
810.6,1968,13.3,5.8,60,7.15,66,9.3,304.2,325.9,305.5
810.2,1973,13.3,5.8,61,7.17,66,9.3,304.2,326.0,305.5
809.7,1978,13.3,5.8,61,7.16,66,9.4,304.2,326.0,305.5
809.2,1983,13.2,5.7,60,7.14,66,9.4,304.2,326.0,305.5
808.7,1988,13.2,5.7,60,7.12,66,9.5,304.3,325.9,305.6
