PRES,HGHT,TEMP,DWPT,RELH,MIXR,DRCT,SPED,THTA,THTE,THTV
1015.9,31,21.9,21.1,95,15.67,288,2.3,293.7,338.5,296.5
1015.4,35,22.5,21.5,94,16.07,290,1.6,294.4,340.5,297.2
1014.9,40,22.6,21.6,94,16.17,291,1.6,294.5,340.9,297.4
1014.2,45,22.8,21.6,93,16.22,291,1.7,294.8,341.4,297.6
1013.3,53,23.0,21.5,91,16.13,292,1.7,295.0,341.4,297.8
1012.7,58,23.0,21.4,90,16.03,292,1.8,295.1,341.2,297.9
1012.2,63,23.0,21.3,90,15.96,293,1.9,295.2,341.1,298.0
1011.6,68,23.1,21.3,90,15.93,293,1.9,295.2,341.1,298.0
1011.0,73,23.1,21.2,89,15.92,294,1.9,295.3,341.1,298.1
1010.5,77,23.1,21.2,89,15.91,295,1.9,295.4,341.2,298.2
1010.0,82,23.1,21.2,89,15.92,296,1.9,295.4,341.3,298.2
1009.5,86,23.1,21.2,89,15.91,297,1.9,295.5,341.3,298.3
1008.9,91,23.1,21.2,89,15.90,298,1.9,295.5,341.3,298.3
1008.4,95,23.1,21.2,89,15.90,300,1.9,295.6,341.4,298.4
1007.9,99,23.1,21.2,89,15.93,301,1.9,295.6,341.5,298.4
1007.4,104,23.1,21.2,89,15.97,303,1.8,295.6,341.6,298.4
1006.9,108,23.0,21.2,90,15.98,305,1.8,295.6,341.7,298.4
1006.4,113,23.0,21.2,90,15.99,307,1.7,295.6,341.7,298.4
1005.9,117,23.0,21.2,90,15.97,309,1.7,295.6,341.7,298.5
1005.5,121,23.0,21.2,90,15.96,311,1.7,295.7,341.7,298.5
1005.0,125,22.9,21.2,90,15.95,313,1.6,295.7,341.7,298.5
1004.5,129,22.9,21.2,90,15.97,316,1.6,295.7,341.7,298.5
1004.0,133,22.9,21.2,90,16.00,318,1.5,295.7,341.8,298.5
1003.5,138,22.8,21.2,91,16.02,320,1.5,295.7,341.9,298.5
1003.0,142,22.8,21.2,91,16.03,323,1.5,295.7,341.9,298.5
1002.5,146,22.8,21.2,91,16.02,325,1.5,295.7,341.9,298.5
1002.0,151,22.7,21.2,91,16.02,328,1.4,295.7,341.9,298.5
1001.5,155,22.7,21.2,91,16.00,330,1.4,295.7,341.9,298.5
1001.0,160,22.7,21.1,91,15.95,332,1.4,295.7,341.7,298.5
1000.5,165,22.6,21.1,91,15.92,333,1.4,295.7,341.6,298.5
1000.0,169,22.6,21.1,91,15.90,333,1.4,295.7,341.6,298.5
999.9,169,22.6,21.0,91,15.90,335,1.4,295.7,341.6,298.6
999.4,174,22.5,21.0,91,15.86,336,1.4,295.7,341.5,298.5
998.9,178,22.5,21.0,91,15.82,338,1.4,295.7,341.4,298.5
998.4,183,22.5,20.9,91,15.82,339,1.4,295.8,341.4,298.6
997.8,187,22.4,20.9,91,15.83,340,1.4,295.8,341.4,298.6
997.3,192,22.4,21.0,92,15.86,341,1.4,295.8,341.5,298.6
996.8,197,22.4,20.9,92,15.85,342,1.4,295.8,341.5,298.6
996.3,201,22.3,20.9,92,15.79,342,1.4,295.8,341.4,298.6
995.8,206,22.3,20.8,91,15.74,343,1.4,295.8,341.2,298.6
995.3,210,22.3,20.8,91,15.68,343,1.4,295.8,341.1,298.6
994.7,215,22.3,20.7,91,15.64,344,1.4,295.8,341.0,298.6
994.2,219,22.2,20.7,91,15.64,344,1.4,295.9,341.0,298.6
993.7,224,22.2,20.7,91,15.65,344,1.4,295.9,341.0,298.6
993.1,229,22.1,20.7,91,15.62,344,1.4,295.9,341.0,298.6
992.5,234,22.1,20.6,91,15.58,345,1.4,295.9,340.9,298.6
991.9,239,22.0,20.6,91,15.57,345,1.4,295.9,340.8,298.6
991.3,245,22.0,20.6,92,15.55,345,1.4,295.9,340.8,298.6
990.7,250,22.0,20.5,91,15.51,345,1.4,295.9,340.7,298.6
990.1,256,21.9,20.5,91,15.47,345,1.4,295.9,340.6,298.6
989.5,261,21.9,20.4,92,15.47,345,1.5,295.9,340.6,298.7
988.8,266,21.8,20.4,92,15.44,345,1.5,295.9,340.5,298.6
988.3,272,21.8,20.3,92,15.38,344,1.5,295.9,340.3,298.6
987.7,277,21.7,20.3,91,15.31,344,1.5,295.9,340.1,298.6
987.1,282,21.7,20.2,91,15.27,343,1.5,295.9,340.1,298.7
986.6,287,21.7,20.2,91,15.25,343,1.5,296.0,340.0,298.7
986.0,291,21.6,20.2,91,15.25,342,1.5,296.0,340.0,298.7
985.5,296,21.6,20.2,91,15.25,342,1.6,296.0,340.0,298.7
985.0,301,21.6,20.1,91,15.22,341,1.6,296.0,340.0,298.7
984.4,305,21.5,20.1,91,15.17,340,1.6,296.0,339.8,298.7
983.9,310,21.5,20.0,91,15.13,339,1.6,296.0,339.7,298.7
983.4,314,21.5,20.0,91,15.12,338,1.6,296.0,339.7,298.7
982.9,319,21.5,20.0,91,15.12,337,1.6,296.1,339.7,298.7
982.4,324,21.4,20.0,91,15.12,336,1.6,296.1,339.7,298.7
981.9,328,21.4,20.0,92,15.12,335,1.6,296.1,339.7,298.7
981.4,333,21.4,20.0,92,15.12,334,1.5,296.1,339.8,298.8
980.8,337,21.3,19.9,92,15.11,333,1.5,296.1,339.8,298.8
980.3,342,21.3,19.9,92,15.06,331,1.5,296.1,339.6,298.8
979.8,346,21.3,19.8,91,15.00,330,1.5,296.1,339.5,298.8
979.3,351,21.3,19.7,91,14.93,329,1.5,296.2,339.3,298.8
978.8,356,21.2,19.6,91,14.86,328,1.4,296.2,339.2,298.8
978.2,360,21.2,19.6,90,14.80,327,1.4,296.2,339.0,298.8
977.7,365,21.2,19.5,90,14.72,326,1.3,296.2,338.8,298.9
977.1,370,21.2,19.3,89,14.59,325,1.3,296.3,338.5,298.9
976.6,375,21.2,19.2,88,14.46,324,1.2,296.3,338.2,298.9
976.0,380,21.2,19.0,87,14.35,323,1.2,296.4,338.0,299.0
975.5,385,21.2,18.9,87,14.27,322,1.1,296.5,337.8,299.0
974.9,390,21.2,18.8,86,14.17,321,1.0,296.5,337.6,299.1
974.4,395,21.2,18.7,85,14.04,320,1.0,296.6,337.3,299.1
973.8,399,21.2,18.5,84,13.87,320,0.9,296.6,336.8,299.1
973.3,404,21.2,18.2,83,13.67,319,0.8,296.7,336.3,299.1
972.7,409,21.3,18.0,82,13.50,318,0.8,296.8,336.0,299.2
972.2,414,21.4,17.8,80,13.33,317,0.7,296.9,335.6,299.3
971.6,419,21.4,17.7,79,13.21,315,0.6,297.0,335.4,299.4
971.0,425,21.5,17.6,78,13.13,314,0.5,297.1,335.3,299.5
970.5,430,21.5,17.5,78,13.09,313,0.4,297.1,335.2,299.5
969.9,435,21.4,17.5,78,13.07,312,0.3,297.2,335.2,299.5
969.3,440,21.4,17.4,78,13.04,310,0.3,297.2,335.1,299.5
968.8,445,21.4,17.4,78,13.04,305,0.2,297.2,335.1,299.5
968.2,450,21.3,17.4,78,13.06,292,0.1,297.2,335.2,299.5
967.7,455,21.3,17.4,79,13.05,0,0.0,297.2,335.2,299.5
967.1,460,21.3,17.4,79,13.07,166,0.1,297.2,335.3,299.6
966.5,465,21.2,17.4,79,13.08,154,0.2,297.2,335.3,299.5
966.0,470,21.1,17.4,80,13.06,149,0.3,297.2,335.1,299.5
965.5,475,21.1,17.3,79,12.95,146,0.4,297.2,334.9,299.5
964.9,479,21.1,17.1,78,12.85,144,0.5,297.2,334.7,299.5
964.5,484,21.1,17.1,78,12.78,143,0.6,297.3,334.5,299.5
964.0,488,21.1,17.0,78,12.73,143,0.7,297.3,334.4,299.6
963.5,492,21.1,16.9,77,12.71,142,0.8,297.3,334.3,299.6
963.1,496,21.1,16.9,77,12.69,142,0.9,297.4,334.3,299.6
962.6,500,21.0,16.9,77,12.68,141,1.0,297.4,334.3,299.6
962.2,504,21.0,16.9,77,12.67,141,1.1,297.4,334.3,299.7
961.7,508,21.0,16.9,77,12.67,140,1.2,297.4,334.3,299.7
961.3,512,21.0,16.9,78,12.69,140,1.3,297.4,334.4,299.7
960.8,516,20.9,16.9,78,12.72,139,1.4,297.4,334.5,299.7
960.3,521,20.9,16.9,78,12.73,139,1.4,297.4,334.5,299.7
959.8,525,20.8,16.9,79,12.74,138,1.5,297.4,334.5,299.7
959.3,530,20.7,16.9,79,12.71,138,1.6,297.4,334.4,299.7
958.8,534,20.7,16.8,79,12.67,138,1.7,297.4,334.3,299.6
958.3,539,20.7,16.8,78,12.64,138,1.8,297.4,334.2,299.7
957.8,544,20.6,16.8,78,12.64,137,1.8,297.4,334.2,299.7
957.3,548,20.6,16.8,79,12.64,137,1.9,297.4,334.3,299.7
956.8,553,20.6,16.8,79,12.66,137,2.0,297.4,334.3,299.7
956.3,558,20.5,16.8,79,12.67,137,2.0,297.4,334.3,299.7
955.8,562,20.4,16.8,80,12.67,137,2.1,297.4,334.3,299.6
955.3,566,20.4,16.8,80,12.67,137,2.2,297.4,334.3,299.7
954.8,571,20.4,16.8,80,12.68,137,2.2,297.4,334.4,299.7
954.2,576,20.3,16.8,80,12.70,137,2.2,297.4,334.4,299.7
953.7,581,20.3,16.8,80,12.71,137,2.3,297.4,334.5,299.7
953.1,586,20.3,16.7,80,12.68,138,2.3,297.5,334.4,299.7
952.5,592,20.2,16.7,80,12.63,138,2.4,297.4,334.2,299.7
951.9,597,20.1,16.6,80,12.59,139,2.4,297.5,334.1,299.7
951.3,602,20.1,16.6,80,12.59,139,2.4,297.4,334.1,299.7
950.8,607,20.0,16.6,81,12.60,140,2.5,297.4,334.1,299.7
950.2,612,20.0,16.6,81,12.60,141,2.5,297.4,334.1,299.7
949.7,617,19.9,16.6,81,12.59,141,2.5,297.4,334.1,299.7
949.2,622,19.9,16.5,81,12.57,142,2.6,297.4,334.1,299.7
948.7,627,19.9,16.5,81,12.57,143,2.6,297.5,334.1,299.7
948.2,631,19.8,16.6,81,12.59,144,2.6,297.5,334.2,299.7
947.7,636,19.8,16.5,81,12.58,144,2.7,297.5,334.1,299.7
947.2,640,19.8,16.5,82,12.57,145,2.7,297.5,334.1,299.7
946.7,645,19.7,16.5,82,12.57,146,2.7,297.5,334.1,299.7
946.2,649,19.7,16.5,82,12.58,146,2.8,297.5,334.1,299.7
945.7,654,19.6,16.5,82,12.62,146,2.8,297.5,334.3,299.7
945.2,658,19.6,16.6,83,12.64,147,2.9,297.5,334.3,299.7
944.7,663,19.5,16.5,83,12.63,147,2.9,297.5,334.3,299.7
944.2,667,19.5,16.5,83,12.61,147,2.9,297.5,334.2,299.7
943.8,671,19.4,16.5,83,12.61,147,3.0,297.5,334.2,299.7
943.3,675,19.4,16.5,83,12.61,146,3.0,297.5,334.2,299.7
942.9,680,19.4,16.5,84,12.62,146,3.1,297.5,334.2,299.7
942.4,684,19.3,16.5,84,12.64,146,3.1,297.5,334.3,299.7
941.9,688,19.3,16.5,84,12.65,145,3.2,297.5,334.3,299.7
941.4,692,19.3,16.5,84,12.64,144,3.3,297.5,334.3,299.7
941.0,697,19.2,16.5,84,12.63,144,3.3,297.5,334.3,299.8
940.5,702,19.2,16.5,84,12.64,143,3.4,297.5,334.3,299.8
939.9,706,19.2,16.4,84,12.62,142,3.4,297.5,334.3,299.8
939.4,711,19.1,16.4,84,12.57,141,3.5,297.5,334.1,299.8
938.9,716,19.0,16.3,84,12.55,141,3.6,297.5,334.1,299.7
938.4,721,19.0,16.3,84,12.54,140,3.6,297.5,334.1,299.8
937.8,726,19.0,16.3,85,12.55,139,3.7,297.5,334.1,299.8
937.3,730,18.9,16.3,85,12.57,138,3.8,297.5,334.2,299.8
936.8,735,18.9,16.4,85,12.58,138,3.9,297.5,334.2,299.8
936.2,740,18.8,16.3,85,12.57,137,4.0,297.5,334.2,299.8
935.7,746,18.8,16.3,86,12.57,137,4.1,297.5,334.2,299.8
935.1,751,18.7,16.3,86,12.59,136,4.2,297.5,334.2,299.8
934.5,756,18.7,16.3,86,12.59,136,4.3,297.5,334.2,299.8
934.0,761,18.7,16.3,86,12.61,136,4.4,297.5,334.3,299.8
933.4,766,18.6,16.3,87,12.62,136,4.5,297.6,334.3,299.8
932.8,772,18.6,16.3,87,12.62,135,4.6,297.6,334.3,299.8
932.3,777,18.5,16.3,87,12.62,135,4.7,297.6,334.3,299.8
931.7,782,18.5,16.3,87,12.60,135,4.8,297.6,334.3,299.8
931.2,787,18.4,16.3,87,12.60,135,4.9,297.5,334.3,299.8
930.6,792,18.4,16.3,88,12.60,136,5.0,297.6,334.3,299.8
930.1,797,18.3,16.2,88,12.59,136,5.1,297.6,334.2,299.8
929.6,801,18.3,16.2,88,12.58,136,5.2,297.6,334.2,299.8
929.1,806,18.3,16.3,88,12.61,136,5.3,297.6,334.3,299.9
928.6,811,18.2,16.3,89,12.67,136,5.4,297.6,334.5,299.9
928.1,815,18.2,16.4,89,12.71,136,5.5,297.6,334.6,299.9
927.7,819,18.2,16.4,89,12.74,136,5.6,297.6,334.7,299.9
927.2,824,18.1,16.4,90,12.76,137,5.6,297.6,334.8,299.9
926.7,828,18.1,16.4,90,12.80,137,5.7,297.7,335.0,299.9
926.2,833,18.1,16.5,90,12.83,137,5.8,297.7,335.1,300.0
925.7,838,18.0,16.4,90,12.81,137,5.9,297.7,335.0,300.0
925.2,842,18.0,16.4,90,12.75,137,5.9,297.7,334.8,299.9
925.0,844,18.0,16.3,90,12.74,137,6.0,297.7,334.8,300.0
924.7,847,17.9,16.3,90,12.73,137,6.0,297.7,334.8,299.9
924.2,852,17.9,16.4,91,12.78,137,6.0,297.7,335.0,300.0
923.7,856,17.9,16.4,91,12.84,137,6.0,297.7,335.1,300.0
923.2,860,17.8,16.5,92,12.88,137,6.1,297.7,335.3,300.0
922.8,865,17.8,16.5,92,12.89,137,6.1,297.7,335.3,300.0
922.3,869,17.8,16.5,92,12.90,137,6.1,297.7,335.3,300.0
921.8,873,17.7,16.5,92,12.89,137,6.1,297.7,335.3,300.0
921.4,878,17.7,16.5,93,12.88,137,6.1,297.7,335.3,300.0
920.9,882,17.6,16.4,93,12.87,137,6.1,297.7,335.2,300.0
920.4,887,17.6,16.4,93,12.88,137,6.1,297.7,335.3,300.0
919.9,891,17.6,16.4,93,12.88,138,6.1,297.7,335.3,300.0
919.4,896,17.5,16.4,93,12.86,138,6.1,297.7,335.2,300.0
918.9,901,17.5,16.3,93,12.82,138,6.1,297.8,335.2,300.1
918.4,906,17.5,16.3,92,12.76,138,6.1,297.8,335.0,300.1
917.8,911,17.5,16.2,92,12.71,139,6.0,297.8,334.9,300.1
917.2,917,17.5,16.1,92,12.67,139,6.0,297.9,334.8,300.1
916.6,922,17.4,16.1,92,12.64,140,6.0,297.9,334.8,300.2
916.0,928,17.4,16.0,92,12.61,140,5.9,297.9,334.7,300.2
915.4,933,17.4,16.0,92,12.57,141,5.8,297.9,334.6,300.2
914.9,938,17.3,15.9,91,12.51,142,5.8,297.9,334.5,300.2
914.3,944,17.3,15.9,91,12.50,143,5.7,298.0,334.4,300.2
913.8,948,17.2,15.9,92,12.52,144,5.6,298.0,334.5,300.2
913.3,953,17.2,15.9,92,12.56,145,5.5,298.0,334.6,300.2
912.8,958,17.2,15.9,92,12.56,146,5.5,298.0,334.6,300.2
912.3,963,17.1,15.9,92,12.55,148,5.4,298.0,334.6,300.2
911.8,967,17.1,15.9,93,12.55,149,5.3,298.0,334.6,300.2
911.3,972,17.1,15.9,93,12.55,150,5.2,298.0,334.6,300.2
910.8,977,17.0,15.9,93,12.54,152,5.1,298.0,334.6,300.3
910.3,982,17.0,15.8,93,12.54,154,5.0,298.0,334.6,300.3
909.7,987,16.9,15.8,93,12.53,156,4.9,298.0,334.6,300.3
909.2,992,16.9,15.8,93,12.50,157,4.8,298.0,334.6,300.3
908.6,997,16.9,15.7,93,12.42,159,4.7,298.1,334.3,300.3
908.1,1002,16.9,15.5,92,12.30,161,4.6,298.1,334.0,300.3
907.5,1008,16.9,15.4,91,12.21,163,4.6,298.2,333.9,300.4
907.0,1013,16.9,15.3,91,12.16,165,4.5,298.2,333.8,300.4
906.5,1018,16.9,15.2,90,12.10,167,4.5,298.3,333.7,300.5
906.0,1022,17.0,15.2,89,12.06,168,4.4,298.4,333.7,300.6
905.5,1027,17.0,15.1,89,12.04,170,4.4,298.5,333.7,300.7
905.0,1031,17.0,15.1,89,12.00,171,4.4,298.5,333.7,300.7
904.6,1036,17.0,15.0,88,11.95,172,4.4,298.6,333.6,300.7
904.1,1040,17.0,14.9,88,11.90,174,4.4,298.6,333.5,300.7
903.6,1044,17.0,14.9,88,11.89,175,4.4,298.7,333.5,300.8
903.1,1049,17.0,15.0,88,11.92,175,4.4,298.7,333.6,300.8
902.6,1054,16.9,15.0,88,11.97,176,4.4,298.7,333.8,300.9
902.1,1059,16.9,15.0,89,12.01,176,4.5,298.7,333.9,300.9
901.6,1064,16.9,15.0,89,12.00,176,4.5,298.7,333.9,300.9
901.1,1069,16.8,14.9,89,11.93,176,4.5,298.7,333.7,300.9
900.5,1074,16.8,14.8,88,11.87,176,4.6,298.8,333.6,300.9
900.0,1079,16.8,14.8,88,11.84,176,4.6,298.8,333.5,300.9
899.5,1084,16.7,14.8,88,11.83,176,4.7,298.8,333.5,300.9
898.9,1089,16.7,14.8,89,11.85,175,4.7,298.8,333.5,300.9
898.4,1094,16.6,14.8,89,11.84,175,4.8,298.8,333.5,300.9
897.9,1098,16.6,14.7,89,11.81,174,4.9,298.8,333.4,300.9
897.4,1103,16.5,14.7,89,11.77,174,4.9,298.8,333.3,300.9
896.9,1108,16.5,14.6,88,11.70,173,4.9,298.8,333.1,300.9
896.5,1112,16.5,14.5,88,11.62,173,5.0,298.8,332.9,300.9
896.0,1117,16.5,14.3,87,11.55,172,5.0,298.8,332.7,300.9
895.5,1121,16.4,14.3,87,11.49,172,5.0,298.9,332.6,300.9
895.1,1126,16.4,14.2,87,11.47,171,5.1,298.9,332.6,301.0
894.6,1130,16.4,14.2,87,11.47,171,5.1,298.9,332.6,301.0
894.2,1134,16.4,14.2,87,11.45,170,5.1,298.9,332.5,301.0
893.7,1139,16.4,14.2,87,11.43,170,5.1,298.9,332.5,301.0
893.3,1143,16.3,14.1,87,11.41,170,5.1,299.0,332.5,301.0
892.8,1147,16.3,14.1,87,11.39,169,5.0,299.0,332.4,301.0
892.3,1152,16.3,14.1,87,11.38,169,5.0,299.0,332.4,301.1
891.9,1156,16.2,14.1,87,11.38,169,4.9,299.0,332.4,301.1
891.4,1161,16.2,14.0,87,11.36,168,4.9,299.0,332.4,301.1
890.9,1166,16.2,13.9,87,11.31,168,4.8,299.0,332.2,301.1
890.4,1171,16.1,13.9,86,11.25,168,4.7,299.0,332.1,301.1
889.9,1175,16.1,13.8,86,11.20,168,4.6,299.1,332.0,301.1
889.4,1180,16.1,13.8,86,11.20,168,4.5,299.1,332.0,301.1
888.9,1185,16.1,13.8,86,11.23,168,4.4,299.2,332.2,301.2
888.4,1189,16.1,13.8,86,11.25,168,4.2,299.2,332.3,301.2
888.0,1193,16.1,13.8,86,11.24,168,4.1,299.2,332.3,301.2
887.6,1198,16.0,13.8,87,11.25,168,4.0,299.2,332.3,301.2
887.1,1202,16.0,13.8,87,11.25,168,3.8,299.2,332.3,301.2
886.7,1206,16.0,13.7,87,11.22,168,3.7,299.2,332.2,301.2
886.2,1210,16.0,13.7,86,11.17,168,3.5,299.3,332.1,301.3
885.8,1214,16.0,13.6,86,11.13,169,3.4,299.3,332.1,301.3
885.4,1219,16.0,13.6,86,11.12,169,3.2,299.3,332.1,301.3
884.9,1223,15.9,13.6,86,11.11,170,3.1,299.3,332.1,301.3
884.5,1227,15.9,13.6,86,11.11,171,2.9,299.4,332.1,301.4
884.0,1232,15.9,13.5,86,11.09,172,2.8,299.4,332.0,301.4
883.6,1236,15.9,13.5,86,11.07,173,2.7,299.4,332.0,301.4
883.1,1240,15.8,13.4,86,11.03,174,2.5,299.4,331.9,301.4
882.7,1245,15.8,13.3,85,10.97,176,2.4,299.4,331.7,301.4
882.2,1249,15.8,13.2,85,10.91,177,2.3,299.5,331.6,301.4
881.8,1253,15.8,13.1,84,10.84,179,2.2,299.5,331.4,301.4
881.4,1257,15.7,13.1,84,10.79,181,2.2,299.5,331.3,301.4
881.0,1261,15.7,13.0,84,10.76,183,2.1,299.5,331.2,301.4
880.6,1265,15.7,13.0,84,10.75,185,2.1,299.5,331.2,301.5
880.2,1269,15.7,13.0,84,10.76,187,2.1,299.5,331.3,301.5
879.8,1273,15.6,13.0,84,10.78,189,2.0,299.6,331.3,301.5
879.3,1277,15.6,13.1,85,10.82,190,2.0,299.6,331.5,301.5
878.9,1281,15.6,13.1,85,10.85,192,2.1,299.6,331.6,301.5
878.5,1285,15.6,13.1,85,10.87,193,2.1,299.6,331.6,301.6
878.0,1289,15.5,13.1,86,10.87,194,2.1,299.6,331.7,301.6
877.6,1294,15.5,13.1,86,10.88,195,2.1,299.6,331.7,301.6
877.1,1299,15.5,13.1,86,10.89,196,2.2,299.6,331.7,301.6
876.5,1304,15.4,13.1,86,10.88,196,2.2,299.6,331.7,301.6
876.0,1309,15.4,13.0,86,10.84,197,2.3,299.6,331.6,301.6
875.5,1314,15.3,13.0,86,10.80,197,2.3,299.6,331.5,301.6
875.1,1318,15.3,13.0,86,10.79,197,2.4,299.7,331.5,301.6
874.6,1323,15.3,13.0,86,10.81,197,2.4,299.7,331.6,301.6
874.1,1327,15.3,13.0,86,10.82,197,2.5,299.7,331.6,301.7
873.7,1332,15.2,13.0,86,10.81,197,2.5,299.7,331.6,301.7
873.2,1336,15.3,13.0,86,10.84,197,2.6,299.8,331.8,301.8
872.7,1341,15.3,13.1,87,10.89,197,2.6,299.9,332.0,301.8
872.2,1346,15.2,13.1,87,10.89,197,2.7,299.9,332.0,301.8
871.7,1351,15.2,12.9,86,10.79,197,2.7,299.9,331.7,301.8
871.2,1356,15.2,12.6,85,10.61,197,2.7,299.9,331.2,301.8
870.7,1361,15.1,12.3,83,10.38,197,2.7,299.9,330.6,301.8
870.2,1366,15.1,11.9,81,10.10,198,2.8,300.0,329.8,301.8
869.7,1371,15.2,11.5,79,9.82,198,2.8,300.0,329.1,301.8
869.1,1376,15.2,11.2,77,9.67,198,2.8,300.1,328.8,301.9
868.6,1381,15.2,11.1,77,9.61,199,2.8,300.1,328.6,301.9
868.1,1386,15.1,11.0,77,9.56,199,2.8,300.2,328.5,301.9
867.6,1391,15.1,10.9,76,9.49,200,2.9,300.2,328.3,301.9
867.1,1396,15.1,10.8,75,9.40,200,2.9,300.2,328.1,301.9
866.5,1401,15.1,10.6,75,9.32,201,2.9,300.2,327.9,301.9
866.0,1407,15.0,10.5,75,9.27,201,2.9,300.3,327.8,301.9
865.5,1412,15.0,10.5,74,9.23,202,3.0,300.3,327.7,301.9
864.9,1417,15.0,10.4,74,9.21,202,3.0,300.3,327.6,302.0
864.4,1422,14.9,10.4,74,9.20,203,3.0,300.3,327.6,302.0
863.9,1427,14.9,10.4,75,9.20,203,3.1,300.3,327.6,302.0
863.4,1432,14.8,10.3,75,9.18,204,3.1,300.3,327.6,302.0
862.9,1437,14.8,10.3,75,9.17,204,3.1,300.3,327.5,302.0
862.4,1442,14.7,10.3,75,9.18,204,3.2,300.3,327.6,302.0
861.8,1448,14.7,10.3,75,9.18,204,3.2,300.3,327.6,302.0
861.2,1453,14.6,10.3,75,9.16,205,3.3,300.3,327.5,302.0
860.7,1459,14.6,10.2,75,9.10,205,3.3,300.4,327.4,302.0
860.1,1465,14.6,10.0,74,9.00,205,3.4,300.4,327.1,302.0
859.5,1470,14.5,9.8,73,8.88,204,3.4,300.4,326.8,302.0
859.0,1476,14.5,9.6,73,8.78,204,3.5,300.4,326.5,302.0
858.4,1481,14.5,9.5,72,8.74,204,3.5,300.4,326.4,302.0
857.9,1486,14.4,9.5,72,8.74,203,3.5,300.4,326.4,302.0
857.4,1491,14.4,9.6,73,8.77,203,3.6,300.5,326.5,302.0
856.9,1496,14.3,9.6,73,8.81,202,3.6,300.5,326.7,302.1
856.4,1501,14.3,9.7,74,8.84,202,3.6,300.5,326.8,302.1
856.0,1505,14.3,9.7,74,8.86,201,3.7,300.5,326.8,302.1
855.5,1510,14.2,9.7,74,8.89,201,3.7,300.5,326.9,302.1
855.1,1514,14.2,9.8,75,8.90,200,3.7,300.5,327.0,302.1
854.6,1519,14.2,9.7,75,8.90,199,3.7,300.5,327.0,302.1
854.2,1523,14.1,9.7,75,8.87,198,3.7,300.5,326.9,302.1
853.7,1528,14.1,9.6,75,8.85,197,3.8,300.5,326.9,302.1
853.3,1532,14.1,9.6,75,8.85,196,3.8,300.5,326.9,302.1
852.8,1537,14.0,9.7,75,8.87,196,3.8,300.5,326.9,302.2
852.4,1541,14.0,9.7,75,8.91,195,3.8,300.5,327.1,302.2
851.9,1546,14.0,9.8,76,8.94,194,3.8,300.6,327.2,302.2
851.4,1550,13.9,9.8,76,8.97,193,3.8,300.6,327.2,302.2
851.0,1555,13.9,9.8,76,8.98,192,3.8,300.6,327.3,302.2
850.5,1560,13.8,9.8,77,9.00,191,3.8,300.6,327.4,302.2
850.0,1564,13.8,9.9,77,9.04,189,3.8,300.6,327.5,302.2
849.5,1569,13.8,9.9,78,9.07,189,3.8,300.6,327.6,302.2
849.0,1574,13.7,9.9,78,9.08,189,3.8,300.6,327.6,302.2
848.5,1579,13.7,9.9,78,9.08,188,3.8,300.6,327.6,302.2
848.1,1584,13.6,9.9,78,9.09,187,3.8,300.6,327.6,302.2
847.6,1588,13.6,10.0,79,9.15,187,3.8,300.6,327.8,302.2
847.2,1593,13.5,10.2,80,9.25,186,3.8,300.6,328.1,302.3
846.7,1597,13.5,10.3,81,9.35,186,3.8,300.6,328.3,302.3
846.2,1602,13.4,10.4,82,9.39,185,3.8,300.6,328.5,302.3
845.8,1606,13.4,10.4,82,9.42,185,3.8,300.6,328.5,302.3
845.4,1611,13.3,10.5,83,9.45,185,3.8,300.5,328.6,302.3
844.9,1615,13.3,10.4,83,9.43,185,3.8,300.5,328.5,302.3
844.4,1620,13.2,10.4,83,9.43,184,3.8,300.6,328.6,302.3
844.0,1625,13.2,10.5,84,9.49,184,3.7,300.5,328.7,302.3
843.5,1629,13.1,10.6,85,9.55,184,3.7,300.5,328.9,302.3
843.0,1635,13.1,10.7,85,9.63,184,3.7,300.5,329.1,302.3
842.4,1640,13.0,10.9,87,9.78,184,3.6,300.6,329.6,302.3
841.9,1645,13.0,11.2,89,9.94,183,3.6,300.5,330.0,302.3
841.4,1651,12.9,11.3,90,10.08,183,3.6,300.5,330.4,302.3
840.8,1656,12.8,11.5,92,10.17,183,3.5,300.5,330.6,302.3
840.3,1661,12.7,11.4,92,10.16,183,3.5,300.5,330.6,302.3
839.8,1667,12.7,11.3,92,10.10,182,3.4,300.4,330.4,302.3
839.3,1672,12.6,11.3,92,10.08,182,3.4,300.4,330.3,302.3
838.7,1677,12.6,11.4,92,10.13,182,3.3,300.5,330.5,302.3
838.2,1682,12.5,11.5,93,10.21,181,3.3,300.5,330.7,302.3
837.7,1687,12.5,11.6,94,10.28,180,3.2,300.5,330.9,302.3
837.2,1693,12.4,11.6,94,10.28,180,3.2,300.5,330.9,302.3
836.7,1698,12.4,11.5,94,10.25,179,3.1,300.5,330.8,302.3
836.1,1703,12.3,11.5,94,10.23,178,3.1,300.5,330.8,302.3
835.6,1708,12.3,11.4,95,10.21,177,3.1,300.5,330.7,302.3
835.2,1713,12.2,11.4,95,10.22,177,3.0,300.4,330.7,302.3
834.7,1718,12.2,11.5,96,10.28,176,3.0,300.5,330.9,302.3
834.2,1723,12.2,11.6,96,10.31,175,3.0,300.5,331.0,302.3
833.7,1727,12.1,11.6,96,10.33,174,3.0,300.5,331.1,302.4
