PRES,HGHT,TEMP,DWPT,RELH,MIXR,DRCT,SPED,THTA,THTE,THTV
1014.9,31,27.6,22.8,75,17.47,79,6.1,299.5,350.7,302.6
1014.3,36,26.9,22.1,75,16.74,77,4.4,298.8,347.8,301.8
1013.7,41,26.3,22.0,77,16.68,77,4.2,298.3,347.0,301.3
1013.0,47,25.7,21.9,80,16.56,77,4.3,297.7,346.0,300.7
1012.5,52,25.3,21.7,81,16.38,77,4.6,297.4,345.0,300.3
1011.9,57,25.0,21.5,81,16.20,77,4.9,297.1,344.2,300.0
1011.4,61,24.9,21.4,81,16.07,77,5.2,297.0,343.7,299.9
1011.0,65,24.8,21.3,81,15.96,77,5.4,297.1,343.4,299.9
1010.5,69,24.8,21.2,80,15.83,77,5.7,297.1,343.1,299.9
1010.0,73,24.8,21.0,80,15.73,77,5.9,297.1,342.8,299.9
1009.5,77,24.7,21.0,80,15.72,77,6.0,297.1,342.7,299.9
1009.0,82,24.7,21.1,80,15.76,77,6.2,297.1,342.8,299.9
1008.5,87,24.6,21.1,81,15.77,77,6.3,297.1,342.8,299.9
1007.9,91,24.6,21.0,80,15.70,77,6.4,297.0,342.6,299.8
1007.4,96,24.5,20.9,80,15.65,77,6.5,297.0,342.4,299.8
1006.9,101,24.5,20.9,80,15.65,77,6.6,297.1,342.5,299.8
1006.3,105,24.5,20.9,81,15.65,77,6.7,297.1,342.5,299.9
1005.8,110,24.4,20.9,81,15.62,77,6.7,297.0,342.4,299.8
1005.3,115,24.3,20.8,81,15.58,77,6.8,297.0,342.2,299.8
1004.7,119,24.2,20.8,81,15.57,77,6.8,297.0,342.1,299.7
1004.2,124,24.2,20.8,82,15.59,77,6.8,297.0,342.2,299.7
1003.7,129,24.1,20.8,82,15.61,76,6.8,296.9,342.2,299.7
1003.1,133,24.1,20.8,82,15.61,76,6.7,297.0,342.2,299.7
1002.6,138,24.0,20.8,82,15.62,76,6.7,296.9,342.3,299.7
1002.0,143,24.0,20.9,83,15.68,76,6.7,296.9,342.4,299.7
1001.4,148,23.9,20.9,83,15.73,76,6.6,297.0,342.6,299.7
1000.8,154,23.9,20.9,84,15.77,76,6.6,297.0,342.7,299.8
1000.2,159,23.8,21.0,84,15.81,76,6.6,297.0,342.8,299.8
1000.0,161,23.8,21.0,84,15.82,76,6.5,297.0,342.9,299.8
999.6,165,23.8,21.0,84,15.85,76,6.5,297.0,343.0,299.8
998.9,170,23.7,21.0,84,15.82,76,6.5,297.0,342.9,299.8
998.3,176,23.7,20.8,84,15.68,75,6.5,297.0,342.5,299.8
997.6,182,23.6,20.7,83,15.57,75,6.4,297.0,342.2,299.8
996.9,188,23.6,20.6,83,15.51,75,6.4,297.0,342.0,299.8
996.2,194,23.5,20.5,83,15.46,75,6.4,297.0,341.9,299.8
995.6,200,23.5,20.5,83,15.40,75,6.3,297.0,341.7,299.7
994.9,205,23.4,20.4,83,15.34,75,6.3,297.0,341.5,299.7
994.3,211,23.4,20.4,83,15.31,75,6.3,297.0,341.4,299.7
993.7,216,23.3,20.4,84,15.35,75,6.3,297.0,341.6,299.7
993.2,221,23.3,20.5,85,15.49,75,6.3,297.0,341.9,299.8
992.7,225,23.2,20.7,86,15.67,75,6.3,297.0,342.5,299.8
992.2,229,23.2,20.8,87,15.80,75,6.3,297.0,342.8,299.8
991.7,234,23.1,20.8,87,15.82,75,6.3,297.0,342.9,299.8
991.2,238,23.1,20.7,86,15.69,74,6.3,297.0,342.5,299.8
990.7,242,23.1,20.5,86,15.51,74,6.3,297.0,342.0,299.7
990.2,247,23.0,20.4,85,15.40,74,6.3,297.0,341.7,299.7
989.7,251,23.0,20.3,85,15.37,74,6.3,297.0,341.6,299.7
989.2,256,22.9,20.3,85,15.37,74,6.3,297.0,341.6,299.7
988.7,260,22.9,20.3,86,15.38,74,6.3,297.0,341.6,299.7
988.2,264,22.8,20.4,86,15.40,74,6.3,297.0,341.7,299.7
987.7,269,22.8,20.4,86,15.42,74,6.3,297.0,341.7,299.7
987.2,273,22.8,20.4,86,15.42,74,6.3,297.0,341.7,299.7
986.7,278,22.7,20.3,87,15.42,74,6.3,297.0,341.7,299.7
986.2,282,22.7,20.3,87,15.42,74,6.3,297.0,341.7,299.7
985.7,287,22.6,20.3,87,15.43,74,6.3,297.0,341.8,299.7
985.2,291,22.6,20.4,87,15.45,74,6.2,297.0,341.8,299.7
984.7,296,22.5,20.4,88,15.47,75,6.2,297.0,341.9,299.7
984.2,300,22.5,20.4,88,15.48,75,6.2,297.0,341.9,299.7
983.7,305,22.4,20.3,88,15.47,75,6.2,297.0,341.8,299.7
983.2,309,22.4,20.3,88,15.45,75,6.2,297.0,341.8,299.7
982.7,314,22.3,20.3,88,15.44,75,6.2,297.0,341.8,299.7
982.1,318,22.3,20.3,88,15.43,75,6.2,297.0,341.7,299.7
981.6,323,22.3,20.3,88,15.42,75,6.2,297.0,341.7,299.7
981.1,328,22.2,20.3,89,15.42,76,6.2,297.0,341.7,299.7
980.6,332,22.2,20.2,89,15.42,76,6.2,297.0,341.7,299.7
980.0,337,22.1,20.2,89,15.42,76,6.2,297.0,341.7,299.7
979.5,342,22.1,20.2,89,15.41,76,6.2,297.0,341.7,299.7
979.0,346,22.1,20.2,89,15.40,76,6.2,297.0,341.7,299.7
978.5,351,22.0,20.2,90,15.43,76,6.2,297.0,341.8,299.7
978.0,355,22.0,20.3,90,15.47,77,6.2,297.0,341.9,299.7
977.5,360,21.9,20.2,90,15.47,77,6.2,297.0,341.8,299.7
977.0,365,21.8,20.2,91,15.46,77,6.2,297.0,341.8,299.7
976.4,369,21.8,20.2,91,15.46,77,6.2,297.0,341.8,299.7
975.9,374,21.8,20.2,91,15.46,77,6.3,297.0,341.8,299.7
975.4,378,21.7,20.2,91,15.46,77,6.3,297.0,341.8,299.7
974.9,383,21.7,20.2,91,15.45,77,6.3,297.0,341.8,299.7
974.3,388,21.6,20.2,91,15.44,77,6.3,297.0,341.8,299.7
973.8,392,21.6,20.1,91,15.41,77,6.4,297.0,341.7,299.7
973.3,397,21.5,20.1,91,15.37,77,6.4,297.0,341.6,299.7
972.8,401,21.5,20.1,92,15.38,77,6.5,297.0,341.6,299.7
972.4,406,21.5,20.1,92,15.41,77,6.5,297.0,341.7,299.7
971.9,410,21.4,20.1,92,15.46,77,6.5,297.0,341.8,299.7
971.4,414,21.4,20.2,93,15.51,77,6.6,297.0,342.0,299.7
970.9,419,21.3,20.2,93,15.54,77,6.6,297.0,342.0,299.7
970.4,423,21.3,20.2,93,15.53,76,6.7,297.0,342.0,299.7
969.9,428,21.2,20.2,94,15.52,76,6.7,297.0,342.0,299.7
969.4,432,21.2,20.1,94,15.50,76,6.8,297.0,341.9,299.7
968.9,437,21.2,20.1,94,15.47,76,6.8,297.0,341.8,299.7
968.3,442,21.1,20.1,94,15.46,76,6.9,297.0,341.8,299.7
967.8,447,21.1,20.1,94,15.47,75,6.9,297.0,341.8,299.7
967.2,452,21.0,20.1,94,15.47,75,7.0,297.0,341.8,299.7
966.6,457,20.9,20.1,95,15.46,75,7.0,297.0,341.8,299.7
966.1,462,20.9,20.0,95,15.45,75,7.1,297.0,341.8,299.7
965.5,467,20.9,20.0,95,15.46,75,7.1,297.0,341.8,299.7
964.9,472,20.8,20.0,95,15.47,74,7.2,297.0,341.8,299.7
964.3,478,20.8,20.1,96,15.50,74,7.2,297.0,341.9,299.7
963.7,483,20.7,20.1,96,15.54,74,7.2,297.0,342.1,299.8
963.1,488,20.7,20.1,96,15.55,74,7.3,297.0,342.1,299.7
962.5,494,20.6,20.0,96,15.51,74,7.3,297.0,342.0,299.7
961.9,499,20.6,20.0,96,15.44,74,7.3,297.0,341.8,299.7
961.3,505,20.5,19.9,96,15.41,74,7.3,297.0,341.7,299.7
960.7,510,20.5,19.9,97,15.43,74,7.3,297.0,341.8,299.7
960.2,515,20.4,19.9,97,15.43,74,7.3,297.0,341.7,299.7
959.6,521,20.4,19.9,97,15.41,74,7.3,297.0,341.7,299.7
959.0,526,20.3,19.8,97,15.37,74,7.3,297.0,341.6,299.7
958.5,531,20.3,19.8,97,15.32,75,7.4,297.0,341.5,299.7
958.0,535,20.3,19.7,97,15.25,75,7.4,297.0,341.3,299.7
957.5,540,20.2,19.6,96,15.15,75,7.4,297.0,341.0,299.7
957.0,544,20.2,19.5,96,15.05,75,7.3,297.1,340.7,299.7
956.5,549,20.2,19.4,95,15.02,75,7.3,297.1,340.7,299.8
956.0,553,20.2,19.4,96,15.02,76,7.3,297.1,340.7,299.8
955.6,557,20.1,19.4,95,14.99,76,7.3,297.1,340.6,299.8
955.1,561,20.1,19.3,95,14.95,76,7.3,297.1,340.5,299.8
954.7,565,20.1,19.3,95,14.94,77,7.4,297.1,340.5,299.8
954.2,569,20.0,19.3,96,14.93,77,7.4,297.1,340.5,299.8
953.7,574,20.0,19.3,96,14.91,77,7.4,297.1,340.4,299.8
953.2,578,20.0,19.2,96,14.89,78,7.4,297.2,340.4,299.8
952.7,583,19.9,19.2,96,14.87,78,7.4,297.2,340.3,299.8
952.1,588,19.9,19.2,96,14.83,78,7.4,297.2,340.2,299.8
951.6,593,19.8,19.1,96,14.82,79,7.5,297.2,340.2,299.8
951.1,598,19.8,19.1,96,14.83,79,7.5,297.2,340.2,299.8
950.6,602,19.7,19.1,96,14.84,79,7.6,297.2,340.2,299.8
950.1,607,19.7,19.1,96,14.81,80,7.6,297.1,340.1,299.8
949.6,611,19.6,19.1,96,14.78,80,7.7,297.1,340.1,299.8
949.1,616,19.6,19.1,97,14.80,80,7.7,297.1,340.1,299.8
948.6,620,19.6,19.1,97,14.81,80,7.8,297.1,340.1,299.8
948.1,625,19.5,19.0,97,14.74,80,7.9,297.2,339.9,299.8
947.6,629,19.5,18.9,96,14.65,80,8.0,297.2,339.7,299.8
947.1,634,19.5,18.9,96,14.62,80,8.1,297.2,339.7,299.8
946.6,638,19.4,18.8,96,14.59,81,8.1,297.2,339.6,299.8
946.1,643,19.4,18.8,96,14.56,81,8.2,297.2,339.5,299.8
945.6,648,19.4,18.8,96,14.56,81,8.3,297.2,339.5,299.8
945.1,652,19.3,18.8,97,14.58,81,8.4,297.2,339.6,299.8
944.6,657,19.3,18.7,96,14.50,81,8.5,297.2,339.4,299.8
944.1,661,19.2,18.5,96,14.37,80,8.6,297.2,339.0,299.8
943.6,666,19.2,18.4,95,14.30,80,8.7,297.3,338.8,299.8
943.2,670,19.2,18.4,95,14.29,80,8.7,297.3,338.8,299.8
942.7,674,19.2,18.5,96,14.37,80,8.8,297.3,339.0,299.8
942.2,678,19.1,18.7,97,14.54,80,8.9,297.3,339.5,299.9
941.8,682,19.1,18.8,99,14.70,80,9.0,297.3,340.0,299.9
941.4,686,19.0,18.9,99,14.73,80,9.0,297.3,340.1,299.9
940.9,691,19.0,18.8,99,14.69,80,9.1,297.3,339.9,299.9
940.5,695,18.9,18.7,99,14.61,80,9.1,297.3,339.7,299.9
940.0,699,18.9,18.6,98,14.50,80,9.1,297.3,339.4,299.9
939.5,703,18.9,18.5,98,14.41,80,9.2,297.3,339.1,299.8
939.0,708,18.8,18.5,98,14.41,79,9.2,297.3,339.1,299.8
938.5,712,18.8,18.4,98,14.37,79,9.2,297.3,339.0,299.8
938.0,717,18.8,18.3,97,14.24,79,9.2,297.3,338.7,299.8
937.5,722,18.7,18.1,96,14.06,79,9.2,297.3,338.2,299.8
937.0,727,18.7,17.9,95,13.90,79,9.2,297.3,337.7,299.8
936.5,731,18.7,17.8,94,13.81,79,9.2,297.4,337.5,299.8
936.0,736,18.7,17.7,94,13.75,78,9.2,297.4,337.4,299.9
935.5,741,18.7,17.6,94,13.69,78,9.2,297.5,337.3,299.9
934.9,745,18.7,17.5,93,13.59,78,9.2,297.5,337.0,299.9
934.4,750,18.7,17.3,91,13.38,78,9.1,297.5,336.5,299.9
933.9,755,18.7,16.9,90,13.10,78,9.1,297.6,335.7,299.9
933.3,760,18.7,16.6,87,12.84,78,9.1,297.7,335.1,300.0
932.8,765,18.8,16.4,86,12.65,77,9.0,297.8,334.7,300.0
932.2,771,18.8,16.3,85,12.59,77,9.0,297.8,334.6,300.1
931.6,776,18.8,16.3,85,12.60,77,8.9,297.9,334.7,300.2
931.0,782,18.8,16.3,86,12.62,77,8.9,297.9,334.8,300.2
930.5,787,18.8,16.3,86,12.65,77,8.8,298.0,334.9,300.2
929.9,792,18.7,16.3,86,12.64,76,8.8,298.0,334.9,300.3
929.4,797,18.7,16.3,86,12.61,76,8.7,298.0,334.8,300.3
928.9,801,18.7,16.3,86,12.61,76,8.7,298.0,334.9,300.3
928.4,806,18.6,16.2,86,12.61,76,8.6,298.0,334.9,300.3
927.9,810,18.6,16.2,86,12.62,76,8.5,298.1,334.9,300.3
927.5,814,18.6,16.3,87,12.66,76,8.5,298.1,335.0,300.3
927.0,819,18.5,16.4,87,12.72,76,8.4,298.1,335.2,300.3
926.5,824,18.5,16.4,88,12.77,76,8.3,298.1,335.3,300.3
926.0,828,18.4,16.4,88,12.76,76,8.2,298.1,335.3,300.3
925.5,833,18.4,16.3,88,12.73,76,8.2,298.1,335.2,300.3
925.0,837,18.4,16.3,88,12.68,76,8.2,298.1,335.1,300.3
924.4,843,18.3,16.2,87,12.60,77,8.0,298.1,334.9,300.4
923.9,847,18.3,16.1,87,12.52,77,7.9,298.1,334.7,300.4
923.4,852,18.3,16.0,86,12.45,77,7.9,298.1,334.5,300.4
922.8,858,18.3,15.9,86,12.41,77,7.8,298.2,334.4,300.4
922.3,863,18.2,15.9,86,12.40,77,7.7,298.2,334.4,300.4
921.7,868,18.2,15.9,86,12.39,78,7.7,298.2,334.4,300.4
921.1,874,18.2,15.8,86,12.35,78,7.6,298.2,334.3,300.4
920.5,879,18.1,15.7,86,12.26,78,7.5,298.3,334.1,300.5
919.9,885,18.1,15.6,85,12.19,78,7.5,298.3,333.9,300.5
919.4,890,18.1,15.5,85,12.13,79,7.4,298.3,333.8,300.5
918.8,895,18.1,15.5,85,12.10,79,7.4,298.4,333.8,300.5
918.3,900,18.1,15.4,85,12.10,79,7.3,298.4,333.8,300.5
917.8,904,18.0,15.4,85,12.10,80,7.3,298.4,333.8,300.6
917.4,909,18.0,15.4,85,12.12,80,7.2,298.4,333.9,300.6
916.9,913,18.0,15.5,85,12.15,80,7.2,298.4,334.0,300.6
916.5,917,17.9,15.5,86,12.18,80,7.2,298.4,334.1,300.6
916.0,921,17.9,15.5,86,12.21,81,7.2,298.4,334.1,300.6
915.6,926,17.8,15.6,87,12.24,81,7.2,298.4,334.2,300.6
915.1,930,17.8,15.6,87,12.27,81,7.1,298.4,334.3,300.6
914.6,934,17.8,15.6,87,12.30,81,7.1,298.4,334.4,300.6
914.2,938,17.7,15.7,88,12.33,82,7.1,298.4,334.5,300.7
913.7,943,17.7,15.7,88,12.35,82,7.1,298.5,334.6,300.7
913.3,947,17.7,15.7,88,12.35,82,7.2,298.5,334.6,300.7
912.9,951,17.7,15.7,88,12.36,82,7.2,298.5,334.7,300.7
912.4,955,17.6,15.7,88,12.38,83,7.2,298.5,334.8,300.7
912.0,959,17.6,15.7,89,12.41,83,7.2,298.5,334.8,300.7
911.6,963,17.6,15.7,89,12.41,83,7.2,298.5,334.8,300.7
911.2,967,17.5,15.7,89,12.38,83,7.3,298.5,334.8,300.7
910.8,971,17.5,15.6,89,12.36,83,7.3,298.5,334.7,300.7
910.3,975,17.5,15.6,89,12.36,83,7.3,298.5,334.7,300.7
909.8,979,17.4,15.7,90,12.42,83,7.4,298.5,334.9,300.8
909.4,984,17.4,15.7,90,12.47,84,7.4,298.5,335.0,300.7
908.8,989,17.3,15.7,90,12.47,84,7.4,298.5,335.0,300.7
908.3,993,17.3,15.7,90,12.44,84,7.5,298.5,334.9,300.7
907.8,998,17.2,15.6,90,12.37,84,7.5,298.5,334.7,300.7
907.3,1003,17.2,15.5,90,12.31,84,7.5,298.6,334.6,300.8
906.8,1008,17.2,15.5,89,12.28,84,7.6,298.6,334.6,300.8
906.3,1013,17.2,15.4,89,12.25,84,7.6,298.7,334.6,300.9
905.8,1017,17.2,15.3,89,12.19,84,7.6,298.7,334.4,300.9
905.3,1022,17.2,15.2,88,12.12,84,7.6,298.7,334.3,300.9
904.8,1027,17.2,15.1,88,12.05,84,7.7,298.8,334.1,300.9
904.4,1031,17.2,15.1,87,12.00,84,7.7,298.8,334.0,300.9
903.9,1035,17.2,15.0,87,11.98,84,7.7,298.8,334.0,301.0
903.4,1040,17.2,15.0,87,11.99,84,7.7,298.9,334.0,301.0
903.0,1044,17.2,15.0,87,11.99,84,7.7,298.9,334.1,301.1
902.5,1049,17.1,15.1,88,12.01,84,7.7,298.9,334.2,301.1
902.0,1054,17.1,15.1,88,12.02,84,7.7,298.9,334.2,301.1
901.5,1058,17.1,15.0,88,12.00,84,7.7,299.0,334.2,301.1
900.9,1064,17.1,15.0,87,11.98,84,7.7,299.0,334.2,301.2
900.4,1069,17.1,15.0,87,11.96,84,7.7,299.1,334.2,301.2
899.8,1074,17.1,14.9,87,11.95,84,7.7,299.1,334.2,301.2
899.2,1080,17.0,14.9,87,11.94,84,7.7,299.1,334.2,301.3
898.6,1085,17.0,14.9,87,11.95,84,7.7,299.2,334.3,301.3
898.1,1091,17.0,14.9,88,11.97,84,7.6,299.2,334.3,301.3
897.5,1097,16.9,14.9,88,11.97,84,7.6,299.2,334.4,301.3
896.9,1102,16.9,14.9,88,11.97,84,7.6,299.2,334.3,301.3
896.3,1108,16.9,14.9,88,11.94,84,7.6,299.2,334.3,301.4
895.7,1113,16.8,14.8,88,11.92,84,7.5,299.2,334.3,301.4
895.2,1118,16.8,14.8,88,11.93,84,7.5,299.2,334.3,301.4
894.7,1122,16.7,14.8,89,11.95,84,7.4,299.3,334.4,301.4
894.3,1127,16.7,14.9,89,11.98,84,7.4,299.3,334.4,301.4
893.8,1131,16.7,14.9,89,11.99,84,7.3,299.3,334.5,301.4
893.3,1136,16.6,14.8,89,11.97,85,7.3,299.3,334.4,301.4
892.9,1140,16.6,14.8,89,11.96,85,7.2,299.3,334.4,301.4
892.4,1145,16.6,14.8,90,11.98,85,7.2,299.3,334.5,301.4
891.9,1150,16.5,14.9,90,12.02,85,7.1,299.3,334.6,301.4
891.3,1155,16.5,14.9,91,12.06,86,7.1,299.3,334.7,301.4
890.7,1161,16.4,14.9,91,12.08,86,7.0,299.3,334.8,301.5
890.1,1167,16.4,14.9,91,12.08,86,7.0,299.3,334.8,301.5
889.5,1173,16.3,14.9,92,12.09,86,6.9,299.3,334.8,301.5
888.9,1179,16.2,14.9,92,12.09,87,6.9,299.3,334.8,301.5
888.2,1185,16.2,14.9,92,12.07,87,6.8,299.3,334.7,301.5
887.6,1190,16.1,14.8,92,12.03,88,6.8,299.3,334.6,301.5
887.1,1196,16.1,14.8,92,11.98,88,6.7,299.3,334.5,301.5
886.6,1201,16.1,14.7,92,11.95,88,6.7,299.3,334.5,301.5
886.1,1205,16.1,14.7,92,11.96,89,6.6,299.4,334.5,301.5
885.6,1210,16.0,14.7,92,12.00,89,6.6,299.4,334.7,301.6
885.2,1214,16.0,14.8,93,12.04,89,6.5,299.4,334.8,301.6
884.8,1218,16.0,14.8,93,12.05,90,6.5,299.4,334.8,301.6
884.3,1222,15.9,14.8,93,12.05,90,6.4,299.4,334.8,301.6
883.9,1226,15.9,14.8,93,12.03,90,6.4,299.4,334.8,301.6
883.5,1231,15.9,14.8,93,12.05,90,6.4,299.4,334.9,301.6
883.0,1235,15.8,14.8,93,12.07,90,6.3,299.4,334.9,301.6
882.6,1239,15.8,14.8,94,12.10,90,6.3,299.5,335.0,301.6
882.1,1244,15.8,14.8,94,12.12,90,6.3,299.5,335.1,301.6
881.6,1249,15.7,14.8,94,12.11,90,6.3,299.5,335.0,301.6
881.0,1254,15.7,14.8,94,12.08,90,6.3,299.5,335.0,301.6
880.5,1259,15.7,14.7,94,12.01,90,6.2,299.5,334.8,301.7
879.9,1265,15.6,14.6,93,11.95,90,6.2,299.5,334.7,301.7
879.3,1270,15.6,14.5,93,11.89,89,6.2,299.6,334.6,301.7
878.7,1276,15.6,14.4,93,11.85,89,6.2,299.6,334.5,301.7
878.1,1282,15.6,14.3,92,11.79,89,6.2,299.6,334.3,301.8
877.5,1288,15.6,14.3,92,11.74,88,6.2,299.7,334.2,301.8
876.9,1294,15.5,14.2,92,11.71,88,6.2,299.7,334.2,301.8
876.3,1300,15.5,14.2,92,11.68,88,6.2,299.7,334.1,301.9
875.7,1306,15.5,14.1,92,11.66,87,6.3,299.8,334.1,301.9
875.2,1311,15.4,14.1,92,11.65,87,6.3,299.8,334.1,301.9
874.7,1316,15.4,14.1,92,11.65,87,6.3,299.8,334.1,301.9
874.1,1321,15.4,14.1,92,11.65,87,6.3,299.8,334.1,301.9
873.7,1326,15.3,14.1,92,11.67,86,6.3,299.8,334.2,301.9
873.2,1331,15.3,14.1,93,11.70,86,6.3,299.9,334.3,302.0
872.7,1335,15.3,14.2,93,11.71,86,6.4,299.9,334.4,302.0
872.1,1340,15.3,14.1,93,11.69,86,6.4,299.9,334.4,302.0
871.6,1346,15.3,14.1,92,11.65,86,6.4,300.0,334.3,302.1
871.1,1351,15.2,14.0,92,11.61,86,6.5,300.0,334.2,302.1
870.6,1356,15.2,14.0,92,11.59,87,6.5,300.0,334.2,302.1
870.0,1361,15.2,13.9,92,11.59,87,6.5,300.1,334.2,302.2
869.5,1366,15.2,14.0,92,11.60,87,6.6,300.1,334.3,302.2
869.0,1371,15.1,14.0,93,11.61,87,6.6,300.1,334.3,302.2
868.4,1377,15.1,13.9,93,11.60,87,6.7,300.1,334.3,302.2
867.9,1382,15.1,13.9,93,11.59,87,6.7,300.1,334.3,302.2
867.4,1387,15.0,13.9,93,11.61,88,6.8,300.1,334.4,302.2
866.9,1392,15.0,13.9,93,11.61,88,6.8,300.2,334.4,302.2
866.4,1397,15.0,13.9,93,11.61,88,6.9,300.2,334.4,302.3
865.9,1401,14.9,13.9,93,11.60,88,6.9,300.2,334.4,302.3
865.4,1406,14.9,13.9,94,11.59,88,6.9,300.2,334.4,302.3
865.0,1411,14.8,13.8,94,11.58,88,7.0,300.2,334.3,302.3
864.5,1415,14.8,13.8,94,11.56,89,7.0,300.2,334.3,302.3
864.1,1419,14.8,13.8,94,11.54,89,7.1,300.2,334.3,302.3
863.7,1423,14.8,13.8,94,11.54,89,7.1,300.2,334.3,302.3
863.3,1427,14.7,13.8,94,11.54,88,7.2,300.2,334.3,302.3
862.9,1431,14.7,13.8,94,11.55,88,7.2,300.2,334.3,302.3
862.5,1435,14.6,13.8,94,11.55,88,7.2,300.2,334.3,302.3
862.0,1439,14.6,13.7,95,11.54,88,7.2,300.2,334.3,302.3
861.6,1443,14.6,13.7,94,11.50,88,7.2,300.2,334.2,302.3
861.2,1448,14.6,13.6,94,11.46,88,7.3,300.2,334.1,302.3
860.8,1452,14.5,13.6,94,11.44,88,7.3,300.3,334.0,302.3
860.3,1456,14.5,13.6,95,11.47,87,7.3,300.3,334.1,302.3
859.9,1460,14.5,13.7,95,11.50,87,7.3,300.3,334.2,302.3
859.5,1465,14.4,13.7,95,11.52,87,7.3,300.3,334.3,302.4
859.0,1469,14.4,13.7,96,11.53,87,7.3,300.3,334.3,302.4
858.6,1474,14.3,13.7,96,11.54,87,7.2,300.3,334.3,302.4
858.1,1478,14.3,13.7,96,11.54,86,7.2,300.3,334.4,302.4
857.7,1482,14.3,13.7,96,11.54,86,7.2,300.3,334.4,302.4
857.3,1486,14.2,13.6,96,11.53,86,7.1,300.3,334.3,302.4
856.9,1490,14.2,13.6,96,11.52,86,7.1,300.3,334.3,302.4
856.5,1494,14.2,13.6,96,11.53,86,7.1,300.3,334.4,302.4
856.1,1498,14.2,13.6,97,11.53,86,7.0,300.4,334.4,302.4
855.6,1502,14.2,13.6,97,11.53,86,7.0,300.4,334.4,302.5
855.2,1507,14.1,13.6,97,11.52,86,6.9,300.4,334.4,302.5
854.8,1511,14.1,13.6,96,11.50,86,6.8,300.4,334.4,302.5
854.4,1515,14.1,13.5,96,11.45,86,6.8,300.5,334.3,302.5
854.0,1519,14.1,13.4,95,11.36,86,6.7,300.5,334.1,302.6
853.5,1523,14.1,13.3,95,11.29,86,6.6,300.5,333.9,302.6
853.1,1528,14.1,13.2,95,11.28,86,6.6,300.6,333.9,302.6
852.7,1532,14.1,13.3,95,11.30,86,6.5,300.6,334.0,302.6
852.3,1536,14.1,13.3,95,11.35,86,6.4,300.6,334.2,302.7
851.9,1540,14.0,13.3,96,11.38,86,6.4,300.6,334.3,302.7
851.5,1544,14.0,13.3,96,11.37,87,6.3,300.7,334.3,302.7
851.1,1548,14.0,13.3,95,11.34,87,6.2,300.7,334.3,302.8
850.6,1552,14.0,13.2,95,11.31,87,6.2,300.8,334.2,302.8
850.2,1557,14.0,13.2,95,11.29,87,6.1,300.8,334.2,302.8
850.0,1559,14.0,13.2,95,11.30,87,6.1,300.8,334.2,302.8
849.7,1562,14.0,13.2,95,11.30,87,6.1,300.8,334.3,302.9
849.2,1566,14.0,13.2,95,11.27,87,6.0,300.8,334.2,302.9
848.7,1572,13.9,13.1,95,11.22,87,6.0,300.8,334.1,302.9
848.2,1577,13.9,13.0,94,11.16,87,5.9,300.9,333.9,302.9
847.7,1582,13.9,13.0,94,11.14,87,5.9,300.9,333.9,302.9
847.2,1587,13.8,12.9,94,11.14,87,5.8,300.9,333.9,302.9
846.7,1592,13.8,13.0,95,11.16,87,5.8,300.9,334.0,303.0
846.2,1597,13.8,13.0,95,11.21,87,5.8,300.9,334.1,303.0
845.7,1601,13.7,13.1,96,11.24,87,5.8,300.9,334.2,303.0
845.2,1606,13.7,13.1,96,11.25,87,5.8,300.9,334.3,303.0
844.8,1611,13.6,13.1,96,11.27,87,5.8,300.9,334.3,303.0
844.3,1615,13.6,13.1,97,11.29,87,5.8,301.0,334.4,303.0
843.9,1619,13.6,13.1,97,11.30,87,5.8,301.0,334.4,303.0
843.5,1624,13.6,13.0,97,11.26,87,5.8,301.0,334.4,303.0
843.1,1628,13.5,13.0,97,11.24,87,5.8,301.0,334.3,303.0
842.6,1632,13.5,13.0,96,11.22,87,5.8,301.0,334.3,303.1
842.2,1636,13.5,12.9,96,11.21,87,5.9,301.1,334.3,303.1
841.8,1640,13.5,12.9,96,11.21,87,5.9,301.1,334.3,303.1
841.4,1644,13.5,12.9,97,11.22,87,5.9,301.1,334.4,303.1
841.1,1648,13.4,12.9,97,11.21,87,6.0,301.1,334.3,303.1
840.7,1652,13.4,12.9,96,11.16,87,6.0,301.1,334.2,303.1
840.3,1655,13.4,12.7,96,11.08,87,6.1,301.1,334.0,303.1
840.0,1659,13.4,12.6,95,10.99,87,6.1,301.1,333.7,303.1
839.6,1663,13.4,12.5,94,10.90,87,6.2,301.2,333.5,303.2
839.2,1666,13.4,12.4,94,10.84,87,6.2,301.2,333.4,303.2
838.9,1670,13.4,12.3,94,10.81,87,6.3,301.2,333.3,303.2
838.5,1674,13.4,12.3,93,10.78,88,6.3,301.3,333.3,303.2
838.1,1678,13.4,12.2,93,10.75,88,6.4,301.3,333.2,303.3
837.7,1682,13.3,12.2,93,10.74,88,6.4,301.3,333.2,303.3
837.3,1686,13.3,12.2,93,10.75,88,6.5,301.4,333.3,303.3
836.8,1690,13.3,12.3,94,10.78,88,6.6,301.4,333.4,303.3
836.4,1695,13.2,12.3,94,10.80,88,6.6,301.4,333.4,303.3
836.0,1699,13.2,12.3,94,10.80,88,6.7,301.4,333.4,303.3
835.5,1704,13.1,12.2,94,10.76,88,6.8,301.4,333.3,303.3
835.1,1708,13.1,12.1,94,10.71,89,6.8,301.4,333.2,303.3
834.7,1712,13.1,12.1,94,10.68,89,6.9,301.4,333.1,303.3
834.3,1716,13.1,12.1,94,10.67,89,6.9,301.4,333.1,303.3
833.9,1720,13.0,12.1,94,10.70,89,7.0,301.4,333.2,303.4
833.5,1724,13.0,12.1,95,10.74,89,7.1,301.4,333.3,303.4
833.1,1728,13.0,12.2,95,10.76,89,7.1,301.4,333.4,303.4
