PRES,HGHT,TEMP,DWPT,RELH,MIXR,DRCT,SPED,THTA,THTE,THTV
1013.3,31,19.1,17.8,92,12.73,270,3.4,291.1,327.2,293.4
1012.8,35,19.7,17.8,89,12.73,303,1.3,291.7,327.9,294.0
1012.1,41,20.4,18.0,86,12.93,319,1.2,292.6,329.4,294.8
1011.3,48,21.3,18.1,82,13.01,324,1.2,293.5,330.7,295.8
1010.7,53,21.8,17.8,78,12.79,324,1.3,294.0,330.8,296.3
1009.9,59,22.1,17.5,75,12.59,326,1.4,294.5,330.7,296.7
1009.4,64,22.4,17.4,73,12.44,327,1.5,294.7,330.6,296.9
1008.8,69,22.5,17.2,72,12.33,330,1.6,294.9,330.5,297.1
1008.2,74,22.6,17.1,71,12.28,333,1.7,295.1,330.5,297.2
1007.6,80,22.6,17.1,71,12.27,336,1.7,295.2,330.6,297.3
1007.0,85,22.6,17.1,71,12.29,338,1.8,295.2,330.7,297.4
1006.4,90,22.6,17.1,71,12.30,341,1.9,295.2,330.8,297.4
1005.8,95,22.6,17.1,71,12.31,343,2.0,295.3,330.9,297.5
1005.2,100,22.6,17.2,71,12.34,346,2.1,295.4,331.0,297.5
1004.7,105,22.6,17.2,71,12.37,348,2.2,295.4,331.1,297.6
1004.1,110,22.6,17.2,72,12.37,350,2.3,295.4,331.1,297.6
1003.5,115,22.5,17.2,72,12.40,352,2.3,295.4,331.2,297.6
1002.9,120,22.5,17.2,72,12.42,354,2.4,295.4,331.3,297.6
1002.4,125,22.5,17.2,72,12.42,356,2.5,295.4,331.3,297.6
1001.8,130,22.4,17.2,72,12.38,357,2.6,295.4,331.2,297.6
1001.2,135,22.4,17.1,72,12.35,359,2.7,295.5,331.2,297.7
1000.6,140,22.4,17.1,72,12.33,360,2.7,295.5,331.2,297.7
1000.1,145,22.4,17.1,72,12.32,1,2.8,295.5,331.1,297.7
1000.0,146,22.4,17.1,72,12.32,3,2.9,295.5,331.1,297.7
999.5,150,22.4,17.1,72,12.33,3,2.9,295.5,331.2,297.7
999.0,155,22.3,17.1,72,12.34,3,2.9,295.6,331.2,297.7
998.4,159,22.3,17.0,72,12.32,4,3.0,295.6,331.2,297.8
997.9,164,22.3,17.0,72,12.31,5,3.1,295.6,331.2,297.8
997.3,169,22.2,17.0,72,12.33,6,3.2,295.6,331.3,297.8
996.8,174,22.2,17.0,73,12.35,6,3.2,295.6,331.3,297.8
996.2,179,22.2,17.1,73,12.38,7,3.3,295.7,331.5,297.9
995.6,184,22.2,17.1,73,12.42,7,3.3,295.8,331.7,298.0
995.0,189,22.2,17.1,73,12.44,8,3.4,295.8,331.8,298.0
994.4,194,22.2,17.2,73,12.47,8,3.5,295.9,332.0,298.1
993.8,200,22.3,17.3,73,12.58,8,3.5,295.9,332.3,298.2
993.2,205,22.2,17.4,74,12.67,8,3.6,295.9,332.6,298.2
992.5,211,22.2,17.5,75,12.75,8,3.7,295.9,332.8,298.2
991.9,217,22.1,17.5,75,12.80,8,3.7,295.9,333.0,298.2
991.2,222,22.0,17.5,76,12.83,8,3.8,295.9,333.1,298.2
990.6,228,22.0,17.5,76,12.79,9,3.9,295.9,332.9,298.2
990.0,233,21.9,17.4,76,12.75,9,4.0,295.9,332.8,298.2
989.4,238,21.9,17.4,76,12.76,9,4.0,295.9,332.8,298.2
988.9,243,21.8,17.4,76,12.77,9,4.1,295.9,332.9,298.2
988.3,248,21.8,17.4,76,12.78,9,4.2,295.9,332.9,298.2
987.8,253,21.7,17.5,77,12.83,9,4.2,295.9,333.0,298.2
987.2,258,21.7,17.6,78,12.93,9,4.3,295.9,333.4,298.2
986.6,263,21.6,17.8,79,13.07,9,4.4,295.9,333.7,298.2
986.0,268,21.6,17.8,79,13.14,8,4.4,295.9,333.9,298.2
985.4,274,21.5,17.8,80,13.14,8,4.5,295.9,333.9,298.2
984.8,279,21.4,17.8,80,13.10,8,4.5,295.9,333.8,298.2
984.1,285,21.4,17.7,80,13.06,8,4.6,295.9,333.7,298.2
983.5,290,21.3,17.6,79,13.01,8,4.6,295.9,333.5,298.2
982.9,296,21.3,17.6,79,12.96,8,4.7,295.9,333.4,298.2
982.3,301,21.2,17.5,79,12.94,8,4.7,295.9,333.3,298.2
981.7,306,21.2,17.6,80,12.98,9,4.7,295.9,333.4,298.2
981.1,312,21.2,17.6,80,12.98,9,4.8,295.9,333.5,298.2
980.5,317,21.1,17.5,80,12.95,9,4.8,295.9,333.4,298.2
979.8,323,21.1,17.4,80,12.88,9,4.8,296.0,333.2,298.2
979.2,329,21.1,17.3,79,12.83,9,4.8,296.0,333.1,298.3
978.5,334,21.0,17.2,79,12.73,9,4.8,296.0,332.9,298.3
977.9,340,21.0,17.0,78,12.59,9,4.8,296.1,332.5,298.3
977.3,346,21.0,16.8,77,12.42,10,4.7,296.1,332.1,298.3
976.7,351,21.0,16.6,76,12.26,10,4.7,296.1,331.7,298.3
976.1,356,21.0,16.4,75,12.10,10,4.7,296.1,331.2,298.3
975.5,361,21.0,16.1,74,11.91,11,4.7,296.2,330.8,298.3
975.0,366,21.0,16.0,73,11.77,12,4.7,296.3,330.4,298.4
974.4,371,21.0,15.9,73,11.73,12,4.6,296.3,330.3,298.4
973.9,375,20.9,15.8,73,11.69,13,4.6,296.3,330.2,298.4
973.4,380,20.9,15.7,72,11.62,13,4.6,296.3,330.0,298.4
972.8,385,20.9,15.6,72,11.53,14,4.6,296.3,329.8,298.4
972.2,390,20.8,15.5,71,11.44,15,4.5,296.4,329.6,298.4
971.7,395,20.8,15.3,70,11.29,15,4.5,296.4,329.2,298.4
971.1,401,20.8,15.1,70,11.20,16,4.5,296.4,329.0,298.4
970.5,406,20.8,15.1,70,11.21,17,4.5,296.4,329.0,298.4
969.9,411,20.7,15.0,70,11.14,18,4.4,296.4,328.8,298.4
969.3,416,20.7,14.8,69,10.96,18,4.4,296.5,328.4,298.4
968.8,421,20.7,14.5,68,10.80,19,4.4,296.5,328.0,298.5
968.2,426,20.7,14.5,67,10.75,20,4.4,296.6,327.9,298.5
967.7,431,20.7,14.5,68,10.76,20,4.3,296.6,327.9,298.5
967.2,435,20.6,14.5,68,10.78,21,4.3,296.6,328.0,298.5
966.7,440,20.6,14.6,68,10.84,21,4.3,296.6,328.1,298.5
966.1,445,20.5,14.8,69,10.99,22,4.3,296.6,328.6,298.6
965.6,449,20.5,15.1,71,11.26,22,4.3,296.6,329.4,298.6
965.1,454,20.4,15.5,74,11.57,22,4.2,296.6,330.2,298.6
964.6,459,20.3,15.8,75,11.75,22,4.2,296.5,330.7,298.6
964.1,463,20.3,15.9,76,11.83,23,4.2,296.5,330.9,298.6
963.5,468,20.2,15.9,76,11.85,23,4.2,296.5,331.0,298.6
963.0,473,20.2,15.9,76,11.84,23,4.1,296.5,330.9,298.6
962.5,477,20.2,15.7,75,11.71,22,4.1,296.5,330.6,298.6
962.0,482,20.2,15.3,74,11.42,22,4.1,296.6,329.8,298.6
961.5,486,20.2,14.8,71,11.08,22,4.1,296.6,328.9,298.6
961.0,491,20.2,14.5,69,10.83,22,4.0,296.7,328.3,298.6
960.5,495,20.2,14.3,69,10.74,22,4.0,296.8,328.1,298.7
960.0,500,20.2,14.4,69,10.83,21,4.0,296.8,328.4,298.7
959.5,504,20.2,14.7,71,11.01,21,4.0,296.8,328.9,298.8
959.0,509,20.1,15.0,72,11.25,21,4.0,296.8,329.5,298.8
958.4,514,20.0,15.3,74,11.44,20,3.9,296.8,330.1,298.8
957.9,519,20.0,15.2,74,11.44,20,3.9,296.7,330.0,298.8
957.3,524,19.9,14.9,73,11.17,20,3.9,296.7,329.3,298.7
956.8,529,19.9,14.3,70,10.79,19,3.9,296.8,328.2,298.7
956.2,534,20.0,13.9,68,10.50,19,3.9,296.9,327.5,298.7
955.7,539,20.0,13.7,67,10.34,19,3.9,296.9,327.1,298.8
955.2,544,19.9,13.6,67,10.27,19,3.8,297.0,327.0,298.8
954.6,548,19.9,13.6,67,10.31,19,3.8,297.0,327.1,298.8
954.1,553,19.9,13.6,67,10.32,19,3.8,297.0,327.1,298.8
953.6,558,19.9,13.4,66,10.18,18,3.8,297.0,326.8,298.8
953.0,563,19.9,13.0,65,9.92,18,3.8,297.1,326.1,298.8
952.5,568,19.9,12.6,63,9.66,19,3.8,297.1,325.4,298.9
952.0,572,19.9,12.3,62,9.49,19,3.8,297.2,325.0,298.9
951.5,577,19.9,12.2,61,9.41,19,3.8,297.2,324.8,298.9
951.0,581,19.9,12.2,61,9.43,19,3.7,297.2,324.9,298.9
950.5,586,19.8,12.4,62,9.55,19,3.7,297.2,325.2,299.0
950.0,590,19.8,12.7,64,9.78,19,3.7,297.2,325.9,299.0
949.5,595,19.7,13.4,67,10.20,19,3.7,297.2,327.0,299.0
949.0,599,19.6,14.1,71,10.72,19,3.7,297.1,328.4,299.1
948.5,604,19.5,14.7,74,11.18,20,3.7,297.1,329.7,299.1
948.0,608,19.4,15.0,76,11.41,20,3.6,297.0,330.3,299.0
947.5,613,19.3,14.9,76,11.33,20,3.6,297.0,330.0,299.0
947.1,617,19.3,14.3,73,10.90,20,3.6,297.0,328.8,298.9
946.6,622,19.3,13.5,69,10.30,21,3.6,297.1,327.2,298.9
946.1,626,19.4,12.8,66,9.88,21,3.5,297.2,326.1,299.0
945.6,631,19.4,12.7,65,9.79,21,3.5,297.3,325.9,299.0
945.1,635,19.5,12.9,66,9.91,21,3.5,297.4,326.4,299.1
944.6,640,19.4,13.1,67,10.08,22,3.5,297.4,326.9,299.2
944.1,644,19.4,13.3,68,10.23,22,3.4,297.4,327.3,299.2
943.6,649,19.4,13.5,69,10.35,22,3.4,297.4,327.7,299.2
943.1,653,19.3,13.5,69,10.36,22,3.4,297.4,327.7,299.3
942.6,657,19.3,13.3,68,10.25,23,3.4,297.5,327.4,299.3
942.2,662,19.3,13.2,68,10.15,23,3.4,297.5,327.2,299.3
941.7,666,19.3,13.1,68,10.13,24,3.4,297.5,327.2,299.3
941.2,671,19.3,13.0,67,10.06,24,3.3,297.5,327.0,299.3
940.6,676,19.2,12.7,66,9.85,25,3.3,297.5,326.4,299.3
940.1,680,19.2,12.2,64,9.54,25,3.3,297.6,325.6,299.3
939.6,685,19.3,11.6,61,9.19,26,3.3,297.7,324.6,299.3
939.0,691,19.3,11.2,59,8.93,27,3.3,297.7,324.0,299.3
938.4,696,19.3,11.2,59,8.91,28,3.2,297.8,324.0,299.4
937.9,701,19.3,11.5,61,9.11,29,3.2,297.8,324.6,299.4
937.3,707,19.2,11.9,62,9.35,30,3.2,297.8,325.3,299.5
936.7,712,19.1,12.2,64,9.57,31,3.2,297.8,325.9,299.5
936.1,718,19.1,12.4,65,9.70,32,3.2,297.8,326.2,299.5
935.5,723,19.0,12.4,66,9.72,33,3.2,297.8,326.3,299.5
934.9,728,19.0,12.4,65,9.70,34,3.2,297.8,326.2,299.5
934.3,734,18.9,12.2,65,9.62,35,3.1,297.8,326.0,299.5
933.8,739,18.9,11.9,64,9.39,37,3.1,297.9,325.4,299.5
933.2,744,18.9,11.5,62,9.15,38,3.1,297.9,324.8,299.5
932.7,749,18.9,11.3,61,9.07,39,3.1,297.9,324.6,299.6
932.2,753,18.9,11.4,62,9.09,40,3.1,297.9,324.7,299.6
931.7,758,18.9,11.4,62,9.11,42,3.1,298.0,324.8,299.6
931.2,762,18.8,11.4,62,9.10,43,3.1,298.0,324.7,299.6
930.7,767,18.8,11.2,61,9.03,44,3.1,298.0,324.6,299.6
930.2,771,18.8,11.2,61,8.99,45,3.1,298.0,324.5,299.6
929.7,776,18.8,11.3,62,9.08,46,3.2,298.1,324.8,299.7
929.2,781,18.7,11.7,64,9.30,46,3.2,298.0,325.4,299.7
928.7,786,18.6,12.1,65,9.56,47,3.2,298.0,326.1,299.7
928.1,791,18.6,12.4,67,9.78,47,3.2,298.0,326.7,299.8
927.5,797,18.5,12.6,68,9.92,48,3.2,298.0,327.1,299.8
926.9,802,18.4,12.8,70,10.05,48,3.3,298.0,327.5,299.8
926.2,808,18.4,13.1,71,10.30,48,3.3,298.0,328.2,299.8
925.6,814,18.3,13.6,74,10.65,49,3.3,297.9,329.1,299.9
925.0,820,18.2,14.0,77,10.92,49,3.3,297.9,329.9,299.8
924.4,826,18.1,14.1,78,11.02,49,3.4,297.9,330.1,299.8
923.8,831,18.0,14.1,78,11.01,49,3.4,297.8,330.1,299.8
923.2,836,18.0,14.1,78,11.02,49,3.4,297.9,330.1,299.8
922.7,841,17.9,14.1,78,11.02,48,3.4,297.9,330.1,299.8
922.2,845,17.9,14.0,78,10.98,48,3.5,297.9,330.0,299.8
921.7,850,17.9,13.9,77,10.88,48,3.5,297.9,329.7,299.8
921.2,855,17.9,13.7,76,10.75,48,3.5,297.9,329.4,299.9
920.7,859,17.9,13.7,76,10.74,48,3.6,298.0,329.4,299.9
920.2,864,17.8,13.8,77,10.81,48,3.6,298.0,329.6,299.9
919.7,869,17.8,13.8,77,10.83,48,3.6,298.0,329.7,299.9
919.2,874,17.8,13.8,78,10.86,47,3.6,298.0,329.8,299.9
918.7,879,17.7,13.9,78,10.93,47,3.7,298.0,330.0,300.0
918.1,884,17.7,13.9,79,10.96,47,3.7,298.0,330.1,300.0
917.6,889,17.6,13.8,79,10.90,47,3.7,298.0,329.9,299.9
917.1,893,17.6,13.7,78,10.84,47,3.7,298.0,329.7,299.9
916.6,898,17.5,13.7,78,10.78,46,3.7,298.0,329.6,299.9
916.1,903,17.5,13.6,78,10.74,46,3.7,298.0,329.5,300.0
915.5,908,17.5,13.6,78,10.78,46,3.7,298.1,329.7,300.0
915.0,913,17.4,13.7,79,10.84,46,3.7,298.1,329.8,300.0
914.4,918,17.4,13.7,79,10.85,45,3.7,298.1,329.8,300.0
913.9,923,17.3,13.7,79,10.84,45,3.7,298.0,329.8,300.0
913.4,928,17.3,13.7,79,10.83,45,3.7,298.0,329.8,300.0
912.8,933,17.2,13.6,79,10.81,45,3.7,298.1,329.7,300.0
912.3,938,17.2,13.6,79,10.79,44,3.7,298.1,329.7,300.0
911.8,943,17.2,13.6,79,10.77,44,3.7,298.1,329.6,300.0
911.4,947,17.1,13.5,79,10.73,44,3.7,298.1,329.5,300.0
910.9,951,17.1,13.3,78,10.63,43,3.7,298.1,329.3,300.0
910.5,956,17.2,13.2,78,10.53,43,3.6,298.2,329.1,300.1
910.0,960,17.2,13.2,77,10.50,43,3.6,298.2,329.1,300.1
909.6,964,17.1,13.2,78,10.53,43,3.6,298.3,329.1,300.1
909.2,968,17.1,13.3,78,10.58,43,3.6,298.3,329.3,300.2
908.7,972,17.1,13.3,79,10.65,43,3.6,298.3,329.5,300.2
908.3,976,17.0,13.4,79,10.70,43,3.7,298.3,329.6,300.2
907.8,981,17.0,13.4,79,10.73,43,3.7,298.3,329.7,300.2
907.3,985,17.0,13.4,80,10.72,44,3.7,298.3,329.7,300.2
906.8,990,16.9,13.4,79,10.68,44,3.7,298.3,329.6,300.2
906.3,995,16.9,13.3,79,10.63,45,3.8,298.3,329.5,300.2
905.8,1000,16.9,13.2,79,10.58,45,3.8,298.3,329.4,300.2
905.3,1004,16.8,13.2,79,10.59,46,3.9,298.4,329.4,300.3
904.7,1009,16.8,13.3,80,10.67,47,4.0,298.4,329.7,300.3
904.2,1014,16.8,13.5,81,10.79,48,4.1,298.4,330.0,300.3
903.7,1020,16.8,13.6,81,10.87,49,4.2,298.4,330.3,300.4
903.1,1025,16.7,13.6,82,10.88,50,4.3,298.4,330.4,300.4
902.6,1030,16.7,13.5,82,10.87,51,4.4,298.5,330.3,300.4
902.0,1036,16.6,13.6,82,10.88,52,4.5,298.5,330.4,300.4
901.4,1041,16.6,13.6,82,10.89,53,4.6,298.5,330.4,300.4
900.8,1047,16.5,13.5,82,10.88,53,4.7,298.5,330.4,300.4
900.2,1053,16.5,13.5,83,10.89,54,4.8,298.5,330.4,300.4
899.5,1059,16.4,13.6,83,10.91,55,5.0,298.5,330.5,300.4
898.9,1064,16.4,13.6,84,10.95,56,5.1,298.5,330.6,300.4
898.4,1070,16.3,13.6,84,10.96,56,5.2,298.5,330.6,300.4
897.8,1075,16.3,13.6,84,10.94,57,5.3,298.5,330.6,300.4
897.3,1080,16.2,13.5,84,10.91,57,5.4,298.5,330.5,300.4
896.8,1085,16.2,13.5,84,10.90,58,5.5,298.5,330.5,300.4
896.3,1090,16.2,13.5,84,10.88,58,5.6,298.5,330.4,300.5
895.8,1094,16.2,13.4,83,10.82,58,5.6,298.6,330.3,300.5
895.3,1099,16.2,13.2,83,10.74,59,5.7,298.6,330.1,300.5
894.8,1104,16.2,13.1,82,10.67,59,5.7,298.6,330.0,300.6
894.3,1109,16.2,13.0,82,10.61,59,5.8,298.7,329.8,300.6
893.8,1113,16.1,13.0,81,10.56,59,5.8,298.7,329.7,300.6
893.3,1118,16.1,12.9,81,10.52,59,5.8,298.8,329.7,300.7
892.8,1123,16.1,12.9,81,10.50,59,5.8,298.8,329.7,300.7
892.3,1128,16.1,12.8,81,10.46,59,5.8,298.8,329.6,300.7
891.8,1133,16.1,12.8,81,10.45,59,5.7,298.8,329.6,300.7
891.3,1137,16.0,12.7,81,10.44,60,5.7,298.9,329.6,300.7
890.8,1142,16.0,12.7,81,10.41,60,5.6,298.9,329.5,300.7
890.2,1147,16.0,12.6,80,10.36,60,5.6,298.9,329.4,300.8
889.7,1153,16.0,12.6,80,10.33,60,5.5,298.9,329.3,300.8
889.1,1158,15.9,12.5,80,10.31,60,5.4,299.0,329.3,300.8
888.6,1163,15.9,12.5,80,10.31,60,5.4,299.0,329.3,300.8
888.1,1168,15.9,12.5,80,10.28,60,5.3,299.0,329.2,300.8
887.5,1173,15.8,12.4,80,10.23,60,5.2,299.0,329.1,300.8
887.0,1178,15.8,12.3,79,10.16,61,5.1,299.0,329.0,300.9
886.6,1182,15.8,12.2,79,10.11,61,5.0,299.1,328.9,300.9
886.1,1187,15.8,12.1,79,10.06,61,5.0,299.1,328.8,300.9
885.6,1191,15.8,12.0,78,10.02,61,4.9,299.1,328.7,300.9
885.2,1196,15.8,12.0,78,9.99,61,4.8,299.2,328.6,301.0
884.7,1200,15.8,11.9,78,9.97,62,4.8,299.2,328.6,301.0
884.3,1204,15.7,11.9,78,9.98,62,4.7,299.2,328.6,301.0
883.8,1209,15.7,12.0,79,10.00,62,4.6,299.2,328.7,301.0
883.4,1213,15.6,12.0,79,9.99,62,4.6,299.2,328.7,301.0
882.9,1217,15.6,11.9,79,9.98,62,4.5,299.2,328.6,301.0
882.5,1222,15.6,11.9,79,9.96,62,4.5,299.2,328.6,301.0
882.0,1227,15.5,11.9,79,9.94,62,4.4,299.2,328.6,301.0
881.5,1231,15.5,11.8,79,9.93,62,4.4,299.2,328.5,301.0
881.0,1236,15.5,11.7,78,9.85,62,4.4,299.2,328.3,301.0
880.4,1241,15.4,11.5,78,9.76,62,4.4,299.3,328.1,301.0
879.9,1246,15.4,11.5,77,9.72,62,4.3,299.3,328.0,301.0
879.4,1251,15.4,11.5,78,9.75,62,4.3,299.3,328.1,301.1
878.9,1256,15.3,11.6,78,9.78,61,4.3,299.3,328.2,301.1
878.4,1261,15.3,11.5,78,9.77,61,4.3,299.3,328.1,301.1
877.9,1266,15.3,11.4,78,9.70,61,4.3,299.3,328.0,301.1
877.5,1270,15.2,11.2,77,9.59,61,4.3,299.4,327.7,301.1
877.0,1275,15.2,11.1,76,9.48,61,4.4,299.4,327.4,301.1
876.5,1279,15.2,10.9,75,9.37,60,4.4,299.5,327.2,301.1
876.0,1284,15.2,10.8,75,9.30,60,4.4,299.5,327.0,301.2
875.6,1289,15.2,10.7,74,9.25,60,4.4,299.5,326.9,301.2
875.1,1293,15.2,10.6,74,9.20,60,4.5,299.6,326.8,301.3
874.6,1298,15.3,10.5,73,9.17,59,4.5,299.7,326.8,301.3
874.1,1303,15.3,10.5,73,9.14,59,4.5,299.7,326.8,301.4
873.6,1308,15.3,10.4,73,9.10,59,4.6,299.8,326.7,301.4
873.1,1313,15.2,10.4,73,9.09,59,4.6,299.8,326.7,301.4
872.6,1318,15.2,10.4,73,9.11,59,4.7,299.8,326.8,301.5
872.1,1323,15.2,10.4,73,9.13,59,4.7,299.8,326.9,301.5
871.6,1327,15.1,10.4,74,9.15,58,4.8,299.8,326.9,301.5
871.0,1332,15.1,10.5,74,9.18,58,4.8,299.8,327.0,301.5
870.5,1337,15.0,10.5,74,9.19,58,4.8,299.8,327.1,301.5
870.0,1342,15.0,10.5,74,9.20,58,4.9,299.9,327.1,301.5
869.5,1347,15.0,10.5,75,9.20,58,4.9,299.9,327.1,301.5
869.0,1352,14.9,10.5,75,9.20,58,5.0,299.9,327.1,301.5
868.5,1357,14.9,10.4,75,9.18,57,5.0,299.9,327.1,301.5
868.0,1362,14.9,10.4,75,9.17,57,5.0,299.9,327.1,301.5
867.5,1367,14.8,10.4,75,9.15,57,5.1,299.9,327.0,301.5
866.9,1372,14.8,10.3,75,9.13,57,5.1,299.9,327.0,301.5
866.4,1378,14.7,10.3,75,9.10,57,5.1,299.9,326.9,301.5
865.9,1383,14.7,10.2,75,9.07,57,5.1,299.9,326.8,301.6
865.4,1388,14.7,10.1,74,9.00,57,5.1,299.9,326.7,301.6
864.8,1393,14.7,9.9,73,8.89,57,5.2,300.0,326.4,301.6
864.3,1398,14.7,9.7,72,8.78,57,5.2,300.1,326.2,301.7
863.8,1404,14.7,9.6,71,8.72,57,5.2,300.1,326.0,301.7
863.2,1409,14.7,9.6,71,8.70,57,5.2,300.2,326.1,301.8
862.7,1414,14.7,9.5,71,8.67,57,5.2,300.2,326.0,301.8
862.2,1419,14.7,9.4,71,8.64,57,5.2,300.3,326.0,301.8
861.7,1424,14.6,9.4,71,8.61,57,5.2,300.3,325.9,301.8
861.2,1429,14.6,9.3,71,8.60,57,5.3,300.3,325.9,301.9
860.7,1434,14.6,9.3,71,8.59,57,5.3,300.3,325.9,301.9
860.2,1439,14.5,9.3,71,8.58,58,5.3,300.3,325.9,301.9
859.7,1444,14.5,9.3,71,8.59,58,5.3,300.3,325.9,301.9
859.2,1449,14.5,9.3,71,8.62,58,5.3,300.3,326.0,301.9
858.7,1454,14.4,9.4,72,8.66,58,5.3,300.3,326.1,301.9
858.2,1458,14.4,9.4,72,8.64,58,5.3,300.4,326.1,301.9
857.7,1463,14.4,9.2,71,8.54,58,5.3,300.4,325.8,301.9
857.2,1468,14.4,9.0,70,8.42,57,5.4,300.5,325.5,302.0
856.8,1472,14.4,8.8,69,8.30,57,5.4,300.5,325.2,302.0
856.3,1477,14.4,8.6,68,8.20,57,5.4,300.6,325.1,302.1
855.8,1482,14.4,8.4,67,8.11,57,5.4,300.7,324.9,302.1
855.3,1487,14.4,8.2,66,7.98,56,5.4,300.7,324.6,302.2
854.8,1492,14.4,7.7,64,7.75,56,5.4,300.8,323.9,302.2
854.3,1497,14.5,7.1,61,7.41,55,5.4,300.9,323.1,302.2
853.8,1502,14.5,6.6,59,7.15,54,5.5,300.9,322.4,302.2
853.3,1507,14.5,6.3,58,7.05,53,5.5,301.0,322.2,302.3
852.8,1512,14.5,6.2,57,7.00,52,5.5,301.1,322.1,302.3
852.2,1517,14.5,6.1,57,6.93,51,5.5,301.1,322.0,302.4
851.7,1522,14.5,6.0,57,6.92,50,5.6,301.2,322.0,302.4
851.3,1527,14.5,6.2,57,7.00,49,5.6,301.2,322.2,302.5
850.8,1531,14.5,6.3,58,7.06,48,5.6,301.2,322.4,302.5
850.4,1536,14.4,6.4,58,7.08,47,5.6,301.2,322.5,302.5
850.0,1539,14.4,6.3,58,7.05,47,5.6,301.2,322.4,302.5
849.9,1540,14.4,6.3,58,7.04,46,5.7,301.2,322.4,302.5
849.5,1545,14.4,6.1,57,6.95,45,5.7,301.2,322.2,302.5
849.0,1549,14.4,5.9,57,6.85,44,5.8,301.3,321.9,302.5
848.5,1554,14.4,5.7,56,6.78,44,5.8,301.4,321.9,302.6
848.1,1559,14.5,5.6,55,6.73,43,5.8,301.5,321.8,302.7
847.6,1564,14.5,5.4,54,6.66,42,5.9,301.6,321.7,302.8
847.0,1569,14.5,5.4,54,6.64,41,5.9,301.6,321.7,302.9
846.5,1574,14.5,5.6,55,6.74,41,5.9,301.7,322.0,302.9
846.0,1580,14.5,6.1,57,7.01,40,6.0,301.7,322.9,303.0
845.4,1585,14.5,6.6,59,7.27,39,6.0,301.7,323.6,303.1
844.9,1590,14.4,6.8,60,7.37,39,6.0,301.8,323.9,303.1
844.4,1595,14.4,6.9,61,7.39,39,6.0,301.8,324.0,303.1
843.9,1600,14.3,6.9,61,7.40,38,6.1,301.8,324.0,303.1
843.4,1605,14.3,7.0,61,7.46,38,6.1,301.8,324.2,303.1
842.9,1610,14.2,7.2,62,7.56,38,6.1,301.8,324.5,303.1
842.4,1615,14.2,7.4,64,7.68,38,6.1,301.8,324.8,303.2
841.9,1620,14.1,7.5,64,7.76,37,6.1,301.8,325.1,303.2
841.4,1625,14.1,7.7,65,7.86,37,6.0,301.8,325.4,303.2
841.0,1630,14.0,8.0,67,8.01,37,6.0,301.7,325.8,303.2
840.5,1635,14.0,8.2,68,8.13,37,6.0,301.7,326.1,303.2
840.0,1640,13.9,8.2,69,8.17,37,6.0,301.7,326.2,303.2
839.5,1644,13.9,8.2,69,8.16,37,5.9,301.7,326.2,303.2
839.1,1649,13.8,8.2,69,8.15,37,5.9,301.7,326.1,303.2
838.6,1653,13.8,8.2,69,8.17,37,5.9,301.7,326.2,303.2
838.2,1658,13.7,8.3,70,8.23,37,5.8,301.7,326.4,303.2
837.8,1662,13.7,8.4,70,8.29,37,5.8,301.7,326.6,303.2
837.3,1666,13.7,8.4,71,8.31,37,5.7,301.7,326.7,303.3
836.9,1671,13.7,8.4,70,8.29,37,5.7,301.8,326.6,303.3
836.4,1675,13.6,8.3,70,8.22,37,5.7,301.8,326.4,303.3
836.0,1680,13.6,8.1,70,8.16,37,5.6,301.8,326.3,303.3
835.5,1685,13.6,8.1,70,8.15,37,5.6,301.8,326.3,303.3
835.0,1689,13.5,8.1,70,8.14,37,5.5,301.8,326.2,303.3
834.6,1694,13.5,8.1,70,8.12,38,5.5,301.8,326.2,303.3
834.1,1699,13.5,8.0,70,8.10,38,5.5,301.8,326.1,303.3
833.7,1703,13.4,7.9,69,8.06,38,5.4,301.8,326.0,303.3
833.3,1707,13.4,7.8,69,8.01,38,5.4,301.9,325.9,303.3
832.9,1712,13.4,7.7,69,7.96,38,5.4,301.9,325.8,303.3
832.4,1716,13.3,7.7,68,7.92,38,5.4,301.9,325.7,303.3
832.0,1720,13.3,7.6,68,7.88,38,5.4,301.9,325.6,303.4
831.6,1724,13.3,7.4,67,7.79,38,5.4,302.0,325.4,303.4
831.3,1728,13.4,7.3,67,7.73,38,5.4,302.0,325.3,303.4
830.9,1732,13.4,7.2,66,7.68,37,5.4,302.1,325.2,303.5
830.5,1736,13.4,7.1,66,7.64,37,5.4,302.1,325.1,303.5
830.1,1740,13.3,7.0,65,7.58,36,5.4,302.1,325.0,303.5
829.6,1744,13.3,6.9,65,7.52,36,5.4,302.2,324.8,303.6
829.2,1748,13.3,6.7,64,7.47,35,5.5,302.2,324.7,303.6
828.8,1753,13.3,6.6,64,7.42,35,5.5,302.2,324.6,303.6
828.3,1757,13.3,6.5,64,7.36,34,5.6,302.2,324.4,303.6
827.9,1762,13.2,6.4,63,7.31,33,5.6,302.3,324.3,303.6
827.5,1766,13.2,6.3,63,7.24,32,5.7,302.3,324.1,303.6
827.0,1771,13.2,6.1,62,7.17,31,5.8,302.3,323.9,303.6
826.6,1775,13.2,5.9,61,7.07,30,5.9,302.3,323.7,303.6
826.1,1780,13.2,5.7,60,6.96,29,6.0,302.4,323.4,303.6
825.7,1784,13.2,5.4,59,6.81,28,6.1,302.4,323.1,303.7
825.3,1789,13.2,5.1,58,6.70,27,6.3,302.5,322.8,303.7
824.8,1793,13.2,4.9,57,6.62,26,6.4,302.5,322.6,303.7
824.4,1798,13.1,4.8,57,6.56,25,6.5,302.5,322.4,303.7
823.9,1803,13.1,4.7,56,6.49,25,6.7,302.5,322.2,303.7
823.4,1807,13.1,4.5,56,6.42,24,6.8,302.6,322.1,303.8
823.0,1812,13.1,4.3,55,6.32,23,6.9,302.6,321.8,303.8
822.5,1817,13.1,4.0,54,6.19,23,7.1,302.7,321.5,303.8
822.0,1822,13.1,3.6,53,6.05,22,7.2,302.7,321.1,303.8
821.4,1828,13.1,3.2,51,5.88,22,7.3,302.7,320.7,303.8
