PRES,HGHT,TEMP,DWPT,RELH,MIXR,DRCT,SPED,THTA,THTE,THTV
1016.8,31,25.4,20.7,75,15.26,79,5.3,297.1,341.5,299.8
1016.3,35,25.0,20.9,78,15.48,75,4.0,296.8,341.6,299.5
1015.8,39,24.7,20.7,79,15.32,72,3.7,296.5,340.8,299.2
1015.0,46,24.2,20.5,80,15.09,72,3.7,296.1,339.7,298.8
1014.5,50,24.1,20.5,80,15.11,72,4.0,296.0,339.7,298.7
1014.2,53,23.9,20.3,80,14.95,73,4.3,295.9,339.1,298.5
1013.5,59,23.7,19.9,79,14.56,73,4.6,295.7,337.7,298.3
1012.7,66,23.5,19.7,79,14.39,74,4.9,295.6,337.1,298.1
1012.0,72,23.4,19.6,79,14.37,74,5.1,295.5,337.0,298.1
1011.4,78,23.4,19.6,80,14.37,75,5.4,295.6,337.0,298.1
1010.7,84,23.3,19.6,80,14.37,75,5.6,295.6,337.0,298.1
1009.9,90,23.3,19.6,80,14.37,75,5.8,295.6,337.0,298.1
1009.2,96,23.2,19.6,80,14.36,76,6.1,295.5,337.0,298.1
1008.5,102,23.1,19.6,80,14.35,76,6.3,295.5,336.9,298.1
1007.8,108,23.0,19.5,81,14.33,77,6.5,295.5,336.9,298.1
1007.2,114,23.0,19.5,81,14.29,77,6.6,295.5,336.8,298.1
1006.5,120,22.9,19.4,81,14.26,77,6.8,295.5,336.7,298.1
1005.9,125,22.9,19.4,81,14.21,77,6.9,295.5,336.5,298.1
1005.4,129,22.8,19.4,81,14.20,77,7.1,295.5,336.5,298.1
1004.9,134,22.8,19.4,81,14.22,78,7.2,295.5,336.5,298.0
1004.4,138,22.8,19.4,81,14.22,78,7.3,295.5,336.6,298.1
1003.9,142,22.7,19.3,81,14.21,78,7.4,295.5,336.5,298.1
1003.4,146,22.7,19.3,81,14.21,78,7.5,295.6,336.6,298.1
1003.0,150,22.7,19.4,82,14.25,78,7.6,295.5,336.6,298.1
1002.5,155,22.6,19.4,82,14.30,78,7.7,295.5,336.8,298.1
1002.0,159,22.6,19.5,83,14.37,78,7.8,295.5,337.0,298.1
1001.5,164,22.5,19.5,83,14.41,78,7.9,295.5,337.1,298.1
1000.9,168,22.5,19.5,83,14.43,78,8.0,295.6,337.2,298.1
1000.4,173,22.4,19.5,84,14.42,77,8.0,295.5,337.1,298.1
1000.0,176,22.4,19.5,84,14.41,77,8.0,295.5,337.1,298.1
999.9,178,22.4,19.5,84,14.40,77,8.1,295.5,337.1,298.1
999.3,182,22.3,19.5,84,14.38,77,8.2,295.5,337.0,298.1
998.7,188,22.3,19.4,84,14.37,77,8.3,295.5,337.0,298.1
998.1,193,22.3,19.4,84,14.38,77,8.4,295.6,337.0,298.1
997.5,198,22.2,19.4,84,14.40,76,8.4,295.6,337.1,298.1
996.9,203,22.2,19.4,84,14.37,76,8.5,295.6,337.0,298.1
996.3,209,22.1,19.4,85,14.37,76,8.6,295.6,337.0,298.1
995.7,214,22.1,19.4,85,14.39,76,8.7,295.6,337.1,298.1
995.1,219,22.0,19.4,85,14.37,76,8.7,295.6,337.0,298.1
994.5,225,22.0,19.3,85,14.34,76,8.8,295.6,336.9,298.1
993.9,230,21.9,19.3,85,14.35,75,8.9,295.6,337.0,298.1
993.2,235,21.9,19.3,86,14.36,75,8.9,295.6,337.0,298.1
992.6,241,21.8,19.3,86,14.35,75,9.0,295.6,337.0,298.1
992.0,246,21.8,19.3,86,14.34,75,9.0,295.6,337.0,298.1
991.4,252,21.7,19.3,86,14.34,75,9.1,295.6,337.0,298.1
990.8,257,21.6,19.3,86,14.32,76,9.1,295.6,336.9,298.1
990.2,262,21.6,19.2,86,14.26,76,9.1,295.6,336.7,298.1
989.7,267,21.6,19.1,86,14.21,76,9.1,295.6,336.6,298.1
989.2,271,21.5,19.1,86,14.25,76,9.1,295.6,336.7,298.1
988.7,275,21.5,19.2,87,14.35,76,9.1,295.6,337.0,298.1
988.2,280,21.4,19.3,88,14.43,77,9.1,295.6,337.2,298.1
987.7,284,21.4,19.4,88,14.48,77,9.0,295.6,337.4,298.2
987.3,288,21.4,19.4,89,14.50,77,9.0,295.6,337.4,298.1
986.8,292,21.3,19.4,89,14.48,78,8.9,295.6,337.4,298.2
986.3,297,21.3,19.3,89,14.45,78,8.9,295.6,337.3,298.2
985.8,301,21.2,19.3,89,14.43,78,8.8,295.6,337.2,298.2
985.2,306,21.2,19.3,89,14.43,79,8.8,295.6,337.2,298.2
984.7,311,21.2,19.3,89,14.42,79,8.7,295.6,337.2,298.2
984.1,316,21.1,19.2,89,14.41,79,8.6,295.6,337.2,298.2
983.5,321,21.1,19.2,89,14.39,80,8.5,295.6,337.1,298.2
983.0,326,21.0,19.2,89,14.36,80,8.4,295.6,337.0,298.1
982.4,331,21.0,19.1,89,14.35,80,8.3,295.6,337.0,298.1
981.8,337,20.9,19.2,90,14.38,81,8.3,295.6,337.1,298.1
981.1,342,20.8,19.2,90,14.40,81,8.2,295.6,337.2,298.1
980.5,347,20.8,19.2,90,14.39,81,8.1,295.6,337.1,298.1
979.9,353,20.7,19.1,90,14.37,81,8.1,295.6,337.0,298.1
979.4,358,20.7,19.1,91,14.37,81,8.0,295.6,337.0,298.1
978.8,363,20.6,19.1,91,14.37,81,8.0,295.6,337.0,298.1
978.2,368,20.6,19.1,91,14.35,81,7.9,295.6,337.0,298.1
977.6,373,20.5,19.1,91,14.34,81,7.9,295.6,337.0,298.1
977.1,378,20.5,19.1,92,14.37,81,7.9,295.6,337.0,298.1
976.5,383,20.4,19.1,92,14.37,81,7.9,295.6,337.0,298.1
975.9,389,20.4,19.0,92,14.35,81,7.9,295.6,337.0,298.1
975.2,394,20.4,19.0,92,14.33,80,7.9,295.6,336.9,298.2
974.6,400,20.3,19.0,92,14.32,80,7.9,295.6,336.9,298.1
974.0,405,20.2,19.0,92,14.30,80,8.0,295.6,336.9,298.1
973.4,411,20.2,19.0,93,14.32,80,8.0,295.6,336.9,298.1
972.8,416,20.1,19.0,93,14.36,80,8.1,295.6,337.0,298.1
972.2,422,20.1,19.0,94,14.38,79,8.1,295.6,337.1,298.1
971.6,427,20.0,19.0,94,14.36,79,8.2,295.6,337.0,298.1
971.0,432,20.0,18.9,94,14.32,79,8.3,295.6,336.9,298.2
970.4,437,19.9,18.9,94,14.29,79,8.3,295.6,336.8,298.1
969.8,443,19.9,18.9,94,14.27,79,8.4,295.6,336.8,298.1
969.2,448,19.9,18.8,94,14.27,79,8.5,295.6,336.8,298.2
968.6,453,19.8,18.8,94,14.28,79,8.6,295.6,336.8,298.2
968.0,459,19.8,18.8,94,14.29,79,8.7,295.6,336.9,298.2
967.4,464,19.7,18.8,95,14.27,79,8.8,295.6,336.8,298.2
966.9,469,19.7,18.8,95,14.27,79,8.9,295.6,336.8,298.2
966.3,474,19.6,18.8,95,14.30,79,9.0,295.6,336.9,298.2
965.7,479,19.6,18.8,96,14.31,79,9.0,295.6,336.9,298.2
965.1,485,19.5,18.8,96,14.29,79,9.1,295.6,336.9,298.2
964.5,490,19.5,18.8,96,14.27,80,9.2,295.6,336.8,298.2
964.0,495,19.4,18.8,96,14.27,80,9.3,295.6,336.8,298.2
963.4,500,19.4,18.7,96,14.26,80,9.3,295.6,336.8,298.2
962.9,505,19.3,18.7,96,14.21,80,9.4,295.6,336.7,298.2
962.4,509,19.3,18.6,96,14.16,80,9.5,295.6,336.5,298.2
961.8,514,19.3,18.6,96,14.14,80,9.5,295.7,336.5,298.2
961.3,519,19.2,18.6,96,14.15,80,9.6,295.7,336.5,298.2
960.8,523,19.2,18.6,97,14.19,80,9.6,295.7,336.6,298.2
960.3,528,19.1,18.6,97,14.22,81,9.7,295.7,336.7,298.2
959.7,533,19.1,18.7,97,14.24,81,9.7,295.7,336.8,298.2
959.2,538,19.0,18.6,98,14.22,81,9.7,295.7,336.7,298.2
958.6,543,19.0,18.6,98,14.19,81,9.8,295.7,336.6,298.2
958.0,548,18.9,18.5,98,14.17,81,9.8,295.7,336.6,298.2
957.5,553,18.9,18.5,98,14.16,81,9.8,295.7,336.5,298.2
956.9,558,18.8,18.5,98,14.15,81,9.8,295.7,336.5,298.2
956.3,563,18.8,18.5,98,14.15,81,9.9,295.7,336.5,298.2
955.8,569,18.8,18.5,98,14.16,81,9.9,295.7,336.6,298.2
955.2,574,18.7,18.5,99,14.17,81,9.9,295.7,336.6,298.2
954.6,579,18.7,18.5,99,14.15,81,9.9,295.7,336.6,298.2
954.0,585,18.7,18.4,99,14.14,80,9.9,295.8,336.6,298.3
953.4,590,18.6,18.4,99,14.12,80,9.9,295.8,336.5,298.3
952.9,595,18.6,18.4,99,14.09,80,9.9,295.8,336.5,298.3
952.3,600,18.6,18.4,99,14.08,80,9.9,295.8,336.5,298.3
951.7,605,18.5,18.4,99,14.09,80,10.0,295.8,336.5,298.3
951.1,610,18.5,18.4,99,14.11,80,10.0,295.8,336.6,298.3
950.6,616,18.4,18.4,100,14.14,80,10.0,295.8,336.7,298.3
949.9,621,18.4,18.4,100,14.14,80,10.0,295.9,336.7,298.4
949.3,627,18.4,18.3,100,14.12,80,10.0,295.9,336.7,298.4
948.7,633,18.4,18.3,99,14.07,80,10.1,295.9,336.6,298.4
948.0,638,18.4,18.2,99,14.00,80,10.1,296.0,336.5,298.5
947.4,644,18.3,18.1,98,13.89,80,10.1,296.0,336.1,298.5
946.9,649,18.2,17.9,98,13.77,80,10.2,295.9,335.7,298.4
946.3,654,18.1,17.9,98,13.73,80,10.2,295.9,335.6,298.3
945.8,659,18.1,17.9,99,13.75,80,10.3,295.9,335.7,298.4
945.3,664,18.2,18.0,99,13.86,80,10.3,296.0,336.1,298.5
944.8,668,18.2,18.0,99,13.91,80,10.4,296.1,336.3,298.6
944.3,673,18.2,17.9,99,13.83,80,10.4,296.1,336.1,298.6
943.8,677,18.1,17.9,99,13.83,80,10.5,296.1,336.1,298.6
943.3,682,18.1,18.1,100,13.96,81,10.5,296.1,336.5,298.6
942.7,687,18.1,18.1,100,13.96,81,10.6,296.2,336.5,298.6
942.2,692,18.0,17.9,100,13.82,81,10.6,296.1,336.1,298.6
941.7,697,17.9,17.7,99,13.63,81,10.7,296.0,335.5,298.5
941.1,702,17.8,17.5,98,13.53,82,10.8,296.0,335.1,298.4
940.6,706,17.8,17.6,99,13.55,82,10.8,296.0,335.2,298.4
940.1,711,17.8,17.6,99,13.62,83,10.9,296.1,335.5,298.5
939.6,715,17.7,17.6,99,13.61,83,10.9,296.1,335.5,298.5
939.1,720,17.7,17.5,99,13.52,84,11.0,296.1,335.2,298.5
938.6,724,17.7,17.5,99,13.50,84,11.0,296.1,335.2,298.5
938.1,729,17.6,17.5,99,13.52,85,11.1,296.1,335.3,298.5
937.6,733,17.6,17.5,99,13.52,85,11.1,296.2,335.3,298.6
937.1,738,17.6,17.5,99,13.51,86,11.1,296.2,335.3,298.6
936.6,743,17.6,17.4,99,13.47,86,11.2,296.2,335.2,298.6
936.1,748,17.5,17.3,99,13.40,87,11.2,296.2,335.0,298.6
935.5,753,17.5,17.2,98,13.29,87,11.2,296.2,334.7,298.6
934.9,758,17.4,17.1,98,13.22,88,11.3,296.2,334.4,298.5
934.4,763,17.3,17.1,98,13.20,88,11.3,296.2,334.4,298.5
933.8,768,17.3,17.0,98,13.18,89,11.3,296.2,334.3,298.5
933.3,774,17.3,17.0,98,13.15,89,11.3,296.2,334.2,298.5
932.7,779,17.2,16.9,98,13.13,90,11.3,296.2,334.2,298.5
932.2,784,17.2,16.9,98,13.12,90,11.3,296.2,334.2,298.6
931.6,789,17.2,16.9,98,13.12,91,11.3,296.3,334.3,298.6
931.1,794,17.2,16.9,98,13.12,91,11.3,296.3,334.3,298.6
930.5,799,17.1,16.9,99,13.13,92,11.2,296.3,334.3,298.6
929.9,804,17.1,17.0,99,13.18,92,11.2,296.3,334.5,298.6
929.3,810,17.0,17.0,100,13.19,92,11.2,296.3,334.5,298.7
928.7,815,17.0,16.9,99,13.15,93,11.2,296.3,334.4,298.7
928.1,821,16.9,16.7,99,13.01,93,11.2,296.3,334.0,298.6
927.5,826,16.9,16.4,97,12.75,93,11.2,296.4,333.3,298.6
927.0,831,16.9,16.0,95,12.47,94,11.2,296.4,332.5,298.6
926.4,837,16.9,15.8,94,12.31,94,11.2,296.4,332.1,298.6
925.8,842,16.9,16.0,95,12.43,94,11.2,296.5,332.5,298.7
925.3,847,16.8,16.0,95,12.45,94,11.2,296.5,332.6,298.7
925.0,850,16.8,15.9,94,12.36,94,11.2,296.5,332.4,298.7
924.8,852,16.8,15.8,94,12.29,95,11.2,296.5,332.2,298.7
924.2,857,16.8,15.7,93,12.25,95,11.2,296.5,332.1,298.7
923.7,861,16.8,15.7,93,12.20,95,11.2,296.6,332.0,298.7
923.2,866,16.8,15.6,93,12.12,95,11.2,296.6,331.8,298.8
922.7,871,16.7,15.6,93,12.20,95,11.2,296.6,332.0,298.8
922.2,876,16.7,15.9,95,12.40,95,11.3,296.6,332.6,298.8
921.7,880,16.7,16.1,96,12.58,96,11.3,296.6,333.1,298.9
921.1,885,16.6,16.1,97,12.62,96,11.3,296.7,333.3,298.9
920.6,890,16.6,16.1,97,12.56,96,11.4,296.7,333.1,298.9
920.1,895,16.5,16.0,96,12.51,96,11.4,296.7,333.0,298.9
919.6,900,16.5,16.0,97,12.51,96,11.5,296.7,333.0,298.9
919.1,904,16.5,16.0,97,12.53,96,11.5,296.7,333.0,298.9
918.6,909,16.4,16.0,97,12.52,96,11.6,296.7,333.0,298.9
918.1,914,16.4,16.0,97,12.53,96,11.6,296.7,333.1,298.9
917.6,918,16.4,16.0,97,12.52,96,11.6,296.7,333.1,299.0
917.1,923,16.4,15.9,97,12.47,96,11.7,296.8,333.0,299.0
916.6,928,16.4,15.8,96,12.42,96,11.7,296.8,332.9,299.0
916.1,933,16.4,15.8,97,12.43,96,11.7,296.8,332.9,299.1
915.5,937,16.3,15.8,97,12.46,96,11.8,296.9,333.1,299.1
915.1,942,16.3,15.8,97,12.45,96,11.8,296.8,333.0,299.1
914.6,946,16.2,15.7,97,12.39,96,11.8,296.9,332.8,299.1
914.1,951,16.2,15.6,96,12.26,96,11.8,296.9,332.5,299.1
913.6,955,16.2,15.3,94,12.08,96,11.8,297.0,332.1,299.1
913.2,959,16.3,15.1,93,11.89,96,11.7,297.0,331.6,299.2
912.7,964,16.3,15.0,92,11.81,96,11.7,297.1,331.5,299.2
912.2,968,16.3,15.0,92,11.82,96,11.7,297.2,331.6,299.3
911.8,972,16.3,15.0,92,11.88,96,11.7,297.2,331.8,299.3
911.3,977,16.3,15.1,92,11.92,96,11.6,297.3,332.0,299.4
910.8,981,16.3,15.1,93,11.95,96,11.6,297.3,332.1,299.4
910.3,986,16.3,15.1,93,11.97,96,11.6,297.3,332.2,299.4
909.8,991,16.2,15.2,93,12.00,96,11.5,297.3,332.2,299.4
909.3,996,16.2,15.2,94,12.07,96,11.5,297.3,332.5,299.5
908.7,1001,16.2,15.3,95,12.15,97,11.5,297.3,332.7,299.5
908.1,1007,16.1,15.4,96,12.22,97,11.4,297.3,332.9,299.5
907.5,1013,16.1,15.4,95,12.19,97,11.4,297.4,332.9,299.5
906.8,1019,16.1,15.2,94,12.06,97,11.4,297.4,332.6,299.6
906.2,1024,16.1,15.0,93,11.90,97,11.4,297.5,332.2,299.6
905.7,1030,16.1,14.8,92,11.80,98,11.3,297.6,332.0,299.7
905.1,1035,16.1,14.8,92,11.77,98,11.3,297.6,331.9,299.7
904.6,1040,16.1,14.8,92,11.79,98,11.3,297.6,332.0,299.7
904.1,1045,16.1,14.8,92,11.82,98,11.3,297.7,332.2,299.8
903.6,1049,16.0,14.9,93,11.86,99,11.3,297.7,332.3,299.8
903.1,1054,16.0,14.9,93,11.90,99,11.3,297.7,332.4,299.8
902.6,1059,16.0,15.0,94,11.95,100,11.4,297.7,332.6,299.8
902.1,1064,15.9,15.0,94,11.98,100,11.4,297.7,332.7,299.8
901.5,1069,15.9,15.0,95,11.98,100,11.4,297.7,332.7,299.9
901.0,1074,15.8,15.0,95,11.97,101,11.4,297.7,332.7,299.9
900.5,1079,15.8,14.9,95,11.94,101,11.4,297.7,332.6,299.9
899.9,1084,15.8,14.8,94,11.88,101,11.4,297.7,332.4,299.9
899.4,1089,15.7,14.8,94,11.82,102,11.4,297.8,332.3,299.9
898.8,1095,15.7,14.7,94,11.77,102,11.4,297.8,332.2,299.9
898.3,1100,15.7,14.6,93,11.71,103,11.4,297.8,332.0,299.9
897.7,1105,15.7,14.6,93,11.69,103,11.3,297.8,332.0,299.9
897.2,1110,15.6,14.6,94,11.73,103,11.3,297.9,332.1,300.0
896.6,1115,15.6,14.8,95,11.86,104,11.2,297.9,332.5,300.0
896.1,1121,15.6,15.0,97,12.08,104,11.2,297.9,333.2,300.1
895.5,1126,15.6,15.3,98,12.27,105,11.1,298.0,333.8,300.2
895.0,1131,15.5,15.3,99,12.33,105,11.0,298.0,334.0,300.2
894.4,1136,15.5,15.3,98,12.29,105,11.0,298.0,333.9,300.2
893.9,1142,15.5,15.2,98,12.26,106,10.9,298.0,333.9,300.2
893.3,1147,15.5,15.2,98,12.27,106,10.8,298.1,333.9,300.3
892.8,1152,15.4,15.2,99,12.27,106,10.7,298.1,333.9,300.3
892.2,1157,15.4,15.2,98,12.25,107,10.6,298.1,333.9,300.3
891.7,1163,15.4,15.1,98,12.23,107,10.5,298.2,333.9,300.3
891.1,1168,15.4,15.1,98,12.23,107,10.3,298.2,333.9,300.4
890.6,1173,15.3,15.1,99,12.24,108,10.2,298.2,334.0,300.4
890.0,1178,15.3,15.1,99,12.24,108,10.1,298.2,334.0,300.4
889.5,1183,15.3,15.1,99,12.21,109,10.0,298.2,333.9,300.4
889.0,1188,15.2,15.0,98,12.15,109,9.9,298.2,333.8,300.4
888.6,1192,15.2,14.9,98,12.06,110,9.8,298.3,333.5,300.4
888.1,1197,15.2,14.8,97,11.99,110,9.8,298.3,333.4,300.4
887.7,1201,15.2,14.7,97,11.91,111,9.7,298.3,333.2,300.4
887.2,1205,15.2,14.5,96,11.79,111,9.6,298.4,332.9,300.5
886.8,1209,15.2,14.3,94,11.63,112,9.6,298.4,332.5,300.5
886.4,1213,15.3,14.1,93,11.50,112,9.5,298.5,332.2,300.6
886.0,1217,15.3,14.1,93,11.49,113,9.5,298.6,332.3,300.6
885.5,1221,15.3,14.2,93,11.54,113,9.5,298.6,332.4,300.7
885.1,1226,15.3,14.2,93,11.56,114,9.5,298.6,332.5,300.7
884.6,1230,15.2,14.2,94,11.58,114,9.5,298.6,332.6,300.7
884.2,1235,15.2,14.2,94,11.59,115,9.5,298.6,332.6,300.7
883.7,1239,15.2,14.1,94,11.55,115,9.5,298.7,332.5,300.7
883.2,1243,15.1,14.1,93,11.51,116,9.5,298.7,332.4,300.8
882.8,1248,15.1,14.0,93,11.49,116,9.5,298.7,332.4,300.8
882.3,1252,15.1,14.0,93,11.44,117,9.6,298.7,332.3,300.8
881.9,1256,15.1,13.8,92,11.35,117,9.6,298.7,332.1,300.8
881.4,1261,15.1,13.7,92,11.28,117,9.6,298.8,331.9,300.8
881.0,1265,15.1,13.6,91,11.19,117,9.7,298.8,331.7,300.8
880.5,1269,15.0,13.6,91,11.15,117,9.7,298.9,331.6,300.9
880.1,1273,15.0,13.6,91,11.18,118,9.8,298.9,331.7,300.9
879.7,1278,15.0,13.6,91,11.20,118,9.8,298.9,331.8,300.9
879.2,1282,15.0,13.6,92,11.22,118,9.8,298.9,331.9,300.9
878.8,1286,14.9,13.6,92,11.22,117,9.8,298.9,331.9,300.9
878.4,1290,14.9,13.6,92,11.22,117,9.9,298.9,331.9,301.0
877.9,1295,14.9,13.6,92,11.23,117,9.9,299.0,332.0,301.0
877.5,1299,14.9,13.6,92,11.26,117,9.9,299.0,332.0,301.0
877.0,1303,14.8,13.6,93,11.27,116,9.9,299.0,332.1,301.0
876.6,1308,14.8,13.6,93,11.23,116,9.9,299.0,332.0,301.0
876.1,1312,14.7,13.5,93,11.20,116,9.9,299.0,331.9,301.0
875.6,1317,14.7,13.5,93,11.18,115,9.9,299.0,331.8,301.0
875.2,1321,14.7,13.5,93,11.19,115,9.9,299.0,331.9,301.0
874.7,1325,14.6,13.5,93,11.22,114,9.9,299.0,332.0,301.0
874.3,1330,14.6,13.6,93,11.24,114,9.9,299.0,332.0,301.0
873.8,1335,14.6,13.6,94,11.28,113,9.9,299.0,332.2,301.1
873.3,1339,14.5,13.6,94,11.30,112,9.9,299.0,332.2,301.1
872.8,1344,14.5,13.6,94,11.29,112,9.9,299.0,332.2,301.1
872.3,1349,14.4,13.6,94,11.26,111,9.9,299.0,332.1,301.1
871.8,1354,14.4,13.5,94,11.23,110,9.9,299.0,332.0,301.0
871.3,1359,14.3,13.5,94,11.20,110,9.9,299.0,331.9,301.0
870.7,1364,14.3,13.4,94,11.17,109,9.9,299.1,331.9,301.1
870.2,1370,14.3,13.3,94,11.13,108,9.9,299.1,331.8,301.1
869.7,1375,14.3,13.2,93,11.04,108,9.9,299.1,331.6,301.1
869.1,1380,14.3,13.0,92,10.88,107,9.8,299.2,331.2,301.2
868.6,1386,14.3,12.7,90,10.69,106,9.8,299.3,330.7,301.2
868.0,1391,14.4,12.5,89,10.55,106,9.8,299.4,330.5,301.3
867.5,1396,14.4,12.4,88,10.49,105,9.8,299.5,330.4,301.4
867.0,1401,14.4,12.4,88,10.48,105,9.8,299.5,330.5,301.4
866.4,1406,14.4,12.4,88,10.52,104,9.8,299.6,330.6,301.5
865.9,1411,14.4,12.5,88,10.55,104,9.7,299.6,330.7,301.5
865.4,1416,14.3,12.5,88,10.55,103,9.7,299.6,330.7,301.5
864.9,1421,14.3,12.4,88,10.51,103,9.7,299.6,330.6,301.5
864.4,1426,14.3,12.3,88,10.45,102,9.7,299.6,330.5,301.5
863.8,1432,14.2,12.2,88,10.38,102,9.6,299.6,330.3,301.5
863.3,1437,14.2,12.0,87,10.29,101,9.6,299.7,330.1,301.5
862.7,1443,14.2,11.9,86,10.20,101,9.6,299.7,329.9,301.6
862.2,1448,14.2,11.8,85,10.14,101,9.5,299.8,329.8,301.6
861.7,1453,14.2,11.8,85,10.11,100,9.5,299.8,329.7,301.7
861.2,1458,14.2,11.8,85,10.12,100,9.4,299.9,329.8,301.7
860.7,1462,14.2,11.8,86,10.14,100,9.4,299.9,329.9,301.7
860.3,1467,14.1,11.8,86,10.17,100,9.3,299.9,329.9,301.7
859.8,1471,14.1,11.8,86,10.18,99,9.3,299.9,330.0,301.7
859.4,1475,14.1,11.8,86,10.17,99,9.2,299.9,330.0,301.8
859.0,1480,14.0,11.7,86,10.14,99,9.1,299.9,329.9,301.8
858.5,1484,14.0,11.7,86,10.12,99,9.1,300.0,329.9,301.8
858.1,1488,14.0,11.7,86,10.13,99,9.0,300.0,329.9,301.8
857.6,1493,14.0,11.7,86,10.13,99,8.9,300.0,329.9,301.8
857.1,1498,13.9,11.7,86,10.12,99,8.8,300.0,329.9,301.8
856.6,1503,13.9,11.7,86,10.11,99,8.7,300.0,329.9,301.8
856.0,1508,13.9,11.6,86,10.09,99,8.6,300.0,329.9,301.9
855.5,1514,13.8,11.6,87,10.09,99,8.5,300.1,329.9,301.9
854.9,1519,13.8,11.6,86,10.09,99,8.4,300.1,330.0,301.9
854.3,1525,13.8,11.6,86,10.07,99,8.3,300.2,330.0,302.0
853.7,1531,13.8,11.5,86,10.05,98,8.2,300.2,329.9,302.0
853.1,1537,13.7,11.5,86,10.01,98,8.1,300.2,329.8,302.0
852.5,1544,13.7,11.4,86,9.97,98,8.0,300.2,329.7,302.0
851.8,1550,13.6,11.3,86,9.95,98,7.9,300.2,329.7,302.0
851.2,1556,13.6,11.3,86,9.93,98,7.8,300.2,329.7,302.0
850.6,1562,13.5,11.3,86,9.92,98,7.7,300.2,329.6,302.0
850.0,1568,13.5,11.3,87,9.93,98,7.7,300.3,329.7,302.0
849.4,1574,13.4,11.2,87,9.92,97,7.5,300.3,329.6,302.0
848.9,1579,13.4,11.2,87,9.87,97,7.4,300.2,329.5,302.0
848.4,1584,13.3,11.1,86,9.83,97,7.3,300.3,329.4,302.0
847.9,1589,13.3,11.1,86,9.81,97,7.3,300.3,329.4,302.1
847.4,1594,13.3,11.1,86,9.81,96,7.2,300.3,329.4,302.1
847.0,1598,13.2,11.1,87,9.83,96,7.1,300.3,329.4,302.1
846.5,1603,13.2,11.1,87,9.84,96,7.1,300.3,329.5,302.1
846.0,1608,13.2,11.1,87,9.83,95,7.0,300.3,329.5,302.1
845.5,1613,13.1,11.0,87,9.80,95,7.0,300.3,329.4,302.1
845.0,1618,13.1,10.8,86,9.70,95,7.0,300.3,329.1,302.1
844.4,1624,13.1,10.6,85,9.58,95,6.9,300.4,328.8,302.1
843.8,1630,13.0,10.5,85,9.51,94,6.9,300.4,328.6,302.1
843.2,1636,13.0,10.5,85,9.48,94,6.9,300.4,328.6,302.1
842.6,1641,13.0,10.4,84,9.41,94,6.9,300.5,328.4,302.2
842.1,1647,13.0,10.2,83,9.34,94,6.9,300.5,328.3,302.2
841.5,1653,13.0,10.2,83,9.30,93,6.9,300.6,328.3,302.3
840.9,1658,13.1,10.2,82,9.31,93,6.9,300.7,328.4,302.4
840.4,1664,13.1,10.2,83,9.32,93,6.9,300.8,328.5,302.5
839.9,1669,13.1,10.2,83,9.35,93,6.8,300.8,328.6,302.5
839.4,1674,13.0,10.2,83,9.37,92,6.8,300.8,328.7,302.5
838.9,1679,13.0,10.3,84,9.40,92,6.8,300.8,328.8,302.5
838.3,1685,12.9,10.3,84,9.45,92,6.8,300.8,328.9,302.6
837.8,1690,12.9,10.4,85,9.48,92,6.8,300.8,329.0,302.6
837.3,1695,12.8,10.4,85,9.51,91,6.7,300.8,329.1,302.6
836.8,1700,12.8,10.5,86,9.54,91,6.7,300.9,329.2,302.6
836.3,1705,12.7,10.5,86,9.57,91,6.6,300.8,329.3,302.6
835.8,1710,12.7,10.5,87,9.59,91,6.6,300.8,329.3,302.6
835.3,1716,12.6,10.6,87,9.63,90,6.5,300.8,329.5,302.6
834.8,1721,12.6,10.6,88,9.66,90,6.5,300.9,329.6,302.6
834.3,1725,12.6,10.6,88,9.67,90,6.4,300.9,329.6,302.6
833.8,1730,12.5,10.6,88,9.68,90,6.4,300.9,329.6,302.6
833.3,1735,12.5,10.6,88,9.69,90,6.3,300.9,329.7,302.7
832.9,1739,12.4,10.6,89,9.69,89,6.2,300.9,329.7,302.7
832.4,1744,12.4,10.6,89,9.67,89,6.1,300.9,329.7,302.7
832.0,1749,12.4,10.6,89,9.66,89,6.1,300.9,329.6,302.7
831.5,1753,12.3,10.5,89,9.66,89,6.0,300.9,329.6,302.7
831.0,1758,12.3,10.5,89,9.61,89,6.0,300.9,329.5,302.7
830.6,1763,12.3,10.4,88,9.56,89,5.9,300.9,329.4,302.7
830.1,1768,12.3,10.3,88,9.51,89,5.9,301.0,329.3,302.7
829.6,1773,12.2,10.3,88,9.50,90,5.9,301.0,329.3,302.8
829.1,1777,12.2,10.3,88,9.52,90,5.9,301.1,329.4,302.8
828.7,1782,12.2,10.3,88,9.54,90,5.9,301.1,329.5,302.8
828.2,1786,12.2,10.3,89,9.57,91,5.9,301.1,329.6,302.9
827.8,1791,12.2,10.5,89,9.66,91,6.0,301.2,329.9,302.9
827.4,1795,12.2,10.6,90,9.77,92,6.0,301.2,330.3,303.0
826.9,1800,12.2,10.8,91,9.89,93,6.1,301.3,330.7,303.1
826.5,1805,12.2,10.9,92,9.97,94,6.2,301.3,330.9,303.1
826.0,1809,12.2,10.9,92,9.98,95,6.4,301.3,331.0,303.2
825.5,1814,12.2,10.9,92,9.96,96,6.5,301.4,331.0,303.2
825.0,1819,12.2,10.8,91,9.89,96,6.7,301.5,330.9,303.2
824.5,1824,12.2,10.6,90,9.77,97,6.9,301.5,330.6,303.3
