PRES,HGHT,TEMP,DWPT,RELH,MIXR,DRCT,SPED,THTA,THTE,THTV
1012.3,31,22.0,19.4,85,14.12,25,5.5,294.1,334.6,296.6
1011.6,36,22.2,19.4,84,14.16,29,4.0,294.4,335.0,296.9
1011.1,41,22.1,19.4,85,14.17,31,3.8,294.4,335.0,296.9
1010.4,47,22.1,19.4,85,14.19,32,4.0,294.4,335.1,296.9
1009.7,53,22.1,19.4,85,14.19,32,4.3,294.4,335.2,296.9
1008.9,60,22.1,19.4,85,14.18,32,4.6,294.5,335.2,297.0
1008.1,67,22.0,19.3,85,14.14,32,5.0,294.5,335.1,297.0
1007.4,73,22.0,19.3,85,14.12,32,5.2,294.5,335.1,297.0
1006.7,79,21.9,19.3,85,14.09,32,5.5,294.5,335.0,297.0
1006.0,85,21.9,19.2,85,14.03,32,5.8,294.5,334.8,297.0
1005.3,91,21.8,19.1,85,13.99,32,6.0,294.5,334.7,297.0
1004.6,97,21.7,19.1,85,13.95,32,6.2,294.5,334.6,297.0
1003.9,103,21.7,19.0,85,13.88,32,6.4,294.5,334.3,296.9
1003.3,108,21.6,18.9,85,13.80,32,6.6,294.5,334.1,296.9
1002.7,114,21.5,18.7,84,13.70,32,6.8,294.4,333.8,296.9
1002.1,119,21.4,18.7,84,13.64,33,6.9,294.4,333.5,296.8
1001.5,124,21.3,18.6,85,13.63,33,7.0,294.4,333.5,296.8
1000.9,129,21.3,18.6,85,13.62,33,7.1,294.4,333.5,296.8
1000.4,134,21.2,18.6,85,13.57,33,7.2,294.3,333.3,296.7
1000.0,137,21.2,18.5,85,13.53,33,7.2,294.3,333.1,296.7
999.8,138,21.1,18.5,85,13.51,33,7.3,294.3,333.1,296.7
999.3,143,21.1,18.5,85,13.51,34,7.3,294.3,333.1,296.7
998.7,148,21.1,18.5,85,13.56,34,7.4,294.3,333.2,296.7
998.2,153,21.0,18.6,86,13.60,34,7.4,294.3,333.4,296.7
997.6,158,21.0,18.6,86,13.61,34,7.4,294.3,333.4,296.7
997.0,163,20.9,18.6,87,13.68,35,7.4,294.3,333.6,296.7
996.4,168,20.9,18.7,87,13.75,35,7.3,294.4,333.8,296.8
995.8,174,20.8,18.7,87,13.73,35,7.3,294.3,333.8,296.8
995.2,179,20.8,18.6,87,13.70,35,7.3,294.3,333.7,296.8
994.5,184,20.7,18.6,88,13.70,36,7.3,294.3,333.7,296.8
993.9,190,20.7,18.6,88,13.73,36,7.2,294.3,333.8,296.8
993.4,195,20.6,18.6,88,13.72,36,7.2,294.3,333.7,296.8
992.8,200,20.6,18.6,88,13.71,36,7.2,294.3,333.7,296.7
992.3,204,20.5,18.6,89,13.72,36,7.1,294.3,333.7,296.8
991.7,209,20.5,18.6,89,13.72,36,7.1,294.3,333.7,296.7
991.2,214,20.4,18.6,89,13.72,36,7.1,294.3,333.7,296.7
990.7,218,20.4,18.6,89,13.74,36,7.1,294.3,333.8,296.8
990.2,223,20.4,18.6,90,13.78,36,7.1,294.4,333.9,296.8
989.6,227,20.3,18.7,90,13.82,36,7.0,294.4,334.0,296.8
989.1,232,20.3,18.7,91,13.85,36,7.0,294.4,334.1,296.8
988.5,238,20.2,18.7,91,13.85,36,7.0,294.4,334.1,296.8
987.9,243,20.2,18.7,91,13.85,36,7.0,294.4,334.1,296.8
987.2,248,20.1,18.7,91,13.85,36,7.0,294.4,334.1,296.8
986.6,254,20.1,18.6,91,13.82,36,7.1,294.3,334.0,296.8
986.0,259,20.0,18.6,92,13.80,36,7.1,294.3,333.9,296.8
985.5,264,20.0,18.6,92,13.78,36,7.1,294.3,333.9,296.8
984.9,269,19.9,18.5,92,13.77,35,7.1,294.3,333.9,296.8
984.4,273,19.9,18.5,92,13.74,35,7.1,294.3,333.8,296.8
983.9,278,19.8,18.4,92,13.70,35,7.1,294.3,333.6,296.7
983.4,282,19.8,18.4,92,13.70,35,7.1,294.3,333.6,296.7
982.8,287,19.7,18.4,92,13.71,35,7.1,294.3,333.7,296.8
982.3,292,19.7,18.5,93,13.75,35,7.2,294.3,333.8,296.8
981.7,297,19.6,18.5,93,13.79,35,7.2,294.3,333.9,296.8
981.1,302,19.6,18.5,94,13.81,35,7.2,294.3,333.9,296.8
980.5,308,19.5,18.5,94,13.81,35,7.2,294.3,333.9,296.8
979.8,314,19.5,18.5,94,13.81,35,7.2,294.3,334.0,296.8
979.1,320,19.4,18.5,94,13.80,35,7.2,294.3,333.9,296.8
978.4,326,19.3,18.4,95,13.77,35,7.2,294.3,333.8,296.7
977.8,331,19.3,18.4,95,13.72,35,7.2,294.3,333.7,296.7
977.1,337,19.2,18.3,95,13.69,36,7.2,294.3,333.6,296.7
976.5,343,19.2,18.3,95,13.68,36,7.2,294.3,333.6,296.7
975.9,348,19.1,18.3,95,13.69,36,7.2,294.3,333.6,296.7
975.3,353,19.1,18.3,95,13.71,36,7.2,294.3,333.7,296.7
974.7,359,19.0,18.3,96,13.71,36,7.2,294.3,333.7,296.7
974.1,364,19.0,18.3,96,13.68,36,7.2,294.3,333.6,296.7
973.5,369,18.9,18.3,96,13.68,36,7.2,294.3,333.6,296.7
973.0,374,18.9,18.2,96,13.68,36,7.2,294.3,333.6,296.7
972.4,379,18.8,18.2,96,13.67,36,7.2,294.3,333.5,296.7
971.8,384,18.8,18.2,97,13.67,36,7.1,294.3,333.5,296.7
971.2,389,18.7,18.2,97,13.69,36,7.1,294.3,333.6,296.7
970.7,395,18.7,18.2,97,13.69,36,7.1,294.3,333.6,296.7
970.1,400,18.6,18.2,97,13.69,36,7.0,294.3,333.6,296.7
969.5,405,18.6,18.2,98,13.69,36,7.0,294.3,333.6,296.7
969.0,410,18.5,18.2,98,13.68,36,7.0,294.3,333.6,296.7
968.4,414,18.5,18.2,98,13.67,36,7.0,294.3,333.5,296.7
967.9,419,18.4,18.1,98,13.66,36,6.9,294.3,333.5,296.7
967.4,424,18.4,18.1,98,13.66,36,6.9,294.3,333.5,296.7
966.9,428,18.3,18.1,99,13.67,36,6.8,294.3,333.5,296.7
966.3,433,18.3,18.1,99,13.67,36,6.8,294.3,333.6,296.7
965.8,437,18.3,18.1,99,13.66,36,6.8,294.3,333.5,296.7
965.3,442,18.2,18.1,99,13.68,36,6.7,294.3,333.6,296.7
964.8,447,18.2,18.1,100,13.70,36,6.7,294.3,333.7,296.8
964.3,451,18.2,18.1,100,13.70,36,6.6,294.4,333.7,296.8
963.8,456,18.1,18.1,100,13.66,36,6.6,294.4,333.6,296.8
963.2,461,18.1,18.1,100,13.65,36,6.5,294.4,333.6,296.8
962.7,466,18.1,18.1,100,13.66,37,6.5,294.4,333.6,296.8
962.1,471,18.1,18.0,100,13.64,37,6.4,294.5,333.6,296.9
961.5,476,18.0,18.0,100,13.62,37,6.4,294.5,333.6,296.9
960.9,481,18.0,17.9,100,13.57,37,6.3,294.5,333.4,296.9
960.4,486,18.0,17.9,99,13.53,37,6.2,294.5,333.3,296.9
959.8,491,17.9,17.8,99,13.51,38,6.2,294.5,333.3,296.9
959.3,496,17.9,17.8,99,13.51,38,6.1,294.5,333.3,296.9
958.7,501,17.9,17.8,99,13.52,38,6.0,294.6,333.4,297.0
958.2,505,17.9,17.8,99,13.51,38,5.9,294.6,333.4,297.0
957.7,510,17.9,17.8,100,13.52,38,5.8,294.6,333.5,297.0
957.2,514,17.9,17.8,100,13.53,38,5.7,294.7,333.5,297.1
956.7,519,17.8,17.8,100,13.52,38,5.6,294.7,333.5,297.1
956.2,523,17.8,17.8,100,13.51,38,5.5,294.7,333.5,297.1
955.7,528,17.8,17.8,100,13.50,37,5.4,294.7,333.5,297.1
955.2,533,17.8,17.7,100,13.46,37,5.3,294.7,333.4,297.1
954.6,538,17.7,17.7,100,13.44,37,5.1,294.7,333.4,297.1
954.0,543,17.7,17.7,100,13.44,36,5.0,294.7,333.4,297.1
953.4,548,17.7,17.7,100,13.45,36,4.9,294.8,333.5,297.2
952.8,554,17.7,17.7,100,13.46,35,4.8,294.9,333.6,297.2
952.2,560,17.7,17.6,100,13.46,34,4.7,294.9,333.6,297.3
951.5,566,17.6,17.6,100,13.42,34,4.6,294.9,333.6,297.3
950.9,572,17.6,17.5,99,13.36,33,4.5,295.0,333.4,297.3
950.2,578,17.6,17.5,99,13.33,32,4.5,295.0,333.4,297.4
949.5,584,17.6,17.5,100,13.36,32,4.4,295.0,333.5,297.4
948.9,590,17.5,17.5,100,13.39,31,4.3,295.1,333.6,297.4
948.2,596,17.5,17.5,100,13.39,31,4.3,295.1,333.7,297.5
947.5,602,17.5,17.5,100,13.36,30,4.2,295.1,333.6,297.5
946.9,608,17.4,17.4,100,13.30,30,4.2,295.1,333.4,297.5
946.2,614,17.4,17.3,100,13.27,30,4.1,295.1,333.4,297.5
945.6,620,17.4,17.3,100,13.28,30,4.1,295.2,333.5,297.5
944.9,625,17.4,17.3,100,13.30,31,4.1,295.2,333.6,297.6
944.3,631,17.3,17.3,100,13.29,31,4.1,295.3,333.6,297.6
943.6,637,17.3,17.3,100,13.29,32,4.1,295.3,333.6,297.7
943.0,643,17.3,17.3,100,13.27,33,4.1,295.3,333.6,297.7
942.3,649,17.2,17.2,100,13.25,34,4.1,295.4,333.6,297.7
941.7,655,17.2,17.2,100,13.20,35,4.1,295.4,333.5,297.7
941.0,661,17.1,17.0,99,13.07,37,4.1,295.4,333.1,297.7
940.3,667,16.9,16.7,98,12.79,38,4.1,295.2,332.1,297.5
939.6,673,16.7,16.3,97,12.49,39,4.1,295.0,331.0,297.2
938.9,680,16.6,16.2,98,12.43,41,4.2,295.0,330.8,297.2
938.2,686,16.5,16.3,99,12.52,42,4.2,295.0,331.0,297.2
937.5,693,16.5,16.4,100,12.65,44,4.2,295.0,331.5,297.3
936.8,699,16.6,16.6,100,12.75,45,4.3,295.2,331.9,297.4
936.2,705,16.6,16.6,100,12.80,46,4.3,295.3,332.2,297.5
935.5,711,16.6,16.6,100,12.83,47,4.4,295.4,332.4,297.6
934.9,716,16.6,16.6,100,12.79,48,4.4,295.4,332.3,297.7
934.3,722,16.5,16.5,99,12.70,49,4.5,295.4,332.0,297.6
933.8,727,16.5,16.4,99,12.67,49,4.5,295.4,331.9,297.6
933.3,732,16.5,16.4,100,12.69,49,4.5,295.4,332.0,297.6
932.8,736,16.5,16.4,100,12.71,49,4.6,295.4,332.1,297.7
932.2,741,16.5,16.4,100,12.71,49,4.6,295.5,332.2,297.7
931.7,746,16.5,16.5,100,12.77,49,4.6,295.6,332.4,297.8
931.2,750,16.6,16.6,100,12.86,48,4.7,295.7,332.9,298.0
930.6,756,16.7,16.7,100,12.97,47,4.7,295.9,333.4,298.2
930.1,761,16.7,16.7,100,12.99,46,4.7,295.9,333.5,298.3
929.5,766,16.7,16.7,100,12.99,45,4.8,296.0,333.5,298.3
928.9,772,16.7,16.7,100,12.98,44,4.8,296.0,333.6,298.3
928.2,778,16.7,16.7,100,12.96,42,4.9,296.1,333.6,298.4
927.6,783,16.6,16.6,100,12.92,41,4.9,296.1,333.5,298.4
927.0,789,16.6,16.5,99,12.83,40,5.0,296.1,333.2,298.3
926.4,794,16.4,16.3,99,12.67,38,5.1,296.0,332.6,298.2
925.9,800,16.2,16.1,99,12.51,37,5.1,295.8,331.9,298.0
925.3,805,16.1,16.0,100,12.46,35,5.2,295.7,331.7,297.9
925.0,808,16.0,16.0,100,12.47,35,5.2,295.7,331.7,297.9
924.8,809,16.0,16.0,100,12.48,34,5.3,295.7,331.8,297.9
924.3,814,16.0,16.0,100,12.49,33,5.4,295.7,331.8,298.0
923.8,818,16.0,16.0,100,12.46,32,5.5,295.8,331.8,298.0
923.4,822,15.9,15.9,100,12.39,31,5.6,295.7,331.6,297.9
922.9,827,15.9,15.9,100,12.40,31,5.7,295.8,331.7,298.0
922.5,831,16.0,16.0,100,12.46,30,5.8,295.9,331.9,298.1
922.0,835,16.0,16.0,100,12.46,30,6.0,295.9,331.9,298.1
921.5,839,15.9,15.9,100,12.46,29,6.1,295.9,332.0,298.1
921.1,844,16.0,16.0,100,12.47,29,6.2,296.0,332.1,298.2
920.6,848,16.0,16.0,100,12.53,29,6.3,296.1,332.3,298.3
920.1,853,16.0,16.0,100,12.53,29,6.4,296.1,332.4,298.4
919.6,857,16.0,15.9,99,12.43,29,6.5,296.2,332.2,298.4
919.1,862,16.0,15.6,98,12.20,29,6.6,296.2,331.5,298.3
918.7,866,15.9,15.2,95,11.88,29,6.7,296.1,330.5,298.2
918.2,871,15.8,14.7,93,11.56,30,6.8,296.1,329.6,298.1
917.6,876,15.8,14.6,93,11.48,30,6.8,296.1,329.4,298.1
917.1,881,15.7,14.7,94,11.57,30,6.9,296.1,329.7,298.2
916.6,885,15.7,14.8,95,11.66,31,7.0,296.1,329.9,298.2
916.1,890,15.6,14.9,95,11.67,31,7.1,296.1,330.0,298.2
915.6,895,15.5,14.8,95,11.65,31,7.2,296.0,329.8,298.1
915.1,900,15.5,14.7,95,11.59,32,7.3,296.0,329.6,298.1
914.6,904,15.5,14.7,95,11.54,32,7.4,296.1,329.6,298.2
914.1,909,15.6,14.5,94,11.46,32,7.4,296.2,329.5,298.2
913.6,913,15.5,14.5,93,11.42,32,7.5,296.2,329.4,298.3
913.1,918,15.5,14.6,94,11.49,33,7.6,296.3,329.6,298.3
912.6,922,15.4,14.7,95,11.57,33,7.7,296.2,329.8,298.3
912.2,927,15.3,14.7,96,11.60,33,7.7,296.2,329.8,298.2
911.7,931,15.3,14.7,96,11.64,33,7.8,296.2,329.9,298.3
911.2,935,15.2,14.7,97,11.64,34,7.9,296.1,329.9,298.2
910.8,939,15.1,14.8,98,11.67,34,7.9,296.1,329.9,298.2
910.3,944,15.1,14.7,98,11.64,34,8.0,296.1,329.8,298.2
909.9,948,15.1,14.6,97,11.55,34,8.0,296.1,329.6,298.1
909.5,952,15.1,14.5,96,11.47,34,8.1,296.2,329.4,298.2
909.1,955,15.2,14.4,95,11.40,34,8.1,296.3,329.3,298.3
908.7,959,15.3,14.3,94,11.37,35,8.1,296.4,329.4,298.4
908.2,963,15.3,14.4,94,11.41,35,8.2,296.5,329.6,298.5
907.8,967,15.2,14.5,96,11.53,35,8.2,296.4,329.9,298.5
907.3,972,15.1,14.7,97,11.67,35,8.2,296.4,330.3,298.5
906.9,976,15.0,14.8,98,11.74,35,8.2,296.3,330.4,298.4
906.4,981,14.9,14.7,99,11.70,35,8.2,296.3,330.2,298.4
905.9,985,14.9,14.6,98,11.60,35,8.1,296.3,329.9,298.4
905.4,990,14.9,14.4,97,11.47,35,8.1,296.3,329.6,298.4
904.9,994,14.9,14.3,96,11.38,35,8.1,296.4,329.4,298.4
904.5,998,14.8,14.2,96,11.35,34,8.0,296.4,329.3,298.4
904.1,1002,14.8,14.2,96,11.37,34,8.0,296.4,329.4,298.4
903.6,1006,14.8,14.3,97,11.44,34,8.0,296.4,329.6,298.4
903.2,1010,14.7,14.5,98,11.57,34,7.9,296.4,330.0,298.4
902.9,1014,14.7,14.6,99,11.62,33,7.9,296.4,330.1,298.4
902.5,1017,14.7,14.5,99,11.57,33,7.8,296.4,330.0,298.4
902.1,1021,14.7,14.4,98,11.49,32,7.8,296.4,329.8,298.4
901.7,1025,14.6,14.3,98,11.40,32,7.7,296.4,329.5,298.4
901.2,1029,14.6,14.2,97,11.38,31,7.7,296.4,329.5,298.5
900.8,1033,14.6,14.3,98,11.46,31,7.6,296.4,329.7,298.5
900.3,1037,14.6,14.5,99,11.58,30,7.6,296.5,330.1,298.5
899.9,1042,14.6,14.5,100,11.62,30,7.5,296.5,330.2,298.6
899.4,1046,14.5,14.4,100,11.58,29,7.5,296.5,330.1,298.6
899.0,1050,14.5,14.4,99,11.57,28,7.4,296.5,330.1,298.6
898.5,1055,14.6,14.5,99,11.60,28,7.4,296.6,330.3,298.7
898.1,1059,14.6,14.4,99,11.59,27,7.3,296.7,330.4,298.8
897.6,1063,14.5,14.4,99,11.55,27,7.3,296.7,330.3,298.8
897.2,1067,14.5,14.3,99,11.53,26,7.3,296.7,330.2,298.8
896.8,1071,14.5,14.3,99,11.51,26,7.2,296.7,330.2,298.7
896.3,1075,14.4,14.3,99,11.50,26,7.2,296.7,330.1,298.7
895.9,1079,14.4,14.3,99,11.48,25,7.1,296.7,330.1,298.7
895.4,1084,14.4,14.3,99,11.49,25,7.0,296.8,330.2,298.8
895.0,1088,14.4,14.3,99,11.51,25,7.0,296.8,330.3,298.9
894.5,1093,14.4,14.3,99,11.51,25,6.9,296.8,330.3,298.9
894.0,1097,14.4,14.3,99,11.50,24,6.8,296.9,330.3,298.9
893.4,1103,14.3,14.2,99,11.50,24,6.7,296.9,330.4,299.0
892.9,1108,14.3,14.3,100,11.52,25,6.7,296.9,330.4,299.0
892.3,1113,14.3,14.3,100,11.53,25,6.6,296.9,330.5,299.0
891.7,1119,14.3,14.2,100,11.53,25,6.5,297.0,330.5,299.0
891.1,1125,14.2,14.2,100,11.49,25,6.4,297.0,330.4,299.0
890.5,1131,14.2,14.1,99,11.42,26,6.3,297.0,330.2,299.0
889.9,1136,14.1,14.0,99,11.38,26,6.2,297.0,330.1,299.1
889.3,1142,14.1,14.0,99,11.38,26,6.1,297.1,330.2,299.1
888.7,1147,14.1,14.0,99,11.38,27,6.0,297.1,330.2,299.1
888.2,1152,14.1,14.0,99,11.39,28,5.9,297.1,330.3,299.2
887.6,1158,14.1,14.0,99,11.41,28,5.8,297.2,330.4,299.2
887.1,1163,14.1,14.0,99,11.39,29,5.7,297.2,330.4,299.3
886.5,1168,14.0,13.9,99,11.37,30,5.7,297.2,330.4,299.3
886.0,1174,14.0,13.9,100,11.35,31,5.6,297.2,330.3,299.3
885.4,1179,13.9,13.9,100,11.31,32,5.6,297.2,330.1,299.2
884.7,1185,13.8,13.8,100,11.27,33,5.5,297.2,330.0,299.2
884.1,1192,13.8,13.8,100,11.29,34,5.5,297.2,330.1,299.2
883.4,1198,13.8,13.8,100,11.31,35,5.5,297.3,330.3,299.3
882.8,1204,13.8,13.8,100,11.27,36,5.5,297.3,330.2,299.3
882.1,1211,13.7,13.6,100,11.19,37,5.5,297.3,329.9,299.3
881.4,1217,13.7,13.6,100,11.18,39,5.5,297.4,330.0,299.4
880.8,1223,13.7,13.6,99,11.20,40,5.6,297.4,330.1,299.4
880.2,1229,13.7,13.6,99,11.20,41,5.6,297.5,330.2,299.5
879.6,1235,13.7,13.6,99,11.19,42,5.7,297.6,330.2,299.6
879.0,1241,13.7,13.6,99,11.20,43,5.8,297.6,330.3,299.6
878.4,1246,13.7,13.6,100,11.24,44,5.8,297.7,330.5,299.7
877.9,1251,13.6,13.6,100,11.24,45,5.9,297.7,330.5,299.7
877.3,1257,13.7,13.6,100,11.26,46,6.0,297.7,330.6,299.7
876.8,1262,13.7,13.7,100,11.30,47,6.1,297.8,330.8,299.8
876.2,1267,13.7,13.7,100,11.29,48,6.2,297.8,330.8,299.9
875.6,1273,13.6,13.6,100,11.28,49,6.3,297.9,330.8,299.9
875.1,1278,13.6,13.6,100,11.25,49,6.4,297.9,330.7,299.9
874.5,1284,13.5,13.5,100,11.23,50,6.5,297.9,330.7,299.9
873.9,1290,13.5,13.5,100,11.20,51,6.5,297.9,330.6,299.9
873.3,1296,13.5,13.5,100,11.17,51,6.6,297.9,330.6,299.9
872.6,1302,13.4,13.4,100,11.15,52,6.7,297.9,330.5,299.9
872.0,1308,13.4,13.4,100,11.14,53,6.8,298.0,330.5,300.0
871.3,1314,13.4,13.4,100,11.14,53,6.8,298.0,330.6,300.0
870.7,1321,13.3,13.3,100,11.12,54,6.9,298.1,330.6,300.0
870.0,1327,13.3,13.3,100,11.07,54,7.0,298.1,330.5,300.1
869.4,1334,13.2,13.2,99,11.01,54,7.0,298.1,330.3,300.0
868.7,1340,13.2,13.1,99,10.95,55,7.1,298.1,330.1,300.0
868.1,1346,13.1,13.0,99,10.91,55,7.2,298.1,330.0,300.0
867.6,1351,13.1,13.0,99,10.91,55,7.2,298.1,330.1,300.1
867.0,1356,13.1,13.0,99,10.93,56,7.3,298.2,330.2,300.1
866.5,1361,13.1,13.1,100,10.98,56,7.3,298.2,330.4,300.2
866.0,1366,13.2,13.2,100,11.06,56,7.4,298.3,330.7,300.3
865.6,1370,13.2,13.2,100,11.09,57,7.4,298.4,330.9,300.4
865.1,1375,13.2,13.2,100,11.06,57,7.5,298.4,330.8,300.4
864.7,1379,13.1,13.1,100,11.04,57,7.6,298.4,330.8,300.4
864.3,1383,13.1,13.1,100,11.04,57,7.6,298.4,330.8,300.4
863.8,1387,13.1,13.1,100,11.05,58,7.7,298.5,330.9,300.5
863.4,1391,13.1,13.1,100,11.03,58,7.7,298.5,330.8,300.5
863.0,1395,13.0,13.0,100,11.00,58,7.8,298.5,330.7,300.5
862.6,1399,13.0,13.0,100,11.01,59,7.8,298.5,330.8,300.5
862.2,1403,13.1,13.1,100,11.03,59,7.9,298.6,331.0,300.6
861.8,1407,13.0,13.0,100,11.00,59,7.9,298.6,330.8,300.6
861.5,1411,12.9,12.9,100,10.94,60,7.9,298.5,330.6,300.5
861.1,1414,12.9,12.9,100,10.91,60,8.0,298.5,330.5,300.5
860.8,1417,12.9,12.9,100,10.90,60,8.0,298.5,330.5,300.5
860.5,1420,12.9,12.9,100,10.92,61,8.0,298.6,330.6,300.5
860.1,1424,13.0,13.0,100,10.98,61,8.0,298.7,330.9,300.7
859.8,1427,13.0,13.0,100,11.03,62,8.0,298.8,331.1,300.8
859.5,1430,13.0,13.0,100,11.04,62,8.0,298.8,331.3,300.8
859.2,1433,13.1,13.0,100,11.03,63,8.0,298.9,331.3,300.9
858.9,1436,13.1,13.0,100,11.03,63,8.0,298.9,331.3,300.9
858.6,1439,13.1,13.0,99,11.06,64,8.0,299.0,331.5,301.0
858.2,1442,13.1,13.0,99,11.05,65,8.0,299.1,331.5,301.0
857.9,1446,13.1,13.0,100,11.06,65,7.9,299.0,331.5,301.0
857.6,1449,13.1,13.1,100,11.08,66,7.9,299.1,331.6,301.0
857.2,1452,13.0,13.0,100,11.07,66,7.8,299.1,331.6,301.1
856.9,1456,13.0,13.0,100,11.04,67,7.8,299.0,331.5,301.0
856.5,1459,13.0,13.0,100,11.03,68,7.8,299.1,331.5,301.0
856.1,1463,13.0,13.0,100,11.05,68,7.7,299.1,331.6,301.1
855.7,1467,13.0,13.0,100,11.06,69,7.7,299.2,331.7,301.2
855.3,1471,13.0,13.0,100,11.08,69,7.7,299.2,331.8,301.2
854.8,1476,13.1,13.0,100,11.11,70,7.6,299.3,332.0,301.3
854.3,1481,13.0,13.0,100,11.11,71,7.6,299.4,332.1,301.4
853.8,1486,13.0,13.0,100,11.10,71,7.6,299.4,332.0,301.4
853.3,1491,13.0,13.0,100,11.09,72,7.6,299.4,332.0,301.4
852.7,1496,12.9,12.9,100,11.07,72,7.6,299.4,332.0,301.4
852.2,1502,12.9,12.9,100,11.04,73,7.7,299.4,331.9,301.4
851.7,1507,12.9,12.9,100,11.04,73,7.7,299.5,332.0,301.5
851.1,1513,12.9,12.9,100,11.07,74,7.7,299.6,332.2,301.6
850.5,1518,12.9,12.9,100,11.07,74,7.8,299.6,332.2,301.6
850.0,1524,12.9,12.9,100,11.04,74,7.8,299.6,332.1,301.6
849.4,1529,12.8,12.8,100,11.02,75,7.9,299.6,332.1,301.6
848.9,1535,12.8,12.8,100,11.00,76,7.9,299.6,332.0,301.6
848.3,1540,12.8,12.8,100,10.99,76,8.0,299.7,332.0,301.6
847.8,1545,12.7,12.7,100,10.97,77,8.1,299.7,332.0,301.7
847.3,1550,12.6,12.6,100,10.91,78,8.2,299.6,331.8,301.6
846.8,1555,12.5,12.5,100,10.82,78,8.2,299.5,331.4,301.5
846.4,1560,12.4,12.4,100,10.76,79,8.3,299.5,331.2,301.4
845.8,1565,12.4,12.4,100,10.78,80,8.4,299.6,331.3,301.5
845.3,1570,12.5,12.5,100,10.82,80,8.5,299.7,331.6,301.6
844.8,1575,12.5,12.5,100,10.85,81,8.5,299.8,331.7,301.7
844.3,1580,12.5,12.5,100,10.84,82,8.6,299.8,331.8,301.7
843.8,1585,12.5,12.5,100,10.83,82,8.7,299.8,331.7,301.8
843.3,1590,12.4,12.4,100,10.80,83,8.7,299.8,331.6,301.7
842.8,1595,12.4,12.4,100,10.77,84,8.8,299.8,331.6,301.7
842.3,1600,12.4,12.4,100,10.77,84,8.8,299.8,331.6,301.8
841.8,1605,12.4,12.4,100,10.78,85,8.9,299.9,331.7,301.8
841.4,1609,12.3,12.3,100,10.75,86,8.9,299.9,331.6,301.8
840.9,1614,12.2,12.2,100,10.71,86,9.0,299.9,331.5,301.8
840.4,1619,12.2,12.2,100,10.69,87,9.0,299.9,331.4,301.8
840.0,1623,12.2,12.2,100,10.68,87,9.0,299.9,331.4,301.8
839.5,1628,12.2,12.2,100,10.67,88,9.0,299.9,331.4,301.9
839.0,1634,12.1,12.1,100,10.67,88,9.1,300.0,331.5,301.9
838.4,1639,12.1,12.1,100,10.67,89,9.1,300.0,331.5,301.9
837.9,1644,12.1,12.1,100,10.67,89,9.1,300.1,331.6,302.0
837.4,1650,12.1,12.1,100,10.66,90,9.1,300.1,331.6,302.0
836.8,1655,12.1,12.1,100,10.66,90,9.1,300.1,331.6,302.1
836.3,1661,12.1,12.1,100,10.65,90,9.1,300.2,331.6,302.1
835.7,1666,12.0,12.0,100,10.64,91,9.1,300.2,331.6,302.1
835.2,1671,12.0,12.0,100,10.63,91,9.1,300.2,331.6,302.1
834.7,1676,12.0,12.0,100,10.61,91,9.2,300.2,331.6,302.2
834.2,1681,12.0,12.0,100,10.60,91,9.2,300.3,331.6,302.2
833.7,1686,11.9,11.9,100,10.58,91,9.2,300.3,331.6,302.2
833.2,1691,11.9,11.9,100,10.56,91,9.2,300.3,331.5,302.2
832.7,1696,11.9,11.9,100,10.54,92,9.3,300.3,331.5,302.2
832.3,1701,11.8,11.8,100,10.52,92,9.3,300.3,331.4,302.2
831.8,1706,11.8,11.8,100,10.50,92,9.4,300.3,331.4,302.2
831.3,1711,11.8,11.8,100,10.49,92,9.4,300.3,331.4,302.2
830.8,1716,11.7,11.7,100,10.47,92,9.5,300.4,331.3,302.2
830.3,1721,11.7,11.7,100,10.45,93,9.5,300.4,331.3,302.3
829.8,1726,11.7,11.7,100,10.44,93,9.6,300.4,331.3,302.3
829.2,1731,11.6,11.6,100,10.42,93,9.7,300.4,331.2,302.3
828.7,1737,11.6,11.6,100,10.40,94,9.8,300.4,331.2,302.3
828.1,1743,11.6,11.6,100,10.39,94,9.8,300.5,331.2,302.3
827.5,1749,11.5,11.5,100,10.37,95,9.9,300.5,331.2,302.4
826.9,1755,11.5,11.5,100,10.35,95,10.0,300.5,331.1,302.4
826.3,1761,11.4,11.4,100,10.34,95,10.1,300.5,331.1,302.4
825.7,1768,11.4,11.4,100,10.31,96,10.2,300.5,331.1,302.4
825.1,1774,11.4,11.4,100,10.29,96,10.2,300.6,331.1,302.4
824.5,1779,11.4,11.4,100,10.30,97,10.3,300.6,331.1,302.5
824.0,1785,11.3,11.3,100,10.28,97,10.4,300.6,331.1,302.5
823.4,1790,11.3,11.3,100,10.25,98,10.5,300.7,331.0,302.5
822.9,1795,11.2,11.2,100,10.24,98,10.6,300.7,331.0,302.5
822.5,1800,11.2,11.2,100,10.23,99,10.6,300.7,331.0,302.5
822.0,1805,11.2,11.2,100,10.20,99,10.7,300.7,331.0,302.6
821.5,1810,11.2,11.1,99,10.14,100,10.7,300.8,330.9,302.7
821.1,1814,11.3,11.0,98,10.07,100,10.8,300.9,330.8,302.7
820.6,1819,11.3,10.9,97,10.02,101,10.8,301.0,330.7,302.8
820.2,1823,11.3,10.8,97,9.99,101,10.9,301.0,330.7,302.8
819.7,1828,11.3,10.8,97,10.00,101,10.9,301.0,330.7,302.8
