PRES,HGHT,TEMP,DWPT,RELH,MIXR,DRCT,SPED,THTA,THTE,THTV
1012.9,31,21.0,19.3,90,14.05,276,2.2,293.1,333.2,295.5
1012.3,36,21.8,19.7,88,14.38,329,1.3,293.9,335.1,296.5
1011.6,42,22.7,20.2,86,14.90,344,1.4,294.8,337.7,297.5
1010.9,48,23.6,20.6,83,15.27,349,1.5,295.9,339.9,298.6
1010.2,54,24.2,20.6,80,15.33,350,1.6,296.5,340.9,299.2
1009.4,61,24.5,20.6,79,15.35,351,1.7,296.9,341.4,299.6
1008.9,65,24.7,20.7,78,15.40,352,1.8,297.1,341.8,299.8
1008.3,71,24.8,20.7,78,15.45,353,1.8,297.2,342.1,300.0
1007.6,76,24.8,20.8,78,15.54,355,1.9,297.3,342.5,300.1
1007.0,82,24.9,20.9,79,15.63,356,2.0,297.4,342.9,300.2
1006.3,88,24.9,20.9,79,15.66,358,2.0,297.5,343.0,300.3
1005.7,93,24.8,20.9,79,15.67,360,2.1,297.5,343.1,300.3
1005.0,99,24.8,20.9,79,15.71,1,2.1,297.5,343.2,300.3
1004.4,105,24.7,21.0,80,15.75,3,2.2,297.5,343.3,300.3
1003.7,110,24.7,21.0,80,15.75,5,2.2,297.5,343.3,300.3
1003.1,116,24.6,20.9,80,15.74,7,2.2,297.5,343.3,300.3
1002.5,122,24.6,20.9,80,15.75,9,2.3,297.5,343.4,300.3
1001.8,127,24.6,20.9,80,15.76,11,2.3,297.5,343.4,300.4
1001.2,133,24.5,20.9,80,15.74,13,2.3,297.5,343.3,300.3
1000.6,138,24.5,20.9,81,15.75,15,2.3,297.5,343.3,300.4
1000.0,143,24.4,20.9,81,15.74,15,2.3,297.6,343.3,300.4
999.9,144,24.4,20.9,81,15.75,17,2.3,297.6,343.4,300.4
999.3,149,24.4,20.9,81,15.75,19,2.4,297.6,343.4,300.4
998.7,155,24.3,20.9,81,15.77,21,2.4,297.6,343.4,300.4
998.0,160,24.3,20.9,81,15.76,23,2.4,297.6,343.4,300.4
997.4,166,24.2,20.8,82,15.73,25,2.4,297.6,343.3,300.4
996.8,171,24.1,20.8,82,15.74,27,2.4,297.6,343.3,300.4
996.2,177,24.1,20.9,82,15.79,29,2.4,297.6,343.5,300.4
995.5,182,24.1,20.9,82,15.81,31,2.4,297.6,343.6,300.4
994.9,188,24.0,20.9,83,15.80,32,2.4,297.6,343.6,300.4
994.3,194,24.0,20.8,83,15.79,34,2.4,297.6,343.5,300.4
993.6,199,23.9,20.8,83,15.80,36,2.4,297.6,343.6,300.4
993.0,205,23.9,20.9,83,15.86,37,2.4,297.6,343.7,300.4
992.4,210,23.8,20.9,84,15.91,38,2.4,297.6,343.9,300.4
991.8,216,23.8,20.9,84,15.92,40,2.4,297.6,343.9,300.4
991.2,221,23.7,20.9,84,15.93,41,2.4,297.6,344.0,300.5
990.5,227,23.7,20.9,85,15.94,42,2.4,297.6,344.0,300.5
989.9,232,23.6,20.9,85,15.95,43,2.4,297.6,344.0,300.5
989.3,237,23.6,20.9,85,15.95,44,2.4,297.6,344.0,300.5
988.7,243,23.5,20.9,85,15.93,45,2.4,297.6,344.0,300.5
988.1,249,23.5,20.9,85,15.93,46,2.4,297.6,344.0,300.5
987.4,254,23.4,20.9,86,15.91,46,2.4,297.6,343.9,300.5
986.8,260,23.3,20.8,86,15.87,47,2.5,297.6,343.8,300.4
986.2,265,23.3,20.8,86,15.85,48,2.5,297.6,343.7,300.4
985.6,271,23.2,20.8,86,15.89,48,2.5,297.6,343.8,300.5
984.9,276,23.2,20.8,87,15.93,49,2.5,297.6,344.0,300.5
984.3,282,23.1,20.8,87,15.94,49,2.6,297.6,344.0,300.5
983.8,287,23.1,20.8,87,15.94,49,2.6,297.6,344.0,300.5
983.2,292,23.0,20.8,87,15.95,49,2.6,297.6,344.0,300.5
982.6,297,23.0,20.8,87,15.93,50,2.7,297.6,344.0,300.5
982.0,302,23.0,20.8,88,15.92,50,2.7,297.6,344.0,300.5
981.4,308,22.9,20.8,88,15.94,50,2.8,297.7,344.0,300.5
980.8,313,22.9,20.8,88,15.96,50,2.8,297.7,344.1,300.5
980.1,319,22.8,20.8,88,15.95,50,2.9,297.7,344.1,300.5
979.5,325,22.8,20.7,88,15.90,50,2.9,297.7,343.9,300.5
978.8,331,22.7,20.6,88,15.84,50,3.0,297.7,343.8,300.5
978.1,337,22.6,20.6,88,15.80,50,3.1,297.7,343.6,300.5
977.5,343,22.6,20.6,88,15.81,50,3.1,297.7,343.7,300.5
976.8,349,22.5,20.6,89,15.85,50,3.2,297.7,343.8,300.5
976.2,354,22.5,20.6,89,15.83,50,3.2,297.7,343.7,300.5
975.5,360,22.5,20.5,89,15.80,50,3.3,297.7,343.7,300.5
974.9,366,22.4,20.5,89,15.80,50,3.4,297.7,343.7,300.5
974.2,372,22.3,20.5,90,15.82,50,3.4,297.7,343.7,300.5
973.5,378,22.3,20.5,90,15.80,50,3.5,297.7,343.7,300.5
972.9,384,22.2,20.5,90,15.77,51,3.5,297.7,343.6,300.5
972.2,390,22.2,20.5,90,15.76,51,3.6,297.7,343.6,300.5
971.6,396,22.1,20.5,90,15.77,51,3.6,297.7,343.6,300.5
970.9,402,22.1,20.4,90,15.77,51,3.7,297.7,343.6,300.5
970.3,407,22.0,20.5,91,15.80,51,3.7,297.7,343.7,300.5
969.7,413,22.0,20.5,91,15.83,51,3.8,297.7,343.8,300.5
969.0,419,21.9,20.5,92,15.85,51,3.8,297.7,343.8,300.5
968.4,424,21.8,20.5,92,15.83,51,3.8,297.7,343.8,300.5
967.8,430,21.8,20.4,92,15.81,51,3.9,297.7,343.7,300.5
967.2,435,21.7,20.4,92,15.81,51,3.9,297.7,343.7,300.5
966.5,441,21.7,20.4,92,15.81,51,3.9,297.7,343.7,300.5
965.9,447,21.6,20.4,93,15.83,51,3.9,297.7,343.8,300.5
965.3,452,21.6,20.4,93,15.87,51,3.9,297.7,343.9,300.6
964.6,458,21.5,20.5,94,15.89,51,3.9,297.7,344.0,300.6
964.0,464,21.5,20.4,94,15.86,51,3.9,297.7,343.9,300.6
963.3,470,21.4,20.4,94,15.81,51,3.9,297.7,343.7,300.6
962.7,476,21.4,20.3,94,15.77,51,3.9,297.7,343.6,300.5
962.0,482,21.3,20.3,94,15.75,51,3.9,297.7,343.6,300.5
961.4,488,21.3,20.2,94,15.72,51,3.9,297.7,343.5,300.5
960.7,494,21.2,20.2,94,15.68,51,4.0,297.7,343.4,300.5
960.1,499,21.2,20.2,94,15.67,51,4.0,297.8,343.4,300.5
959.5,505,21.1,20.2,94,15.68,51,4.0,297.8,343.4,300.6
958.9,510,21.1,20.2,94,15.69,50,4.0,297.8,343.4,300.6
958.3,516,21.0,20.1,95,15.67,50,4.0,297.8,343.4,300.6
957.7,521,21.0,20.1,95,15.63,50,4.0,297.8,343.3,300.6
957.0,527,20.9,20.1,95,15.62,50,4.0,297.8,343.2,300.6
956.4,533,20.9,20.0,95,15.61,50,4.0,297.8,343.2,300.6
955.8,538,20.8,20.0,95,15.62,50,4.0,297.8,343.3,300.6
955.2,544,20.8,20.1,96,15.65,50,4.1,297.8,343.3,300.6
954.5,550,20.7,20.0,96,15.65,50,4.1,297.8,343.4,300.6
953.9,555,20.7,20.0,96,15.63,50,4.1,297.8,343.3,300.6
953.3,561,20.6,20.0,96,15.62,50,4.2,297.8,343.3,300.6
952.7,566,20.6,20.0,96,15.59,50,4.2,297.8,343.2,300.6
952.1,572,20.5,19.9,96,15.53,50,4.2,297.8,343.0,300.6
951.6,577,20.5,19.9,96,15.51,50,4.3,297.8,343.0,300.6
951.0,582,20.4,19.8,96,15.51,49,4.3,297.8,343.0,300.6
950.4,587,20.4,19.8,97,15.50,49,4.4,297.8,343.0,300.6
949.8,593,20.3,19.8,97,15.50,49,4.4,297.8,343.0,300.6
949.2,598,20.3,19.8,97,15.50,49,4.5,297.9,343.0,300.6
948.6,604,20.3,19.8,97,15.52,49,4.5,297.9,343.0,300.6
948.0,609,20.2,19.8,98,15.50,48,4.6,297.8,343.0,300.6
947.4,615,20.1,19.6,97,15.36,48,4.6,297.8,342.6,300.6
946.8,621,20.1,19.4,96,15.17,47,4.7,297.9,342.0,300.6
946.1,627,20.1,19.3,95,15.04,47,4.7,297.9,341.7,300.6
945.5,632,20.1,19.2,95,15.01,47,4.8,298.0,341.7,300.6
944.8,638,20.0,19.3,95,15.06,46,4.8,298.0,341.8,300.7
944.2,644,20.0,19.3,96,15.09,45,4.9,298.0,341.9,300.7
943.6,650,19.9,19.3,96,15.06,45,4.9,298.0,341.8,300.7
942.9,656,19.9,19.2,96,15.02,44,5.0,298.0,341.8,300.7
942.3,661,19.8,19.2,96,14.98,44,5.0,298.0,341.7,300.7
941.7,667,19.8,19.1,96,14.96,43,5.0,298.0,341.6,300.7
941.1,672,19.8,19.1,96,14.97,42,5.1,298.0,341.7,300.7
940.6,678,19.7,19.1,96,14.97,42,5.1,298.0,341.7,300.7
940.0,683,19.7,19.1,97,14.98,41,5.2,298.0,341.7,300.7
939.4,688,19.6,19.1,97,14.99,40,5.2,298.0,341.7,300.7
938.8,694,19.6,19.1,97,15.02,39,5.3,298.0,341.8,300.7
938.2,699,19.5,19.2,98,15.07,39,5.3,298.0,342.0,300.7
937.6,705,19.5,19.2,98,15.09,38,5.3,298.0,342.0,300.7
936.9,711,19.4,19.2,99,15.09,37,5.4,298.1,342.0,300.8
936.3,717,19.4,19.1,99,15.07,37,5.4,298.1,342.0,300.7
935.6,723,19.3,19.1,98,15.01,36,5.5,298.1,341.8,300.8
935.0,729,19.3,19.0,98,14.91,36,5.5,298.1,341.6,300.8
934.4,735,19.3,18.8,97,14.76,35,5.5,298.1,341.2,300.8
933.7,740,19.3,18.6,96,14.64,35,5.6,298.2,340.9,300.8
933.1,746,19.3,18.5,95,14.56,34,5.6,298.3,340.8,300.9
932.5,752,19.3,18.5,95,14.53,34,5.7,298.3,340.7,300.9
931.9,758,19.2,18.5,95,14.52,33,5.7,298.3,340.7,300.9
931.3,763,19.2,18.4,95,14.47,33,5.8,298.3,340.6,300.9
930.7,769,19.2,18.3,95,14.39,33,5.8,298.4,340.4,301.0
930.1,774,19.2,18.2,94,14.31,33,5.8,298.4,340.2,301.0
929.6,779,19.1,18.2,94,14.26,33,5.9,298.5,340.1,301.0
929.0,784,19.1,18.1,94,14.24,32,5.9,298.5,340.1,301.0
928.5,789,19.1,18.1,94,14.26,32,5.9,298.5,340.1,301.0
928.0,794,19.1,18.2,95,14.27,32,6.0,298.5,340.2,301.1
927.4,799,19.0,18.2,95,14.30,33,6.0,298.5,340.3,301.1
926.9,804,19.0,18.2,95,14.29,33,6.0,298.5,340.3,301.1
926.4,809,18.9,18.1,95,14.24,33,6.1,298.5,340.1,301.1
925.8,814,18.9,18.0,95,14.20,33,6.1,298.5,340.0,301.1
925.3,819,18.9,18.0,95,14.15,33,6.1,298.5,339.9,301.1
925.0,822,18.8,17.9,94,14.12,34,6.1,298.6,339.8,301.1
924.7,824,18.8,17.9,94,14.08,34,6.1,298.6,339.7,301.1
924.1,830,18.8,17.8,94,14.00,34,6.1,298.6,339.6,301.1
923.5,835,18.8,17.7,93,13.91,34,6.2,298.7,339.3,301.2
923.0,840,18.8,17.6,93,13.85,35,6.2,298.7,339.2,301.2
922.4,846,18.8,17.5,92,13.79,35,6.2,298.7,339.1,301.2
921.8,851,18.8,17.4,92,13.72,36,6.2,298.8,338.9,301.2
921.3,856,18.8,17.3,91,13.64,36,6.2,298.8,338.7,301.3
920.7,862,18.8,17.2,91,13.54,36,6.2,298.9,338.5,301.3
920.1,867,18.8,17.1,90,13.47,37,6.2,299.0,338.4,301.4
919.6,872,18.8,17.1,90,13.44,37,6.2,299.0,338.4,301.4
919.0,878,18.8,17.1,90,13.43,38,6.3,299.0,338.4,301.4
918.4,883,18.7,17.0,90,13.43,38,6.3,299.1,338.4,301.5
917.9,888,18.7,17.0,90,13.39,38,6.3,299.1,338.3,301.5
917.3,894,18.6,16.9,90,13.34,39,6.3,299.1,338.2,301.5
916.7,899,18.6,16.9,90,13.29,39,6.3,299.1,338.0,301.5
916.2,904,18.6,16.8,89,13.22,39,6.3,299.1,337.9,301.5
915.6,909,18.6,16.6,88,13.10,40,6.3,299.1,337.6,301.5
915.1,914,18.6,16.4,87,12.94,40,6.3,299.2,337.2,301.6
914.6,919,18.7,16.3,86,12.82,40,6.4,299.4,337.0,301.7
914.1,923,18.7,16.2,85,12.78,40,6.4,299.4,337.0,301.7
913.6,928,18.7,16.2,85,12.79,41,6.4,299.5,337.0,301.8
913.1,933,18.7,16.2,86,12.80,41,6.4,299.5,337.1,301.8
912.6,937,18.7,16.2,86,12.83,41,6.5,299.5,337.2,301.8
912.1,942,18.6,16.3,86,12.88,41,6.5,299.5,337.4,301.9
911.6,947,18.6,16.3,87,12.90,41,6.5,299.6,337.5,301.9
911.1,952,18.6,16.2,86,12.85,41,6.6,299.6,337.3,301.9
910.5,957,18.5,16.1,86,12.76,41,6.6,299.6,337.1,301.9
910.0,963,18.5,15.9,85,12.61,42,6.6,299.6,336.7,301.9
909.4,968,18.5,15.6,83,12.38,42,6.7,299.7,336.1,301.9
908.8,973,18.6,15.3,81,12.09,42,6.7,299.8,335.4,302.0
908.2,979,18.6,15.0,80,11.91,42,6.7,299.9,335.0,302.1
907.7,984,18.6,15.0,79,11.89,42,6.8,300.0,335.0,302.1
907.1,990,18.6,15.0,80,11.92,42,6.8,300.0,335.1,302.1
906.5,995,18.5,15.0,80,11.91,42,6.8,300.0,335.1,302.1
906.0,1001,18.5,15.0,80,11.91,42,6.8,300.0,335.1,302.1
905.4,1006,18.4,15.0,80,11.90,42,6.9,300.0,335.1,302.1
904.8,1012,18.4,14.9,80,11.88,42,6.9,300.0,335.0,302.1
904.2,1017,18.4,14.9,80,11.85,42,6.9,300.0,335.0,302.2
903.7,1023,18.4,14.9,80,11.86,42,6.9,300.1,335.0,302.2
903.1,1028,18.3,15.0,81,11.94,42,6.9,300.1,335.3,302.2
902.5,1034,18.3,15.0,82,12.00,41,6.9,300.1,335.4,302.2
901.9,1039,18.2,15.1,82,12.03,41,6.9,300.1,335.5,302.2
901.3,1045,18.1,15.1,82,12.06,41,6.9,300.1,335.6,302.2
900.7,1051,18.1,15.1,83,12.07,41,6.9,300.1,335.6,302.2
900.1,1056,18.0,15.1,83,12.09,41,6.9,300.1,335.7,302.2
899.5,1062,18.0,15.1,83,12.08,41,6.9,300.1,335.7,302.3
898.9,1068,17.9,15.1,83,12.06,41,6.9,300.1,335.6,302.3
898.3,1073,17.9,15.0,83,12.02,41,6.9,300.1,335.5,302.3
897.7,1079,17.9,15.0,83,12.00,41,6.9,300.1,335.5,302.3
897.1,1085,17.8,15.0,84,12.03,41,6.8,300.1,335.6,302.3
896.5,1090,17.8,15.0,84,12.04,41,6.8,300.1,335.6,302.3
895.9,1096,17.7,14.9,84,12.00,41,6.8,300.1,335.5,302.3
895.3,1102,17.7,14.8,83,11.89,41,6.8,300.1,335.2,302.3
894.7,1108,17.6,14.6,82,11.73,41,6.8,300.2,334.8,302.3
894.1,1114,17.6,14.3,81,11.54,41,6.8,300.2,334.3,302.3
893.5,1120,17.6,14.1,80,11.40,42,6.8,300.3,333.9,302.3
892.8,1126,17.6,14.0,80,11.36,42,6.8,300.3,333.9,302.4
892.2,1132,17.6,14.2,81,11.50,42,6.8,300.4,334.3,302.4
891.5,1138,17.5,14.7,83,11.85,42,6.8,300.3,335.3,302.5
890.9,1144,17.4,15.3,88,12.37,43,6.8,300.3,336.8,302.5
890.3,1150,17.3,15.8,91,12.81,43,6.8,300.2,338.0,302.5
889.7,1156,17.2,16.1,93,13.01,44,6.8,300.2,338.5,302.5
889.1,1162,17.1,16.0,93,12.99,44,6.8,300.2,338.5,302.5
888.5,1167,17.1,16.0,93,12.95,45,6.9,300.2,338.4,302.6
888.0,1173,17.1,16.0,93,12.96,45,6.9,300.2,338.4,302.6
887.4,1178,17.0,16.0,93,12.98,46,6.9,300.3,338.5,302.6
886.8,1183,17.0,15.9,93,12.91,46,6.9,300.3,338.3,302.6
886.3,1189,17.0,15.6,92,12.70,47,6.9,300.3,337.7,302.6
885.7,1194,17.0,15.2,89,12.36,47,7.0,300.4,336.9,302.6
885.1,1200,17.0,14.7,86,11.99,48,7.0,300.5,335.9,302.6
884.6,1205,17.1,14.3,84,11.64,49,7.0,300.6,335.0,302.7
884.0,1211,17.1,13.9,82,11.38,49,7.0,300.6,334.3,302.7
883.4,1217,17.1,13.5,79,11.05,50,7.1,300.7,333.4,302.7
882.8,1222,17.1,12.6,75,10.41,50,7.1,300.8,331.6,302.7
882.3,1228,17.2,10.9,67,9.35,51,7.1,300.9,328.8,302.6
881.7,1233,17.4,9.2,59,8.32,51,7.2,301.2,326.1,302.7
881.1,1239,17.6,8.1,54,7.73,52,7.2,301.5,324.7,302.9
880.6,1244,17.7,7.5,51,7.42,52,7.2,301.6,324.0,303.0
880.0,1250,17.8,7.2,50,7.27,53,7.2,301.8,323.7,303.1
879.5,1255,17.8,7.2,50,7.28,53,7.2,301.8,323.8,303.1
878.9,1260,17.8,7.3,50,7.33,54,7.3,301.8,323.9,303.2
878.3,1266,17.7,7.4,51,7.38,54,7.3,301.9,324.1,303.2
877.8,1271,17.7,7.5,51,7.42,55,7.3,301.9,324.2,303.2
877.2,1277,17.7,7.5,51,7.44,55,7.3,301.9,324.3,303.3
876.6,1283,17.6,7.4,51,7.37,55,7.3,301.9,324.2,303.3
876.0,1288,17.6,7.2,50,7.29,55,7.3,302.0,324.0,303.3
875.5,1294,17.6,7.2,50,7.28,56,7.3,302.0,323.9,303.3
874.9,1300,17.5,7.2,51,7.32,56,7.3,302.0,324.1,303.3
874.3,1305,17.5,7.5,52,7.43,56,7.3,302.0,324.4,303.4
873.8,1310,17.4,7.8,53,7.61,56,7.3,302.0,324.9,303.4
873.3,1316,17.4,8.2,55,7.82,56,7.3,302.0,325.5,303.4
872.7,1321,17.3,8.6,57,8.08,56,7.2,302.0,326.3,303.5
872.2,1326,17.2,9.1,59,8.37,57,7.2,302.0,327.1,303.5
871.6,1332,17.2,9.4,60,8.54,57,7.2,301.9,327.5,303.5
871.1,1337,17.1,9.5,61,8.59,57,7.1,301.9,327.7,303.5
870.5,1342,17.0,9.5,61,8.60,57,7.1,301.9,327.7,303.5
870.0,1348,17.0,9.5,61,8.59,57,7.0,301.9,327.6,303.5
869.4,1353,16.9,9.5,62,8.61,57,7.0,301.9,327.7,303.5
868.8,1359,16.9,9.6,62,8.65,57,6.9,301.9,327.8,303.5
868.3,1364,16.8,9.6,63,8.69,57,6.8,301.9,327.9,303.5
867.7,1370,16.8,9.6,63,8.69,58,6.8,301.9,328.0,303.5
867.1,1376,16.7,9.6,63,8.66,58,6.7,301.9,327.9,303.5
866.5,1382,16.7,9.4,62,8.58,58,6.6,301.9,327.7,303.5
865.9,1388,16.7,9.2,61,8.46,58,6.5,302.0,327.3,303.5
865.2,1395,16.6,9.0,61,8.35,59,6.5,302.0,327.1,303.5
864.5,1401,16.6,8.8,60,8.27,59,6.4,302.1,326.9,303.6
863.9,1408,16.6,8.9,60,8.30,59,6.3,302.1,327.0,303.6
863.2,1414,16.5,9.3,62,8.52,60,6.2,302.1,327.6,303.6
862.5,1421,16.4,9.8,65,8.83,60,6.1,302.0,328.5,303.7
861.9,1427,16.3,10.2,67,9.13,61,6.0,302.0,329.3,303.7
861.3,1434,16.2,10.6,69,9.34,61,6.0,302.0,329.9,303.7
860.7,1439,16.2,10.7,70,9.43,61,5.9,302.0,330.2,303.7
860.1,1445,16.1,10.7,70,9.45,62,5.8,302.0,330.3,303.7
859.5,1451,16.1,10.6,70,9.37,62,5.8,302.1,330.1,303.8
858.9,1457,16.1,10.2,68,9.16,63,5.7,302.1,329.5,303.8
858.3,1462,16.1,9.9,67,8.97,63,5.6,302.2,329.1,303.8
857.8,1468,16.1,9.9,67,8.97,63,5.6,302.2,329.1,303.9
857.2,1474,16.1,10.1,68,9.11,63,5.5,302.3,329.6,304.0
856.7,1479,16.1,10.3,68,9.19,64,5.5,302.3,329.9,304.0
856.1,1485,16.1,10.1,68,9.09,64,5.5,302.4,329.6,304.0
855.5,1490,16.1,9.8,67,8.95,64,5.4,302.4,329.2,304.0
855.0,1496,16.0,9.6,66,8.81,64,5.4,302.4,328.9,304.0
854.5,1501,16.0,9.3,64,8.61,64,5.3,302.4,328.3,304.0
853.9,1507,16.0,8.8,62,8.38,64,5.3,302.5,327.7,304.0
853.4,1512,16.0,8.5,61,8.20,64,5.3,302.6,327.3,304.1
852.8,1517,16.0,8.3,60,8.08,64,5.3,302.7,327.0,304.1
852.3,1523,16.0,8.2,59,8.01,64,5.2,302.7,326.8,304.2
851.7,1529,16.0,8.1,59,8.01,64,5.2,302.8,326.9,304.2
851.1,1535,16.0,8.3,60,8.07,63,5.2,302.8,327.1,304.2
850.5,1540,16.0,8.3,61,8.12,63,5.2,302.8,327.3,304.3
850.0,1546,15.9,8.3,61,8.12,63,5.2,302.8,327.3,304.3
849.9,1546,15.9,8.3,61,8.12,63,5.2,302.8,327.3,304.3
849.3,1552,15.9,8.2,61,8.08,63,5.2,302.8,327.2,304.3
848.7,1559,15.8,8.1,60,8.01,62,5.1,302.8,327.0,304.3
848.1,1565,15.8,7.9,60,7.93,62,5.1,302.9,326.8,304.3
847.5,1571,15.8,7.7,59,7.82,62,5.1,302.9,326.5,304.3
846.9,1577,15.7,7.5,58,7.72,62,5.1,302.9,326.2,304.3
846.3,1583,15.7,7.3,57,7.62,61,5.1,303.0,326.0,304.4
845.7,1589,15.7,7.2,57,7.55,61,5.1,303.0,325.8,304.4
845.1,1595,15.7,7.1,57,7.53,61,5.1,303.0,325.8,304.4
844.5,1601,15.7,7.0,56,7.47,61,5.0,303.1,325.7,304.5
844.0,1606,15.7,6.7,55,7.33,61,5.0,303.2,325.4,304.6
843.4,1612,15.8,6.5,54,7.19,61,5.0,303.3,325.1,304.6
842.9,1617,15.8,6.5,54,7.21,62,5.0,303.4,325.3,304.8
842.4,1622,15.8,6.8,55,7.38,62,5.0,303.5,325.9,304.8
841.8,1627,15.8,7.2,57,7.59,62,4.9,303.5,326.5,304.9
841.3,1633,15.8,7.6,58,7.82,62,4.9,303.6,327.2,305.0
840.8,1638,15.8,8.0,60,8.01,63,4.9,303.6,327.8,305.0
840.2,1644,15.7,8.3,61,8.19,63,4.9,303.6,328.4,305.1
839.6,1650,15.7,8.6,63,8.41,63,4.8,303.7,329.1,305.2
839.1,1655,15.7,9.0,64,8.60,64,4.8,303.7,329.7,305.3
838.5,1661,15.7,9.1,65,8.71,64,4.8,303.7,330.0,305.3
837.9,1667,15.6,9.1,65,8.70,65,4.7,303.7,330.0,305.3
837.3,1673,15.6,8.8,64,8.54,65,4.7,303.8,329.6,305.3
836.8,1679,15.6,8.2,61,8.17,65,4.6,303.9,328.6,305.3
836.2,1685,15.7,7.4,58,7.72,66,4.6,304.0,327.4,305.4
835.6,1691,15.8,6.7,55,7.37,66,4.5,304.1,326.5,305.5
835.1,1696,15.8,6.2,53,7.14,66,4.5,304.2,325.9,305.5
834.5,1702,15.8,5.7,51,6.91,66,4.4,304.3,325.4,305.5
834.0,1707,15.8,5.1,49,6.60,66,4.4,304.3,324.5,305.6
833.4,1713,15.8,4.5,47,6.36,66,4.3,304.4,323.9,305.6
832.8,1719,15.9,4.3,46,6.26,66,4.2,304.5,323.7,305.7
832.3,1724,15.8,4.3,46,6.27,66,4.2,304.6,323.8,305.7
831.7,1730,15.8,4.7,48,6.46,66,4.1,304.6,324.4,305.8
831.2,1736,15.8,5.5,50,6.85,65,4.0,304.6,325.5,305.9
830.6,1742,15.8,6.0,52,7.09,65,4.0,304.6,326.3,305.9
830.0,1747,15.8,6.0,52,7.07,64,3.9,304.7,326.3,306.0
829.5,1753,15.8,5.6,51,6.89,63,3.8,304.8,325.8,306.0
828.9,1759,15.9,5.1,49,6.68,62,3.8,304.9,325.4,306.2
828.4,1764,15.9,4.8,48,6.52,61,3.7,305.0,325.0,306.2
827.8,1770,15.9,4.5,47,6.39,59,3.7,305.1,324.7,306.3
827.3,1776,16.0,4.3,46,6.30,58,3.6,305.2,324.6,306.4
826.8,1781,16.0,4.0,45,6.17,57,3.6,305.3,324.3,306.5
826.2,1787,16.1,3.7,43,6.04,55,3.5,305.5,324.0,306.6
825.7,1792,16.1,3.3,42,5.89,53,3.5,305.6,323.7,306.6
825.2,1797,16.2,3.2,42,5.84,51,3.5,305.7,323.7,306.7
824.7,1803,16.2,3.4,42,5.93,49,3.5,305.7,324.0,306.8
824.1,1808,16.2,3.6,43,6.04,47,3.5,305.7,324.4,306.9
823.6,1814,16.1,3.7,43,6.07,45,3.5,305.8,324.5,306.9
823.1,1819,16.1,3.7,44,6.08,43,3.5,305.8,324.5,306.9
822.5,1825,16.0,3.8,44,6.12,41,3.5,305.8,324.7,306.9
822.0,1830,16.0,4.0,45,6.20,39,3.5,305.8,324.9,307.0
821.4,1836,16.0,4.1,45,6.24,37,3.5,305.8,325.1,307.0
820.9,1842,16.0,3.9,45,6.19,35,3.5,305.9,324.9,307.0
820.3,1848,16.0,3.6,44,6.05,33,3.5,305.9,324.6,307.1
819.7,1853,16.0,3.2,42,5.88,31,3.5,306.0,324.2,307.1
819.2,1859,16.0,2.9,41,5.76,29,3.6,306.1,324.0,307.2
818.6,1865,16.1,2.7,41,5.70,27,3.6,306.3,323.9,307.3
818.1,1871,16.1,2.6,40,5.67,25,3.6,306.4,323.9,307.4
817.5,1877,16.2,2.6,40,5.64,23,3.7,306.5,323.9,307.5
817.0,1882,16.2,2.5,40,5.61,21,3.7,306.5,323.9,307.5
816.4,1888,16.1,2.4,40,5.58,20,3.7,306.5,323.9,307.6
815.8,1894,16.1,2.2,39,5.50,18,3.7,306.6,323.7,307.6
815.2,1900,16.2,1.9,38,5.41,16,3.8,306.7,323.6,307.7
814.7,1906,16.2,1.8,38,5.34,15,3.8,306.8,323.5,307.8
814.1,1912,16.2,1.6,37,5.28,13,3.8,306.9,323.3,307.9
813.6,1917,16.2,1.3,36,5.18,12,3.8,306.9,323.1,307.9
813.1,1923,16.2,0.8,35,5.00,10,3.8,307.0,322.6,307.9
812.5,1928,16.4,0.1,33,4.75,9,3.8,307.2,322.1,308.1
812.0,1934,16.5,-0.4,32,4.59,8,3.8,307.4,321.8,308.3
811.5,1939,16.6,-0.5,31,4.54,7,3.8,307.5,321.8,308.4
811.0,1945,16.6,-0.8,31,4.47,6,3.8,307.6,321.7,308.4
810.5,1950,16.6,-1.1,30,4.34,5,3.8,307.7,321.4,308.5
809.9,1956,16.6,-1.5,29,4.23,5,3.7,307.7,321.1,308.5
809.4,1961,16.6,-1.5,29,4.23,4,3.7,307.8,321.2,308.6
808.9,1967,16.6,-1.0,30,4.39,4,3.7,307.9,321.7,308.7
808.3,1973,16.6,-0.2,32,4.66,3,3.6,307.9,322.6,308.8
807.7,1979,16.6,-0.0,32,4.74,3,3.6,308.0,322.9,308.9
807.2,1985,16.6,-0.5,31,4.58,3,3.5,308.0,322.5,308.9
806.6,1991,16.7,-1.1,30,4.37,3,3.5,308.2,322.0,309.0
806.0,1997,16.7,-1.8,28,4.16,3,3.4,308.3,321.4,309.0
805.5,2003,16.7,-2.5,27,3.94,3,3.3,308.4,320.9,309.1
804.9,2009,16.8,-3.2,25,3.75,3,3.2,308.5,320.4,309.2
804.3,2015,16.8,-3.5,25,3.67,4,3.2,308.6,320.3,309.2
803.8,2021,16.8,-3.5,25,3.67,4,3.1,308.6,320.3,309.3
803.2,2027,16.7,-3.4,25,3.71,5,3.0,308.6,320.5,309.3
802.7,2032,16.7,-3.2,25,3.76,5,3.0,308.6,320.6,309.3
802.1,2038,16.7,-3.1,26,3.81,6,2.9,308.7,320.8,309.4
801.6,2044,16.6,-2.7,26,3.91,7,2.8,308.7,321.1,309.4
801.1,2049,16.6,-2.2,28,4.07,8,2.8,308.7,321.7,309.5
800.6,2054,16.6,-1.5,29,4.28,9,2.7,308.7,322.3,309.5
800.1,2060,16.5,-0.7,31,4.54,9,2.7,308.7,323.1,309.6
799.6,2065,16.5,-0.2,32,4.71,10,2.6,308.7,323.6,309.6
799.1,2071,16.5,-0.2,32,4.71,11,2.6,308.8,323.6,309.6
798.6,2076,16.4,-0.5,31,4.61,12,2.6,308.8,323.4,309.7
798.1,2081,16.4,-1.0,30,4.45,12,2.6,308.9,322.9,309.7
