PRES,HGHT,TEMP,DWPT,RELH,MIXR,DRCT,SPED,THTA,THTE,THTV
1016.9,31,26.5,20.6,70,15.21,65,8.9,298.2,342.6,300.9
1016.4,35,26.3,21.3,74,15.89,75,5.6,298.0,344.3,300.9
1015.8,40,26.0,21.2,75,15.84,81,4.8,297.8,343.9,300.6
1015.1,46,25.7,21.1,76,15.73,83,4.9,297.6,343.3,300.4
1014.3,53,25.4,20.9,76,15.49,82,5.3,297.3,342.3,300.1
1013.6,59,25.2,20.6,76,15.22,81,5.9,297.2,341.4,299.9
1013.1,64,25.0,20.3,75,14.95,80,6.4,297.0,340.4,299.7
1012.5,69,24.9,20.1,75,14.74,79,6.8,297.0,339.8,299.6
1011.8,75,24.8,19.8,74,14.54,79,7.2,297.0,339.2,299.5
1011.2,80,24.7,19.7,74,14.43,79,7.6,296.9,338.8,299.5
1010.5,86,24.7,19.7,74,14.40,78,8.0,297.0,338.8,299.5
1009.9,92,24.6,19.6,74,14.38,78,8.4,296.9,338.7,299.5
1009.2,97,24.6,19.6,74,14.39,78,8.8,297.0,338.7,299.5
1008.6,103,24.5,19.6,74,14.37,77,9.2,297.0,338.7,299.5
1007.9,109,24.5,19.6,74,14.37,77,9.5,297.0,338.7,299.5
1007.2,115,24.4,19.6,74,14.37,77,9.8,297.0,338.7,299.5
1006.6,120,24.4,19.5,74,14.35,76,10.1,297.0,338.6,299.5
1005.9,126,24.3,19.5,75,14.37,76,10.4,297.0,338.7,299.5
1005.2,132,24.3,19.6,75,14.41,76,10.6,297.0,338.8,299.5
1004.5,138,24.2,19.6,75,14.41,76,10.9,297.0,338.8,299.5
1003.8,145,24.2,19.5,75,14.33,76,11.1,297.0,338.6,299.5
1003.1,151,24.1,19.4,75,14.26,75,11.3,297.0,338.4,299.5
1002.4,157,24.0,19.4,75,14.26,75,11.4,297.0,338.4,299.5
1001.7,163,24.0,19.4,76,14.34,75,11.6,297.0,338.6,299.5
1001.1,169,23.9,19.5,76,14.39,75,11.7,297.0,338.7,299.5
1000.4,174,23.9,19.5,77,14.43,75,11.8,297.0,338.9,299.5
1000.0,178,23.8,19.5,77,14.44,75,11.8,297.0,338.9,299.5
999.7,180,23.8,19.5,77,14.44,75,11.9,297.0,338.9,299.5
999.1,186,23.7,19.5,77,14.41,75,11.9,297.0,338.8,299.5
998.4,192,23.7,19.4,77,14.39,75,12.0,297.0,338.7,299.5
997.7,198,23.6,19.4,77,14.36,75,12.0,297.0,338.7,299.5
997.0,204,23.6,19.4,78,14.39,74,12.0,297.0,338.7,299.5
996.3,210,23.5,19.5,78,14.44,74,12.0,297.0,338.9,299.5
995.6,216,23.4,19.4,78,14.43,74,12.0,297.0,338.8,299.5
995.0,222,23.4,19.4,78,14.38,74,12.0,297.0,338.7,299.5
994.3,228,23.3,19.4,78,14.39,74,12.0,297.0,338.7,299.5
993.7,234,23.3,19.4,79,14.43,74,11.9,297.0,338.8,299.5
993.0,239,23.2,19.4,79,14.44,74,11.9,297.0,338.9,299.5
992.4,245,23.2,19.4,79,14.44,74,11.9,297.0,338.9,299.5
991.7,251,23.1,19.4,80,14.48,74,11.8,297.0,339.0,299.5
991.1,257,23.0,19.5,80,14.51,74,11.7,296.9,339.1,299.5
990.4,262,23.0,19.5,81,14.51,74,11.7,296.9,339.1,299.5
989.8,268,22.9,19.4,81,14.49,74,11.6,296.9,339.0,299.5
989.2,273,22.9,19.4,81,14.45,73,11.6,296.9,338.9,299.5
988.6,278,22.8,19.3,80,14.38,73,11.5,297.0,338.7,299.5
988.1,283,22.8,19.2,80,14.32,73,11.5,297.0,338.5,299.5
987.5,288,22.8,19.2,80,14.30,72,11.4,297.0,338.5,299.5
987.0,293,22.7,19.2,81,14.34,72,11.4,296.9,338.6,299.5
986.4,298,22.6,19.3,81,14.41,72,11.4,296.9,338.8,299.5
985.9,303,22.6,19.3,82,14.46,71,11.3,296.9,338.9,299.5
985.3,307,22.5,19.4,83,14.58,71,11.3,296.9,339.3,299.5
984.8,312,22.5,19.5,83,14.68,71,11.3,296.9,339.5,299.5
984.2,317,22.4,19.5,84,14.67,70,11.3,296.9,339.5,299.5
983.7,322,22.4,19.5,84,14.62,70,11.3,296.9,339.3,299.5
983.1,327,22.3,19.4,83,14.58,69,11.3,296.9,339.2,299.5
982.6,331,22.3,19.4,84,14.56,69,11.3,296.9,339.2,299.5
982.1,336,22.2,19.4,84,14.57,69,11.3,296.9,339.2,299.5
981.5,341,22.2,19.4,84,14.60,68,11.3,296.9,339.3,299.5
981.0,346,22.1,19.4,85,14.61,68,11.3,296.9,339.3,299.5
980.4,351,22.1,19.4,85,14.60,68,11.3,296.9,339.3,299.5
979.8,356,22.0,19.3,85,14.57,67,11.3,296.9,339.2,299.5
979.2,361,22.0,19.3,85,14.57,67,11.3,296.9,339.2,299.5
978.7,366,21.9,19.4,85,14.61,67,11.3,296.9,339.3,299.5
978.1,372,21.9,19.4,86,14.64,67,11.3,296.9,339.4,299.5
977.5,377,21.8,19.4,86,14.67,67,11.3,296.9,339.5,299.5
976.9,382,21.8,19.4,86,14.67,67,11.3,296.9,339.5,299.5
976.3,387,21.7,19.4,87,14.67,67,11.3,296.9,339.5,299.5
975.8,392,21.7,19.4,87,14.68,67,11.2,296.9,339.5,299.5
975.2,397,21.6,19.3,87,14.64,67,11.2,296.9,339.4,299.5
974.6,402,21.6,19.3,87,14.57,67,11.2,296.9,339.2,299.5
974.1,407,21.5,19.2,87,14.57,67,11.2,296.9,339.2,299.5
973.5,412,21.5,19.3,88,14.67,67,11.1,296.9,339.5,299.5
973.0,417,21.4,19.4,88,14.76,67,11.1,296.9,339.7,299.5
972.4,422,21.4,19.4,89,14.77,67,11.1,296.9,339.7,299.5
971.8,427,21.3,19.4,89,14.74,67,11.1,296.9,339.6,299.5
971.3,432,21.3,19.4,89,14.74,67,11.0,296.9,339.6,299.5
970.7,437,21.2,19.4,90,14.78,68,11.0,296.9,339.7,299.5
970.1,442,21.2,19.4,90,14.80,68,11.0,296.9,339.8,299.5
969.6,447,21.1,19.4,90,14.77,68,11.0,296.9,339.7,299.5
969.0,452,21.1,19.3,90,14.71,68,11.0,296.9,339.5,299.5
968.5,457,21.0,19.2,89,14.61,68,10.9,296.9,339.2,299.5
967.9,462,21.0,19.1,89,14.50,69,10.9,296.9,339.0,299.5
967.4,467,21.0,19.0,89,14.45,69,10.9,296.9,338.8,299.5
966.8,472,20.9,19.0,89,14.41,69,10.9,296.9,338.7,299.5
966.3,477,20.9,18.9,88,14.34,69,11.0,296.9,338.5,299.5
965.7,482,20.9,18.7,88,14.22,69,11.0,296.9,338.2,299.5
965.2,487,20.8,18.7,87,14.16,69,11.0,297.0,338.1,299.5
964.6,492,20.8,18.6,87,14.14,70,11.0,297.0,338.0,299.5
964.1,497,20.7,18.6,88,14.13,70,11.1,297.0,338.0,299.5
963.5,502,20.7,18.6,88,14.10,70,11.1,297.0,337.9,299.5
963.0,507,20.7,18.5,88,14.07,70,11.1,297.0,337.9,299.5
962.4,512,20.6,18.5,88,14.05,70,11.2,297.0,337.8,299.5
961.9,517,20.6,18.5,88,14.03,70,11.2,297.0,337.7,299.5
961.3,522,20.5,18.5,88,14.04,70,11.3,297.0,337.8,299.5
960.8,527,20.5,18.5,88,14.07,70,11.3,297.0,337.9,299.5
960.2,532,20.4,18.5,89,14.12,70,11.3,297.0,338.0,299.5
959.6,537,20.4,18.5,89,14.10,70,11.4,297.0,337.9,299.5
959.1,542,20.3,18.4,89,14.01,71,11.4,297.0,337.7,299.5
958.5,547,20.3,18.3,88,13.95,71,11.5,297.0,337.5,299.5
958.0,552,20.3,18.3,89,13.94,71,11.5,297.0,337.5,299.5
957.4,557,20.2,18.3,89,13.95,71,11.5,297.0,337.5,299.5
956.8,562,20.2,18.3,89,13.97,71,11.6,297.0,337.6,299.5
956.3,568,20.1,18.3,90,14.01,71,11.6,297.0,337.7,299.5
955.7,573,20.1,18.4,90,14.04,71,11.6,297.0,337.8,299.5
955.1,578,20.0,18.3,90,14.01,71,11.7,297.0,337.7,299.5
954.5,583,20.0,18.3,90,13.97,71,11.7,297.0,337.6,299.5
954.0,588,19.9,18.3,90,13.98,71,11.7,297.0,337.6,299.5
953.4,594,19.9,18.3,91,13.98,72,11.7,297.0,337.6,299.5
952.8,599,19.8,18.2,91,13.98,72,11.7,297.0,337.6,299.5
952.3,604,19.8,18.2,91,13.97,72,11.7,297.0,337.6,299.5
951.7,609,19.7,18.2,91,13.97,72,11.7,297.0,337.6,299.5
951.2,613,19.7,18.2,91,13.96,72,11.7,297.0,337.6,299.5
950.7,618,19.6,18.2,91,13.96,72,11.7,297.0,337.6,299.5
950.2,622,19.6,18.2,92,13.99,72,11.8,297.0,337.7,299.5
949.7,627,19.6,18.2,92,14.00,72,11.8,297.0,337.7,299.5
949.2,631,19.5,18.2,92,14.00,73,11.8,297.1,337.7,299.5
948.7,636,19.5,18.2,92,13.99,73,11.8,297.1,337.7,299.5
948.2,641,19.4,18.2,92,13.98,73,11.8,297.1,337.7,299.6
947.7,645,19.4,18.2,93,13.98,73,11.8,297.1,337.6,299.5
947.1,650,19.3,18.2,93,13.98,73,11.8,297.1,337.7,299.6
946.6,655,19.3,18.1,93,13.97,73,11.8,297.1,337.6,299.6
946.0,660,19.3,18.1,93,13.95,74,11.8,297.1,337.6,299.6
945.5,665,19.2,18.0,93,13.90,74,11.7,297.1,337.4,299.5
944.9,671,19.2,18.0,93,13.84,74,11.7,297.1,337.3,299.5
944.4,676,19.1,17.9,93,13.82,74,11.7,297.1,337.2,299.5
943.8,681,19.1,17.9,93,13.79,74,11.7,297.1,337.1,299.5
943.3,685,19.0,17.9,93,13.78,74,11.7,297.1,337.1,299.6
942.8,690,19.0,17.9,93,13.80,75,11.7,297.1,337.2,299.6
942.2,695,19.0,17.9,94,13.81,75,11.7,297.1,337.2,299.6
941.6,701,18.9,17.9,94,13.80,75,11.7,297.1,337.2,299.6
941.1,706,18.9,17.8,93,13.71,75,11.7,297.1,337.0,299.6
940.5,711,18.8,17.6,93,13.62,75,11.7,297.2,336.7,299.6
939.8,717,18.8,17.6,93,13.58,76,11.7,297.2,336.6,299.6
939.2,723,18.7,17.6,93,13.58,76,11.7,297.2,336.6,299.6
938.6,729,18.7,17.6,93,13.58,76,11.7,297.2,336.6,299.6
937.9,735,18.7,17.5,93,13.52,76,11.7,297.2,336.5,299.6
937.3,740,18.6,17.3,92,13.39,76,11.7,297.2,336.1,299.6
936.7,746,18.6,17.1,91,13.24,76,11.7,297.2,335.7,299.6
936.2,751,18.6,16.9,90,13.05,76,11.7,297.3,335.2,299.6
935.6,756,18.6,16.7,89,12.91,76,11.7,297.3,334.9,299.6
935.1,761,18.5,16.7,89,12.86,77,11.7,297.3,334.8,299.6
934.5,766,18.5,16.7,89,12.86,77,11.7,297.4,334.8,299.7
934.0,771,18.5,16.6,89,12.86,77,11.7,297.4,334.8,299.7
933.5,775,18.5,16.6,89,12.85,77,11.7,297.4,334.8,299.7
933.0,780,18.4,16.6,89,12.84,77,11.7,297.4,334.8,299.7
932.4,785,18.4,16.6,89,12.84,77,11.7,297.4,334.8,299.7
931.9,790,18.3,16.6,90,12.88,77,11.7,297.4,334.9,299.7
931.4,795,18.3,16.6,90,12.88,77,11.8,297.4,334.9,299.7
930.9,800,18.2,16.6,90,12.89,77,11.8,297.4,334.9,299.7
930.3,805,18.2,16.6,91,12.91,78,11.8,297.4,335.0,299.7
929.8,810,18.1,16.7,91,12.95,78,11.8,297.4,335.1,299.7
929.2,815,18.1,16.7,91,12.96,78,11.8,297.4,335.2,299.7
928.7,820,18.0,16.7,92,12.99,78,11.8,297.4,335.2,299.7
928.1,825,18.0,16.7,92,13.03,78,11.8,297.4,335.3,299.7
927.5,830,17.9,16.7,93,13.02,78,11.8,297.4,335.3,299.7
927.0,836,17.9,16.6,93,12.96,78,11.8,297.4,335.1,299.7
926.4,841,17.8,16.5,92,12.87,79,11.7,297.4,334.8,299.7
925.9,846,17.8,16.4,92,12.79,79,11.7,297.4,334.6,299.7
925.4,851,17.7,16.4,92,12.81,79,11.7,297.4,334.7,299.7
925.0,854,17.7,16.5,93,12.86,79,11.7,297.4,334.8,299.7
924.8,855,17.7,16.5,93,12.88,79,11.7,297.4,334.9,299.7
924.3,860,17.7,16.5,93,12.88,79,11.6,297.4,334.9,299.7
923.8,865,17.6,16.4,93,12.81,79,11.6,297.4,334.7,299.7
923.3,870,17.6,16.3,92,12.71,80,11.6,297.5,334.5,299.7
922.7,875,17.6,16.2,92,12.69,80,11.5,297.5,334.5,299.8
922.2,880,17.6,16.2,92,12.69,80,11.5,297.5,334.5,299.8
921.6,885,17.5,16.2,92,12.68,80,11.4,297.5,334.5,299.8
921.0,891,17.5,16.2,92,12.66,80,11.3,297.6,334.4,299.8
920.4,896,17.5,16.1,91,12.58,80,11.3,297.6,334.3,299.8
919.8,902,17.5,15.9,91,12.45,80,11.2,297.6,333.9,299.9
919.2,908,17.5,15.8,90,12.35,80,11.1,297.7,333.7,299.9
918.6,913,17.5,15.7,90,12.33,81,11.1,297.7,333.7,300.0
918.0,919,17.4,15.7,90,12.35,81,11.0,297.8,333.8,300.0
917.4,924,17.4,15.8,90,12.38,81,10.9,297.8,333.9,300.0
916.8,930,17.3,15.8,91,12.41,81,10.9,297.8,334.0,300.0
916.2,935,17.3,15.8,91,12.43,81,10.8,297.8,334.0,300.0
915.7,941,17.2,15.8,91,12.43,81,10.7,297.7,334.0,300.0
915.1,946,17.2,15.8,92,12.41,81,10.7,297.8,334.0,300.0
914.6,951,17.1,15.7,91,12.37,81,10.6,297.8,333.9,300.0
914.0,956,17.1,15.6,91,12.32,81,10.5,297.8,333.7,300.0
913.5,961,17.1,15.6,91,12.28,81,10.5,297.8,333.6,300.0
913.0,966,17.0,15.5,91,12.24,81,10.4,297.8,333.5,300.0
912.4,971,17.0,15.5,91,12.19,81,10.4,297.9,333.4,300.0
911.9,976,17.0,15.4,90,12.12,81,10.3,297.9,333.3,300.1
911.4,981,17.0,15.2,89,12.02,81,10.3,297.9,333.0,300.1
910.9,986,17.0,15.0,88,11.86,81,10.3,297.9,332.6,300.1
910.3,991,17.0,14.8,87,11.67,81,10.2,298.0,332.1,300.1
909.8,996,17.0,14.6,86,11.56,81,10.2,298.1,331.8,300.1
909.3,1001,16.9,14.5,86,11.49,81,10.1,298.1,331.7,300.1
908.7,1006,16.9,14.4,85,11.42,81,10.1,298.1,331.5,300.2
908.2,1011,16.9,14.3,84,11.34,80,10.1,298.2,331.4,300.2
907.6,1016,16.9,14.2,84,11.29,80,10.1,298.2,331.2,300.2
907.1,1021,16.9,14.2,84,11.27,80,10.0,298.2,331.2,300.2
906.6,1026,16.8,14.1,84,11.24,80,10.0,298.2,331.2,300.2
906.1,1031,16.8,14.1,84,11.21,80,10.0,298.3,331.1,300.3
905.5,1036,16.8,14.0,83,11.15,79,10.0,298.3,331.0,300.3
905.0,1041,16.8,13.9,83,11.10,79,10.0,298.3,330.8,300.3
904.5,1046,16.8,13.8,83,11.06,79,9.9,298.3,330.8,300.3
904.0,1051,16.7,13.8,83,11.05,79,9.9,298.4,330.7,300.3
903.4,1056,16.7,13.8,83,11.03,78,9.9,298.4,330.7,300.3
902.9,1061,16.7,13.7,83,10.98,78,9.9,298.4,330.6,300.4
902.3,1067,16.6,13.6,82,10.89,78,9.9,298.4,330.3,300.4
901.7,1072,16.6,13.4,81,10.75,77,9.9,298.4,330.0,300.4
901.1,1078,16.6,13.1,80,10.57,77,9.9,298.5,329.6,300.4
900.5,1084,16.7,12.8,78,10.40,77,9.9,298.6,329.2,300.5
899.9,1089,16.7,12.9,78,10.41,77,9.9,298.7,329.3,300.6
899.3,1095,16.7,12.9,78,10.48,76,10.0,298.8,329.6,300.7
898.8,1100,16.7,12.9,78,10.43,76,10.0,298.8,329.4,300.7
898.2,1105,16.6,12.7,77,10.31,76,10.0,298.8,329.1,300.7
897.7,1110,16.6,12.5,77,10.19,75,10.0,298.8,328.8,300.7
897.3,1114,16.6,12.4,76,10.12,75,10.1,298.9,328.6,300.7
896.8,1119,16.6,12.3,76,10.09,75,10.1,298.9,328.6,300.7
896.4,1123,16.5,12.3,76,10.07,75,10.1,298.9,328.5,300.7
895.9,1127,16.5,12.2,76,10.02,74,10.2,298.9,328.4,300.7
895.4,1132,16.5,12.1,75,9.97,74,10.2,298.9,328.3,300.7
895.0,1136,16.5,12.1,75,9.93,74,10.3,298.9,328.2,300.7
894.5,1141,16.4,12.0,75,9.91,74,10.3,299.0,328.2,300.7
894.0,1146,16.4,12.0,75,9.91,74,10.3,299.0,328.2,300.8
893.5,1151,16.4,12.0,75,9.89,74,10.4,299.0,328.1,300.8
893.0,1155,16.3,11.9,75,9.87,73,10.4,299.0,328.1,300.8
892.5,1160,16.3,11.9,75,9.85,73,10.4,299.0,328.0,300.8
892.0,1165,16.3,11.9,75,9.83,73,10.5,299.0,328.0,300.8
891.5,1169,16.2,11.8,75,9.80,73,10.5,299.0,327.9,300.8
891.1,1174,16.2,11.7,75,9.75,73,10.5,299.0,327.8,300.8
890.6,1178,16.2,11.7,75,9.71,73,10.6,299.0,327.7,300.8
890.1,1182,16.2,11.7,75,9.73,73,10.6,299.1,327.8,300.8
889.7,1187,16.1,11.8,76,9.84,73,10.6,299.1,328.1,300.9
889.2,1191,16.1,12.0,77,9.97,73,10.6,299.1,328.5,300.9
888.7,1196,16.1,12.1,78,10.06,74,10.6,299.1,328.8,300.9
888.2,1201,16.0,12.2,78,10.09,74,10.6,299.1,328.9,300.9
887.7,1205,16.0,12.1,78,10.06,74,10.6,299.1,328.8,301.0
887.2,1210,16.0,12.0,77,9.96,74,10.6,299.2,328.5,301.0
886.7,1215,16.0,11.7,76,9.78,74,10.6,299.2,328.1,301.0
886.2,1220,16.0,11.5,75,9.65,74,10.5,299.3,327.8,301.0
885.7,1225,16.0,11.4,74,9.57,74,10.5,299.3,327.6,301.1
885.1,1230,16.0,11.2,74,9.51,75,10.5,299.4,327.5,301.1
884.6,1235,16.0,11.0,72,9.37,75,10.5,299.4,327.1,301.1
884.1,1241,16.0,10.6,70,9.12,75,10.5,299.5,326.5,301.1
883.5,1246,16.0,10.3,69,8.92,75,10.4,299.6,326.0,301.2
883.0,1251,16.0,10.2,68,8.87,75,10.4,299.6,325.9,301.2
882.4,1256,16.0,10.2,69,8.90,75,10.4,299.6,326.0,301.2
881.9,1262,15.9,10.2,69,8.92,76,10.4,299.6,326.1,301.2
881.3,1267,15.9,10.2,69,8.89,76,10.3,299.6,326.0,301.2
880.7,1273,15.8,10.1,69,8.82,76,10.3,299.7,325.8,301.3
880.1,1278,15.8,10.0,68,8.77,76,10.3,299.7,325.7,301.3
879.6,1284,15.8,9.9,68,8.72,76,10.3,299.7,325.6,301.3
879.0,1290,15.8,9.8,68,8.69,76,10.3,299.7,325.5,301.3
878.4,1295,15.7,9.9,68,8.78,76,10.2,299.8,325.8,301.4
877.8,1301,15.7,10.3,70,8.97,76,10.2,299.8,326.4,301.4
877.3,1306,15.7,10.5,71,9.10,76,10.2,299.8,326.8,301.4
876.7,1312,15.6,10.5,72,9.12,77,10.2,299.8,326.8,301.5
876.2,1317,15.6,10.4,71,9.10,77,10.2,299.8,326.8,301.5
875.6,1322,15.5,10.4,71,9.08,77,10.2,299.9,326.8,301.5
875.1,1328,15.5,10.3,71,9.05,77,10.2,299.9,326.7,301.5
874.5,1333,15.5,10.3,71,9.02,77,10.1,299.9,326.7,301.5
874.0,1338,15.5,10.2,71,8.96,77,10.1,299.9,326.5,301.6
873.4,1343,15.5,10.1,70,8.91,77,10.1,300.0,326.4,301.6
872.9,1349,15.4,10.0,70,8.86,77,10.1,300.0,326.3,301.6
872.4,1354,15.4,10.0,70,8.86,77,10.1,300.0,326.3,301.6
871.9,1359,15.4,10.0,70,8.88,77,10.1,300.0,326.4,301.6
871.3,1364,15.3,10.0,71,8.90,77,10.1,300.1,326.5,301.7
870.8,1369,15.3,10.0,71,8.90,77,10.1,300.1,326.5,301.7
870.3,1374,15.2,10.0,71,8.88,77,10.1,300.1,326.4,301.7
869.8,1379,15.2,9.9,71,8.85,77,10.0,300.1,326.4,301.7
869.3,1384,15.2,9.9,71,8.84,77,10.0,300.1,326.4,301.7
868.7,1389,15.1,9.9,71,8.86,77,10.0,300.1,326.4,301.7
868.2,1394,15.1,9.9,71,8.87,77,10.0,300.1,326.5,301.7
867.7,1400,15.0,9.9,71,8.87,78,10.0,300.1,326.5,301.7
867.1,1405,15.0,9.9,72,8.87,78,10.0,300.1,326.5,301.7
866.6,1410,15.0,9.9,72,8.87,78,10.0,300.1,326.5,301.7
866.0,1416,14.9,9.9,72,8.87,78,10.0,300.1,326.5,301.8
865.5,1421,14.9,9.9,72,8.87,78,10.0,300.2,326.5,301.8
864.9,1427,14.8,9.8,72,8.84,78,10.0,300.2,326.4,301.8
864.3,1433,14.8,9.8,72,8.81,79,10.0,300.2,326.4,301.8
863.7,1438,14.7,9.7,72,8.75,79,10.0,300.2,326.2,301.8
863.1,1444,14.7,9.6,71,8.72,79,10.0,300.2,326.1,301.8
862.5,1450,14.7,9.5,71,8.70,79,10.0,300.2,326.1,301.8
862.0,1456,14.6,9.5,71,8.68,80,10.0,300.2,326.0,301.8
861.4,1461,14.6,9.4,71,8.63,80,10.0,300.3,325.9,301.8
860.8,1467,14.6,9.2,70,8.54,80,10.0,300.3,325.7,301.8
860.2,1473,14.5,9.0,69,8.41,81,10.0,300.3,325.4,301.9
859.6,1478,14.6,8.7,68,8.26,81,10.0,300.4,325.0,301.9
859.1,1484,14.6,8.6,67,8.16,81,10.0,300.5,324.8,302.0
858.5,1490,14.6,8.5,67,8.11,82,10.0,300.5,324.7,302.0
857.9,1496,14.5,8.4,67,8.11,82,10.0,300.6,324.8,302.0
857.3,1501,14.5,8.5,67,8.16,83,10.1,300.6,324.9,302.1
856.8,1507,14.5,8.6,68,8.21,83,10.1,300.6,325.1,302.1
856.2,1512,14.5,8.6,68,8.24,83,10.1,300.7,325.2,302.1
855.7,1518,14.4,8.7,68,8.26,84,10.1,300.7,325.3,302.2
855.1,1523,14.4,8.7,69,8.30,84,10.1,300.7,325.5,302.2
854.6,1529,14.4,8.7,69,8.29,85,10.2,300.7,325.5,302.2
854.0,1534,14.3,8.6,68,8.22,85,10.2,300.8,325.3,302.2
853.5,1540,14.3,8.4,68,8.13,86,10.2,300.8,325.0,302.2
852.9,1545,14.3,8.2,67,8.01,86,10.3,300.8,324.7,302.2
852.4,1550,14.3,8.0,66,7.92,87,10.3,300.8,324.5,302.3
851.8,1556,14.2,8.0,66,7.92,87,10.4,300.9,324.5,302.3
851.3,1561,14.2,8.1,66,7.96,87,10.4,300.9,324.7,302.3
850.7,1567,14.2,8.2,67,8.03,88,10.5,300.9,325.0,302.4
850.2,1572,14.2,8.3,67,8.09,88,10.5,301.0,325.2,302.5
850.0,1574,14.2,8.3,67,8.11,89,10.5,301.0,325.3,302.5
849.6,1578,14.2,8.4,68,8.14,89,10.5,301.1,325.4,302.5
849.1,1583,14.2,8.4,68,8.17,89,10.6,301.1,325.6,302.6
848.5,1589,14.2,8.5,68,8.23,89,10.6,301.2,325.8,302.7
847.9,1594,14.2,8.7,69,8.34,90,10.7,301.2,326.2,302.7
847.4,1600,14.2,8.9,70,8.47,90,10.7,301.3,326.6,302.8
846.8,1606,14.2,9.0,71,8.56,90,10.7,301.3,326.9,302.8
846.2,1612,14.1,8.9,71,8.49,91,10.8,301.3,326.7,302.8
845.6,1618,14.1,8.3,68,8.17,91,10.8,301.3,325.8,302.8
845.0,1623,14.1,7.5,64,7.71,91,10.8,301.4,324.5,302.8
844.4,1629,14.1,6.8,61,7.36,91,10.9,301.5,323.6,302.9
843.9,1635,14.2,6.5,60,7.22,92,10.9,301.6,323.3,302.9
843.3,1641,14.1,6.4,60,7.17,92,10.9,301.6,323.2,302.9
842.8,1646,14.1,6.4,60,7.16,92,10.9,301.6,323.2,302.9
842.2,1652,14.1,6.3,60,7.14,92,10.9,301.6,323.1,302.9
841.7,1657,14.0,6.2,59,7.08,93,10.9,301.7,323.0,302.9
841.1,1662,14.0,6.0,59,7.00,93,10.9,301.7,322.8,302.9
840.6,1668,13.9,5.9,58,6.95,93,10.9,301.7,322.6,302.9
840.1,1673,13.9,5.8,58,6.90,93,10.9,301.7,322.5,303.0
839.5,1679,13.9,5.6,57,6.82,94,10.9,301.7,322.3,303.0
838.9,1685,13.8,5.2,56,6.65,94,10.9,301.8,321.8,303.0
838.3,1691,13.9,4.6,53,6.34,94,10.9,301.9,321.1,303.0
837.7,1697,13.9,3.8,50,6.01,94,10.9,302.0,320.2,303.1
837.1,1703,14.0,3.1,48,5.72,94,10.9,302.1,319.5,303.2
836.5,1709,14.1,2.5,46,5.47,95,10.8,302.2,318.9,303.2
835.8,1716,14.1,2.2,44,5.35,95,10.8,302.3,318.7,303.3
835.2,1723,14.0,2.2,45,5.36,95,10.8,302.4,318.7,303.3
834.5,1729,14.0,2.1,44,5.34,95,10.8,302.4,318.7,303.4
833.9,1736,14.0,1.7,43,5.20,95,10.8,302.4,318.4,303.4
833.2,1742,14.0,1.2,42,5.02,95,10.8,302.5,317.9,303.4
832.6,1749,14.0,0.7,40,4.83,95,10.8,302.6,317.4,303.5
832.0,1755,14.0,0.3,39,4.72,95,10.8,302.6,317.1,303.5
831.4,1761,14.0,0.3,39,4.69,95,10.8,302.7,317.1,303.5
830.8,1767,14.0,0.4,39,4.74,95,10.8,302.7,317.3,303.6
830.2,1773,13.9,0.6,40,4.83,95,10.8,302.8,317.6,303.7
829.7,1778,13.9,1.0,41,4.95,95,10.8,302.8,318.0,303.7
829.1,1784,13.9,1.1,42,5.02,95,10.8,302.8,318.2,303.7
828.6,1789,13.9,1.0,41,4.96,94,10.8,302.8,318.1,303.7
828.1,1794,13.9,0.5,40,4.80,94,10.8,302.9,317.7,303.8
827.5,1800,13.8,0.0,39,4.63,94,10.8,302.9,317.2,303.8
827.0,1805,13.8,-0.2,38,4.56,94,10.8,303.0,317.1,303.8
826.5,1811,13.8,-0.1,38,4.59,93,10.8,303.0,317.2,303.8
825.9,1817,13.7,0.1,39,4.66,93,10.8,303.0,317.4,303.9
825.3,1823,13.7,0.3,40,4.76,93,10.8,303.0,317.7,303.9
824.7,1829,13.6,0.6,41,4.86,92,10.8,303.0,318.0,303.9
824.1,1835,13.6,0.9,42,4.96,92,10.8,303.0,318.3,303.9
823.5,1841,13.5,1.3,43,5.10,92,10.8,303.0,318.7,304.0
823.0,1847,13.4,1.7,45,5.27,91,10.8,303.0,319.1,304.0
822.4,1853,13.4,2.1,46,5.41,91,10.8,303.0,319.6,304.0
821.8,1859,13.3,2.4,48,5.54,91,10.8,303.0,319.9,304.0
821.2,1864,13.2,2.7,49,5.69,91,10.8,303.0,320.3,304.0
820.7,1870,13.2,3.2,51,5.87,90,10.7,303.0,320.9,304.0
820.1,1876,13.1,3.5,52,6.02,90,10.7,303.0,321.3,304.1
819.6,1881,13.1,3.7,53,6.09,90,10.7,303.0,321.5,304.1
819.0,1887,13.0,3.7,53,6.08,90,10.7,303.0,321.5,304.1
818.5,1892,13.0,3.6,53,6.07,89,10.6,303.0,321.5,304.1
818.0,1898,13.0,3.6,53,6.05,89,10.6,303.0,321.5,304.1
817.4,1903,13.0,3.5,52,6.02,89,10.6,303.1,321.5,304.2
816.9,1909,13.0,3.3,52,5.95,89,10.5,303.2,321.4,304.3
816.4,1914,13.1,3.2,51,5.90,89,10.5,303.3,321.3,304.4
815.9,1919,13.0,3.1,51,5.89,89,10.4,303.3,321.3,304.4
815.3,1925,13.0,3.2,51,5.90,88,10.4,303.3,321.3,304.4
814.8,1930,12.9,3.3,52,5.97,88,10.4,303.3,321.5,304.4
814.3,1936,12.9,3.5,53,6.06,88,10.3,303.3,321.8,304.4
813.8,1941,12.8,3.7,54,6.15,88,10.3,303.3,322.0,304.4
