PRES,HGHT,TEMP,DWPT,RELH,MIXR,DRCT,SPED,THTA,THTE,THTV
1017.8,31,23.6,18.5,73,13.28,78,7.9,295.3,333.6,297.6
1017.4,34,23.5,18.9,75,13.62,81,5.7,295.2,334.4,297.6
1016.7,40,23.2,18.9,77,13.60,82,5.7,294.9,334.1,297.3
1016.0,46,23.0,18.6,77,13.43,82,6.0,294.8,333.4,297.1
1015.1,54,22.8,18.4,76,13.19,82,6.4,294.7,332.6,297.0
1014.5,59,22.7,18.1,75,13.00,82,6.9,294.6,332.0,296.9
1013.7,66,22.6,17.8,75,12.79,82,7.4,294.6,331.4,296.9
1013.0,72,22.5,17.7,74,12.69,82,7.8,294.6,331.1,296.8
1012.2,78,22.4,17.4,73,12.46,82,8.2,294.5,330.4,296.7
1011.5,85,22.3,17.2,73,12.30,82,8.6,294.5,329.9,296.6
1010.8,91,22.2,17.2,73,12.27,82,9.0,294.4,329.7,296.6
1010.0,97,22.1,17.2,73,12.28,82,9.4,294.4,329.7,296.6
1009.3,104,22.1,17.1,74,12.27,82,9.7,294.4,329.7,296.6
1008.6,110,22.0,17.1,74,12.24,82,10.1,294.4,329.6,296.6
1007.9,116,21.9,17.1,74,12.25,81,10.4,294.4,329.7,296.6
1007.2,121,21.9,17.1,74,12.26,81,10.7,294.4,329.7,296.6
1006.6,127,21.8,17.1,74,12.25,81,11.0,294.4,329.7,296.6
1005.9,133,21.8,17.1,75,12.25,81,11.2,294.4,329.6,296.6
1005.2,139,21.7,17.1,75,12.26,81,11.4,294.4,329.7,296.6
1004.6,144,21.7,17.1,75,12.28,81,11.7,294.4,329.7,296.6
1003.9,150,21.6,17.1,75,12.30,81,11.8,294.4,329.8,296.6
1003.3,156,21.6,17.1,76,12.30,81,12.0,294.4,329.8,296.6
1002.6,161,21.5,17.1,76,12.30,81,12.2,294.4,329.8,296.6
1002.0,167,21.4,17.1,76,12.31,81,12.3,294.4,329.8,296.6
1001.4,172,21.4,17.1,76,12.31,81,12.4,294.4,329.8,296.6
1000.7,178,21.3,17.0,76,12.29,81,12.6,294.4,329.8,296.6
1000.1,183,21.3,17.0,76,12.26,80,12.6,294.4,329.7,296.6
1000.0,184,21.3,17.0,76,12.25,80,12.7,294.4,329.7,296.6
999.5,189,21.2,16.9,76,12.21,80,12.7,294.4,329.5,296.6
998.9,194,21.2,16.8,76,12.14,80,12.8,294.4,329.4,296.6
998.2,199,21.1,16.8,76,12.11,80,12.9,294.4,329.3,296.6
997.6,205,21.1,16.8,77,12.14,80,12.9,294.4,329.4,296.6
997.0,210,21.0,16.8,77,12.17,80,13.0,294.4,329.4,296.6
996.4,215,21.0,16.8,77,12.17,80,13.0,294.4,329.4,296.6
995.8,221,20.9,16.8,77,12.18,80,13.0,294.4,329.5,296.6
995.2,226,20.9,16.9,78,12.24,80,13.1,294.4,329.6,296.6
994.6,231,20.8,16.9,78,12.27,80,13.1,294.4,329.7,296.6
994.0,237,20.8,16.9,78,12.26,80,13.1,294.4,329.7,296.6
993.3,242,20.7,16.8,78,12.23,80,13.1,294.4,329.6,296.6
992.6,248,20.7,16.8,78,12.19,80,13.1,294.4,329.5,296.6
992.0,254,20.6,16.8,79,12.19,80,13.1,294.4,329.5,296.6
991.2,260,20.5,16.8,79,12.19,80,13.1,294.4,329.5,296.6
990.5,267,20.5,16.8,79,12.20,80,13.1,294.4,329.5,296.6
989.8,273,20.4,16.7,79,12.20,80,13.0,294.4,329.5,296.6
989.1,279,20.4,16.7,80,12.18,80,13.0,294.4,329.5,296.6
988.4,285,20.3,16.7,80,12.18,80,13.0,294.4,329.5,296.6
987.7,291,20.2,16.7,80,12.19,80,13.0,294.4,329.5,296.6
987.1,297,20.2,16.7,80,12.17,79,13.0,294.4,329.4,296.6
986.4,303,20.1,16.6,80,12.17,79,13.0,294.4,329.4,296.6
985.7,309,20.1,16.7,81,12.18,79,13.0,294.4,329.5,296.6
985.1,314,20.0,16.6,81,12.17,79,12.9,294.4,329.4,296.6
984.5,320,20.0,16.6,81,12.14,79,12.9,294.4,329.3,296.6
983.8,325,19.9,16.5,81,12.12,79,12.9,294.4,329.3,296.6
983.3,330,19.9,16.6,81,12.14,79,12.9,294.4,329.4,296.6
982.7,335,19.8,16.6,82,12.18,78,12.9,294.4,329.5,296.6
982.1,340,19.8,16.6,82,12.19,78,12.9,294.4,329.5,296.6
981.6,345,19.7,16.6,82,12.16,78,12.9,294.4,329.4,296.6
981.1,350,19.7,16.5,82,12.15,78,12.9,294.4,329.4,296.6
980.5,354,19.6,16.5,82,12.15,78,12.9,294.4,329.4,296.6
980.0,359,19.6,16.5,82,12.14,78,12.9,294.4,329.4,296.6
979.5,363,19.5,16.5,82,12.13,78,12.9,294.4,329.3,296.6
979.0,368,19.5,16.5,83,12.11,77,12.9,294.4,329.3,296.6
978.5,372,19.5,16.5,83,12.12,77,13.0,294.4,329.3,296.6
978.0,377,19.4,16.5,83,12.14,77,13.0,294.4,329.3,296.6
977.4,382,19.4,16.5,83,12.14,77,13.0,294.4,329.4,296.6
976.9,387,19.3,16.4,83,12.13,77,13.0,294.4,329.3,296.6
976.3,392,19.3,16.4,84,12.13,77,13.0,294.4,329.3,296.6
975.8,397,19.2,16.4,84,12.11,77,13.0,294.4,329.3,296.6
975.2,401,19.2,16.4,84,12.10,77,13.1,294.4,329.2,296.6
974.6,406,19.1,16.3,84,12.08,77,13.1,294.4,329.2,296.6
974.1,411,19.1,16.3,84,12.09,78,13.1,294.4,329.2,296.6
973.5,416,19.0,16.3,84,12.09,78,13.1,294.4,329.2,296.6
972.9,421,19.0,16.3,84,12.09,78,13.1,294.4,329.2,296.6
972.4,427,18.9,16.3,85,12.09,78,13.2,294.4,329.2,296.6
971.8,432,18.9,16.3,85,12.08,78,13.2,294.4,329.2,296.6
971.2,437,18.8,16.3,85,12.07,79,13.2,294.4,329.1,296.6
970.6,443,18.8,16.2,85,12.04,79,13.2,294.4,329.1,296.6
970.0,448,18.7,16.2,85,12.00,79,13.2,294.4,328.9,296.6
969.4,453,18.7,16.1,85,11.97,79,13.2,294.4,328.9,296.6
968.8,458,18.6,16.1,85,11.93,80,13.3,294.4,328.8,296.6
968.2,463,18.6,16.1,85,11.95,80,13.3,294.5,328.8,296.6
967.6,468,18.6,16.1,86,12.01,80,13.3,294.5,329.0,296.6
967.1,473,18.5,16.2,86,12.06,80,13.3,294.5,329.1,296.6
966.5,478,18.5,16.2,87,12.09,81,13.4,294.5,329.2,296.6
965.9,484,18.4,16.2,87,12.08,81,13.4,294.5,329.2,296.6
965.4,489,18.4,16.2,87,12.06,81,13.4,294.4,329.2,296.6
964.8,494,18.3,16.2,87,12.05,81,13.4,294.4,329.1,296.6
964.2,499,18.2,16.1,87,12.02,81,13.4,294.4,329.0,296.6
963.5,505,18.2,16.1,88,12.02,81,13.4,294.5,329.0,296.6
962.9,510,18.1,16.1,88,12.06,81,13.4,294.5,329.1,296.6
962.3,516,18.1,16.1,88,12.06,81,13.4,294.5,329.1,296.6
961.8,521,18.1,16.0,88,11.99,81,13.4,294.5,329.0,296.6
961.2,526,18.0,15.9,87,11.89,81,13.4,294.5,328.7,296.6
960.6,531,18.0,15.7,87,11.79,81,13.4,294.5,328.4,296.6
960.1,536,17.9,15.7,86,11.73,81,13.4,294.5,328.3,296.6
959.5,541,17.9,15.6,86,11.70,81,13.4,294.5,328.2,296.6
958.9,546,17.9,15.6,86,11.67,81,13.4,294.5,328.1,296.6
958.4,551,17.8,15.5,86,11.65,81,13.4,294.5,328.1,296.6
957.8,556,17.8,15.5,87,11.66,81,13.4,294.5,328.1,296.6
957.3,561,17.7,15.5,87,11.68,81,13.4,294.5,328.2,296.6
956.8,565,17.7,15.5,87,11.68,81,13.4,294.5,328.2,296.6
956.3,570,17.7,15.5,87,11.65,81,13.4,294.5,328.1,296.6
955.7,575,17.6,15.5,87,11.66,81,13.4,294.5,328.1,296.6
955.2,579,17.6,15.5,88,11.67,81,13.4,294.5,328.1,296.6
954.7,584,17.5,15.5,88,11.68,81,13.3,294.5,328.2,296.6
954.1,589,17.5,15.5,88,11.71,81,13.3,294.5,328.3,296.6
953.6,594,17.4,15.6,89,11.74,81,13.3,294.5,328.3,296.6
953.0,599,17.4,15.6,89,11.77,81,13.3,294.5,328.4,296.6
952.5,604,17.3,15.6,90,11.78,81,13.3,294.5,328.5,296.6
951.9,609,17.3,15.6,90,11.81,81,13.2,294.5,328.5,296.6
951.4,614,17.2,15.7,91,11.84,81,13.2,294.5,328.6,296.6
950.9,618,17.1,15.7,91,11.84,81,13.2,294.5,328.6,296.6
950.4,623,17.1,15.6,91,11.80,81,13.2,294.5,328.5,296.6
949.8,628,17.1,15.5,91,11.77,82,13.1,294.5,328.4,296.6
949.4,632,17.0,15.6,91,11.84,82,13.1,294.5,328.6,296.6
948.9,637,17.0,15.7,92,11.93,82,13.1,294.5,328.8,296.6
948.4,641,16.9,15.7,93,11.94,82,13.1,294.5,328.9,296.6
947.8,646,16.9,15.7,93,11.93,82,13.0,294.5,328.8,296.6
947.3,650,16.8,15.7,93,11.90,82,13.0,294.5,328.8,296.6
946.8,655,16.8,15.6,93,11.86,82,13.0,294.5,328.6,296.6
946.3,659,16.8,15.6,93,11.82,82,13.0,294.5,328.5,296.6
945.8,664,16.7,15.5,93,11.81,82,12.9,294.5,328.5,296.6
945.3,668,16.7,15.5,93,11.80,82,12.9,294.5,328.5,296.6
944.8,673,16.6,15.5,93,11.81,82,12.9,294.5,328.5,296.6
944.3,677,16.6,15.5,93,11.82,82,12.9,294.5,328.5,296.6
943.8,682,16.6,15.5,93,11.79,82,12.9,294.5,328.5,296.6
943.3,687,16.5,15.4,93,11.75,82,12.9,294.5,328.4,296.6
942.7,692,16.5,15.4,93,11.73,82,12.9,294.5,328.3,296.6
942.2,697,16.4,15.3,93,11.68,82,12.9,294.5,328.2,296.6
941.6,702,16.4,15.2,93,11.61,81,12.9,294.5,328.0,296.6
941.1,707,16.3,15.2,93,11.58,81,12.9,294.5,327.9,296.6
940.5,712,16.3,15.2,93,11.61,81,12.9,294.6,328.0,296.6
940.0,717,16.2,15.2,94,11.64,81,13.0,294.6,328.1,296.6
939.4,722,16.2,15.3,94,11.70,81,13.0,294.6,328.2,296.6
938.9,726,16.1,15.3,95,11.73,81,13.1,294.5,328.3,296.6
938.4,731,16.1,15.3,95,11.74,81,13.1,294.5,328.3,296.6
937.9,736,16.0,15.3,95,11.74,81,13.2,294.5,328.3,296.6
937.4,741,16.0,15.3,95,11.71,81,13.2,294.5,328.3,296.6
936.8,745,16.0,15.2,95,11.68,81,13.3,294.5,328.2,296.6
936.3,750,15.9,15.1,95,11.61,81,13.4,294.6,328.0,296.6
935.8,755,15.9,15.1,95,11.59,81,13.5,294.6,327.9,296.6
935.3,760,15.8,15.1,95,11.63,82,13.6,294.6,328.1,296.6
934.8,764,15.8,15.2,96,11.66,82,13.7,294.6,328.1,296.6
934.2,769,15.8,15.1,96,11.65,82,13.7,294.6,328.1,296.6
933.7,774,15.7,15.1,96,11.65,82,13.8,294.6,328.1,296.6
933.2,778,15.7,15.1,97,11.66,82,13.9,294.6,328.2,296.6
932.7,783,15.6,15.1,97,11.64,82,14.0,294.6,328.1,296.6
932.2,787,15.6,15.0,96,11.56,83,14.1,294.6,327.9,296.6
931.7,792,15.6,14.9,96,11.47,83,14.2,294.6,327.7,296.6
931.2,796,15.5,14.8,95,11.40,83,14.3,294.6,327.5,296.6
930.7,801,15.5,14.7,95,11.34,83,14.3,294.6,327.3,296.6
930.2,806,15.5,14.5,94,11.25,83,14.4,294.6,327.1,296.6
929.7,811,15.5,14.5,94,11.22,84,14.5,294.7,327.0,296.7
929.1,816,15.4,14.5,95,11.27,84,14.5,294.7,327.2,296.7
928.5,821,15.4,14.6,95,11.33,84,14.6,294.7,327.3,296.7
928.0,826,15.3,14.6,96,11.34,84,14.6,294.7,327.4,296.7
927.4,831,15.3,14.6,96,11.30,84,14.6,294.7,327.3,296.7
926.9,836,15.2,14.5,95,11.23,85,14.7,294.7,327.1,296.7
926.4,841,15.2,14.4,95,11.22,85,14.7,294.7,327.0,296.7
925.9,845,15.2,14.4,95,11.23,85,14.7,294.7,327.1,296.7
925.4,850,15.1,14.4,95,11.21,85,14.7,294.7,327.1,296.7
925.0,854,15.1,14.4,95,11.18,85,14.7,294.7,327.0,296.7
924.9,855,15.1,14.3,95,11.18,85,14.7,294.7,327.0,296.7
924.4,859,15.1,14.2,95,11.11,85,14.7,294.8,326.8,296.7
923.9,864,15.1,14.1,94,11.02,85,14.7,294.8,326.6,296.7
923.3,869,15.0,14.0,94,10.98,86,14.7,294.8,326.5,296.8
922.8,874,15.0,14.0,94,10.96,86,14.6,294.9,326.5,296.8
922.3,879,15.0,14.0,94,10.98,86,14.6,294.9,326.6,296.8
921.7,884,14.9,14.1,95,11.05,86,14.6,294.8,326.7,296.8
921.2,889,14.8,14.2,96,11.09,86,14.5,294.8,326.8,296.8
920.6,894,14.8,14.1,96,11.08,86,14.5,294.8,326.8,296.8
920.1,898,14.7,14.2,96,11.10,86,14.5,294.8,326.8,296.8
919.6,903,14.7,14.2,97,11.15,86,14.4,294.8,327.0,296.8
919.1,908,14.6,14.2,97,11.16,86,14.4,294.8,327.0,296.8
918.7,912,14.6,14.2,97,11.14,85,14.4,294.8,326.9,296.8
918.2,916,14.5,14.2,98,11.13,85,14.4,294.8,326.9,296.8
917.8,920,14.5,14.2,98,11.15,85,14.3,294.8,326.9,296.8
917.3,924,14.5,14.2,98,11.15,85,14.3,294.8,327.0,296.8
916.9,928,14.4,14.1,98,11.13,85,14.3,294.8,326.9,296.8
916.5,932,14.4,14.1,98,11.13,85,14.3,294.8,327.0,296.8
916.1,936,14.4,14.1,98,11.11,85,14.3,294.8,326.9,296.8
915.6,940,14.4,13.9,97,10.98,85,14.3,294.8,326.5,296.8
915.2,944,14.3,13.7,96,10.81,85,14.3,294.9,326.1,296.8
914.8,948,14.3,13.6,95,10.73,85,14.3,294.9,325.9,296.8
914.4,952,14.3,13.5,95,10.72,84,14.3,294.9,325.9,296.8
913.9,956,14.3,13.5,95,10.73,84,14.3,295.0,325.9,296.9
913.5,960,14.3,13.5,95,10.72,84,14.3,295.0,325.9,296.9
913.0,964,14.3,13.4,95,10.66,84,14.3,295.0,325.8,296.9
912.6,968,14.3,13.2,93,10.52,84,14.3,295.0,325.4,296.9
912.2,972,14.3,13.0,92,10.40,84,14.3,295.1,325.2,296.9
911.7,976,14.3,12.9,91,10.31,84,14.3,295.1,325.0,297.0
911.3,980,14.3,12.8,91,10.25,84,14.4,295.2,324.9,297.0
910.8,985,14.3,12.8,90,10.22,84,14.4,295.2,324.8,297.1
910.3,989,14.3,12.8,90,10.23,84,14.4,295.3,324.9,297.1
909.8,994,14.3,12.7,90,10.22,84,14.4,295.3,324.9,297.1
909.3,998,14.3,12.7,90,10.18,84,14.4,295.3,324.8,297.1
908.8,1003,14.2,12.6,90,10.12,84,14.5,295.3,324.7,297.1
908.4,1007,14.2,12.5,89,10.07,84,14.5,295.4,324.6,297.2
907.9,1012,14.2,12.5,89,10.05,84,14.5,295.4,324.6,297.2
907.3,1017,14.2,12.5,89,10.06,84,14.5,295.4,324.6,297.2
906.8,1022,14.2,12.5,89,10.06,84,14.5,295.5,324.6,297.2
906.3,1027,14.1,12.5,90,10.07,84,14.5,295.5,324.7,297.3
905.8,1032,14.1,12.4,90,10.05,84,14.5,295.5,324.7,297.3
905.2,1037,14.1,12.4,90,10.05,84,14.6,295.5,324.7,297.3
904.7,1041,14.1,12.4,90,10.07,84,14.6,295.5,324.8,297.3
904.2,1046,14.0,12.5,90,10.10,84,14.6,295.6,324.9,297.4
903.7,1051,14.0,12.5,91,10.14,84,14.6,295.6,325.0,297.4
903.3,1055,14.0,12.6,91,10.19,84,14.6,295.6,325.1,297.4
902.8,1060,13.9,12.6,92,10.21,85,14.6,295.6,325.2,297.4
902.3,1064,13.9,12.6,92,10.23,85,14.6,295.6,325.3,297.4
901.9,1068,13.9,12.6,92,10.25,85,14.6,295.6,325.3,297.4
901.4,1072,13.8,12.6,93,10.25,85,14.5,295.6,325.4,297.4
901.0,1076,13.8,12.6,93,10.26,85,14.5,295.6,325.4,297.4
900.6,1080,13.8,12.7,93,10.27,85,14.5,295.6,325.4,297.4
900.2,1084,13.7,12.7,93,10.28,85,14.5,295.6,325.5,297.5
899.8,1088,13.7,12.7,93,10.28,86,14.5,295.6,325.5,297.5
899.4,1091,13.7,12.7,94,10.28,86,14.5,295.6,325.5,297.5
899.0,1095,13.6,12.7,94,10.29,86,14.5,295.6,325.5,297.5
898.5,1099,13.6,12.6,94,10.29,86,14.5,295.6,325.5,297.5
898.1,1104,13.5,12.6,94,10.27,86,14.5,295.6,325.4,297.4
897.6,1108,13.5,12.6,95,10.30,86,14.4,295.6,325.5,297.4
897.2,1112,13.4,12.7,95,10.34,87,14.4,295.6,325.6,297.4
896.7,1117,13.4,12.7,96,10.36,87,14.4,295.6,325.6,297.4
896.2,1121,13.4,12.7,96,10.38,87,14.4,295.6,325.7,297.5
895.7,1126,13.4,12.7,96,10.39,87,14.4,295.7,325.8,297.5
895.3,1130,13.3,12.7,96,10.38,87,14.4,295.7,325.8,297.5
894.8,1135,13.3,12.7,96,10.36,87,14.4,295.7,325.7,297.5
894.3,1139,13.2,12.7,97,10.38,88,14.4,295.7,325.8,297.5
893.9,1143,13.2,12.8,97,10.42,88,14.4,295.7,325.9,297.5
893.4,1148,13.2,12.8,97,10.44,88,14.4,295.7,325.9,297.5
892.9,1152,13.1,12.8,98,10.43,88,14.3,295.7,325.9,297.5
892.5,1156,13.1,12.7,98,10.43,88,14.3,295.7,325.9,297.5
892.0,1161,13.1,12.7,98,10.42,89,14.3,295.7,325.9,297.6
891.5,1166,13.0,12.7,98,10.44,89,14.3,295.7,326.0,297.6
891.0,1170,13.0,12.8,98,10.46,89,14.3,295.8,326.1,297.6
890.5,1175,13.0,12.8,99,10.48,89,14.3,295.8,326.2,297.6
890.0,1180,12.9,12.8,99,10.48,89,14.3,295.8,326.2,297.6
889.5,1185,12.9,12.7,99,10.45,89,14.3,295.8,326.1,297.6
889.0,1190,12.9,12.7,99,10.42,90,14.3,295.8,326.0,297.6
888.5,1194,12.8,12.6,99,10.40,90,14.3,295.8,326.0,297.6
888.0,1199,12.8,12.6,99,10.39,90,14.3,295.8,326.0,297.7
887.5,1204,12.8,12.6,99,10.39,90,14.2,295.8,326.0,297.7
887.0,1208,12.7,12.6,99,10.40,90,14.2,295.8,326.0,297.7
886.5,1213,12.7,12.6,100,10.42,90,14.2,295.9,326.1,297.7
886.0,1218,12.7,12.7,100,10.44,90,14.2,295.9,326.2,297.7
885.5,1222,12.6,12.6,100,10.44,91,14.2,295.9,326.2,297.8
885.0,1227,12.6,12.6,100,10.43,91,14.2,295.9,326.2,297.8
884.5,1232,12.6,12.6,100,10.41,91,14.1,295.9,326.2,297.8
884.0,1237,12.6,12.5,100,10.37,91,14.1,296.0,326.1,297.8
883.5,1242,12.6,12.5,100,10.37,91,14.1,296.0,326.1,297.8
883.0,1247,12.5,12.5,100,10.37,91,14.1,296.0,326.1,297.9
882.5,1251,12.5,12.5,100,10.36,91,14.1,296.0,326.1,297.9
882.1,1255,12.5,12.4,100,10.34,91,14.0,296.1,326.1,297.9
881.6,1260,12.5,12.4,100,10.32,91,14.0,296.1,326.1,297.9
881.2,1264,12.4,12.4,100,10.30,91,14.0,296.1,326.0,297.9
880.7,1268,12.4,12.3,100,10.26,91,14.0,296.1,325.9,297.9
880.2,1273,12.3,12.2,100,10.23,91,14.0,296.1,325.8,297.9
879.8,1277,12.3,12.2,99,10.19,91,13.9,296.1,325.7,297.9
879.3,1282,12.2,12.1,99,10.17,91,13.9,296.1,325.6,297.9
878.8,1286,12.2,12.1,99,10.15,92,13.9,296.1,325.6,297.9
878.3,1291,12.2,12.1,99,10.14,92,13.9,296.1,325.6,297.9
877.9,1295,12.1,12.1,99,10.13,92,13.9,296.1,325.6,297.9
877.4,1300,12.1,12.0,100,10.12,92,13.9,296.1,325.6,297.9
876.9,1304,12.1,12.0,100,10.11,92,13.9,296.1,325.5,297.9
876.4,1309,12.1,12.0,100,10.11,92,13.9,296.2,325.6,298.0
876.0,1314,12.0,12.0,100,10.12,92,13.9,296.2,325.6,298.0
875.5,1318,12.0,12.0,100,10.12,92,13.9,296.2,325.6,298.0
875.0,1323,12.0,12.0,100,10.10,92,13.9,296.2,325.6,298.0
874.5,1328,11.9,11.9,100,10.08,92,13.9,296.2,325.5,298.0
874.0,1332,11.9,11.9,100,10.07,92,13.9,296.2,325.5,298.0
873.5,1337,11.9,11.9,100,10.04,92,13.9,296.2,325.5,298.0
873.1,1341,11.8,11.8,100,10.00,92,13.9,296.2,325.3,298.0
872.6,1346,11.8,11.8,100,9.98,92,13.9,296.3,325.3,298.0
872.2,1350,11.8,11.7,100,9.98,92,13.9,296.3,325.3,298.1
871.8,1353,11.8,11.7,100,9.98,92,13.9,296.3,325.4,298.1
871.4,1357,11.8,11.7,100,9.99,92,13.9,296.3,325.4,298.1
871.0,1361,11.8,11.8,100,10.00,92,13.9,296.4,325.5,298.2
870.6,1365,11.7,11.7,100,10.00,92,13.9,296.4,325.5,298.2
870.2,1369,11.7,11.7,100,10.00,92,13.9,296.4,325.5,298.2
869.8,1373,11.7,11.7,100,10.00,92,13.9,296.5,325.6,298.2
869.3,1377,11.7,11.7,100,10.00,92,14.0,296.5,325.7,298.3
868.9,1382,11.7,11.7,100,10.01,92,14.0,296.5,325.7,298.3
868.4,1386,11.7,11.7,100,10.01,92,13.9,296.6,325.8,298.4
868.0,1390,11.7,11.7,100,10.02,91,13.9,296.6,325.8,298.4
867.5,1395,11.7,11.7,100,10.02,91,13.9,296.7,325.9,298.5
867.0,1400,11.7,11.7,100,10.02,91,13.9,296.7,325.9,298.5
866.5,1405,11.7,11.7,100,10.01,91,13.9,296.7,326.0,298.5
866.0,1410,11.7,11.7,100,10.02,91,13.9,296.8,326.0,298.6
865.5,1414,11.7,11.7,100,10.02,91,13.8,296.8,326.1,298.6
865.0,1419,11.7,11.7,100,10.02,91,13.8,296.9,326.1,298.7
864.5,1424,11.7,11.7,100,10.01,91,13.8,296.9,326.1,298.7
864.1,1428,11.6,11.6,100,10.00,90,13.8,296.9,326.1,298.7
863.6,1433,11.6,11.6,100,9.99,90,13.7,296.9,326.1,298.7
863.1,1438,11.6,11.6,100,9.99,90,13.7,297.0,326.1,298.8
862.6,1443,11.6,11.6,100,9.98,90,13.6,297.0,326.1,298.8
862.1,1447,11.5,11.5,100,9.97,90,13.6,297.0,326.1,298.8
861.6,1452,11.5,11.5,100,9.95,90,13.5,297.0,326.1,298.8
861.1,1457,11.5,11.5,100,9.92,90,13.5,297.0,326.0,298.8
860.6,1462,11.4,11.4,100,9.91,90,13.4,297.1,326.0,298.8
860.1,1467,11.4,11.4,100,9.88,90,13.4,297.0,325.9,298.8
859.6,1472,11.3,11.3,100,9.82,90,13.3,297.0,325.7,298.7
859.1,1477,11.2,11.2,100,9.79,90,13.3,297.0,325.6,298.7
858.6,1482,11.2,11.2,100,9.78,90,13.2,297.0,325.6,298.8
858.0,1487,11.2,11.2,100,9.77,90,13.2,297.0,325.6,298.8
857.5,1492,11.2,11.2,100,9.77,90,13.2,297.1,325.6,298.8
856.9,1498,11.1,11.1,100,9.75,90,13.1,297.1,325.6,298.8
856.4,1503,11.1,11.1,100,9.71,90,13.1,297.1,325.5,298.8
855.8,1509,10.9,10.9,99,9.58,90,13.0,297.0,325.0,298.7
855.3,1514,10.8,10.8,100,9.53,90,13.0,296.9,324.8,298.6
854.7,1520,10.8,10.8,100,9.54,90,13.0,296.9,324.8,298.6
854.1,1526,10.8,10.8,100,9.55,90,12.9,297.0,324.9,298.7
853.5,1531,10.7,10.7,100,9.53,90,12.9,297.0,324.9,298.7
852.9,1537,10.7,10.7,100,9.51,90,12.9,297.0,324.9,298.7
852.3,1543,10.7,10.7,100,9.51,90,12.8,297.1,324.9,298.8
851.7,1549,10.7,10.7,100,9.53,89,12.8,297.2,325.1,298.9
851.1,1555,10.8,10.8,100,9.57,89,12.8,297.3,325.3,299.0
850.5,1561,10.8,10.8,100,9.61,89,12.8,297.4,325.5,299.1
850.0,1566,10.8,10.8,100,9.64,89,12.8,297.5,325.7,299.2
849.9,1567,10.8,10.8,100,9.65,89,12.8,297.5,325.7,299.2
849.3,1573,10.9,10.9,100,9.68,89,12.8,297.6,326.0,299.3
848.7,1579,10.9,10.9,100,9.69,89,12.8,297.7,326.1,299.4
848.1,1585,10.9,10.9,100,9.69,88,12.8,297.7,326.1,299.4
847.5,1590,10.9,10.9,100,9.68,88,12.8,297.7,326.1,299.5
846.9,1596,10.8,10.8,100,9.67,88,12.8,297.8,326.1,299.5
846.4,1601,10.8,10.8,100,9.67,88,12.8,297.8,326.2,299.6
845.8,1607,10.8,10.8,100,9.67,88,12.8,297.9,326.3,299.6
845.3,1612,10.8,10.8,100,9.67,88,12.8,297.9,326.3,299.6
844.8,1617,10.8,10.8,100,9.65,88,12.8,297.9,326.2,299.6
844.3,1622,10.7,10.7,100,9.60,88,12.8,297.9,326.0,299.6
843.8,1627,10.5,10.5,100,9.51,88,12.8,297.8,325.7,299.5
843.3,1632,10.4,10.4,100,9.44,87,12.8,297.7,325.4,299.4
842.9,1636,10.4,10.4,100,9.41,88,12.8,297.7,325.3,299.4
842.4,1641,10.3,10.3,100,9.38,88,12.8,297.7,325.2,299.4
841.9,1645,10.3,10.3,100,9.36,88,12.8,297.7,325.2,299.4
841.5,1650,10.2,10.2,100,9.35,88,12.7,297.7,325.1,299.4
841.0,1654,10.2,10.2,100,9.35,88,12.7,297.7,325.2,299.4
840.6,1659,10.2,10.2,100,9.35,88,12.7,297.8,325.2,299.5
840.1,1664,10.2,10.2,100,9.37,88,12.6,297.9,325.4,299.5
839.6,1669,10.3,10.3,100,9.38,88,12.6,297.9,325.5,299.6
839.1,1674,10.2,10.2,100,9.38,88,12.5,298.0,325.5,299.6
838.5,1679,10.2,10.2,100,9.38,88,12.5,298.0,325.5,299.7
838.0,1684,10.2,10.2,100,9.36,89,12.4,298.0,325.5,299.7
837.5,1689,10.1,10.1,100,9.34,89,12.4,298.0,325.4,299.7
837.0,1695,10.1,10.1,100,9.30,89,12.3,298.0,325.3,299.7
836.5,1699,10.0,10.0,100,9.27,89,12.3,298.0,325.2,299.6
836.0,1704,10.0,10.0,100,9.25,89,12.2,298.0,325.2,299.6
835.5,1709,9.9,9.9,100,9.23,90,12.1,298.0,325.1,299.7
835.1,1714,9.9,9.9,100,9.22,90,12.1,298.0,325.1,299.7
834.6,1719,9.9,9.9,100,9.21,90,12.0,298.0,325.1,299.7
834.1,1724,9.9,9.9,100,9.20,90,12.0,298.1,325.1,299.7
833.6,1729,9.8,9.8,100,9.19,90,11.9,298.1,325.1,299.7
833.0,1734,9.8,9.8,100,9.19,91,11.9,298.1,325.2,299.8
832.5,1740,9.8,9.8,100,9.19,91,11.8,298.2,325.2,299.8
831.9,1746,9.8,9.8,100,9.17,91,11.8,298.2,325.2,299.9
831.3,1752,9.8,9.8,100,9.17,92,11.8,298.2,325.2,299.9
830.7,1758,9.7,9.7,100,9.16,92,11.8,298.3,325.2,299.9
830.1,1764,9.7,9.7,100,9.15,92,11.7,298.3,325.2,300.0
829.5,1770,9.7,9.7,100,9.14,92,11.7,298.4,325.3,300.0
828.9,1775,9.7,9.7,100,9.14,93,11.7,298.4,325.3,300.0
