PRES,HGHT,TEMP,DWPT,RELH,MIXR,DRCT,SPED,THTA,THTE,THTV
1012.7,31,23.5,18.4,73,13.27,10,3.8,295.6,333.9,297.9
1012.0,37,23.9,18.8,73,13.63,15,3.1,296.0,335.4,298.4
1011.5,41,23.4,18.7,75,13.57,17,3.1,295.6,334.8,298.0
1010.8,47,23.3,18.7,76,13.56,18,3.4,295.5,334.6,297.9
1010.0,54,23.2,18.7,76,13.54,18,3.7,295.5,334.6,297.9
1009.4,59,23.1,18.6,76,13.49,18,4.0,295.5,334.4,297.9
1008.8,64,23.1,18.5,76,13.44,19,4.3,295.5,334.3,297.9
1008.1,70,23.0,18.5,76,13.41,19,4.6,295.5,334.2,297.9
1007.5,76,23.0,18.4,76,13.36,19,4.9,295.5,334.1,297.9
1006.8,82,22.9,18.4,76,13.32,19,5.2,295.5,333.9,297.8
1006.1,88,22.8,18.3,76,13.30,20,5.5,295.5,333.9,297.8
1005.4,94,22.8,18.3,76,13.27,20,5.7,295.5,333.8,297.8
1004.7,100,22.7,18.2,76,13.18,20,6.0,295.5,333.5,297.8
1004.1,105,22.6,18.0,75,13.07,21,6.3,295.4,333.2,297.8
1003.4,111,22.6,18.0,75,13.02,21,6.5,295.4,333.0,297.7
1002.7,117,22.5,17.9,75,13.01,21,6.7,295.4,333.0,297.7
1002.0,123,22.5,17.9,76,13.01,21,7.0,295.4,333.0,297.7
1001.3,129,22.4,17.9,76,13.02,22,7.2,295.4,333.0,297.7
1000.6,135,22.3,17.9,76,13.04,22,7.3,295.4,333.1,297.8
1000.0,141,22.3,18.0,76,13.06,22,7.3,295.4,333.1,297.7
999.9,142,22.3,18.0,77,13.06,22,7.5,295.4,333.1,297.7
999.2,148,22.2,18.0,77,13.08,23,7.7,295.4,333.2,297.7
998.5,154,22.2,17.9,77,13.07,23,7.8,295.4,333.1,297.7
997.7,160,22.1,17.8,77,12.97,23,7.9,295.4,332.9,297.7
997.0,167,22.0,17.7,76,12.88,23,8.0,295.4,332.6,297.7
996.4,173,22.0,17.7,77,12.87,24,8.1,295.4,332.6,297.7
995.7,179,21.9,17.7,77,12.89,24,8.2,295.4,332.6,297.7
995.0,184,21.8,17.6,77,12.86,24,8.2,295.4,332.5,297.7
994.4,190,21.8,17.6,77,12.81,24,8.3,295.4,332.4,297.7
993.7,195,21.7,17.6,77,12.83,25,8.3,295.4,332.4,297.7
993.1,201,21.7,17.6,78,12.86,25,8.4,295.4,332.5,297.7
992.5,206,21.6,17.6,78,12.88,25,8.4,295.4,332.6,297.7
991.9,212,21.6,17.6,78,12.90,26,8.4,295.4,332.7,297.7
991.2,218,21.6,17.7,78,12.92,26,8.5,295.4,332.8,297.7
990.5,224,21.5,17.7,79,12.95,26,8.5,295.4,332.8,297.7
989.8,230,21.4,17.7,79,12.97,27,8.5,295.4,332.9,297.7
989.1,236,21.3,17.6,79,12.94,27,8.5,295.4,332.8,297.7
988.4,242,21.3,17.6,80,12.93,28,8.5,295.4,332.7,297.7
987.7,248,21.2,17.6,80,12.94,28,8.5,295.4,332.8,297.7
987.0,255,21.2,17.7,80,12.98,29,8.6,295.4,332.9,297.7
986.3,261,21.1,17.7,81,13.00,30,8.6,295.4,333.0,297.7
985.7,266,21.1,17.6,81,12.98,30,8.6,295.4,332.9,297.7
985.0,272,21.0,17.6,81,12.96,31,8.6,295.5,332.9,297.7
984.3,278,21.0,17.5,81,12.92,31,8.7,295.4,332.8,297.7
983.7,284,20.9,17.5,81,12.87,32,8.7,295.4,332.6,297.7
983.0,290,20.8,17.4,81,12.85,33,8.7,295.4,332.5,297.7
982.4,295,20.8,17.4,81,12.86,33,8.7,295.4,332.5,297.7
981.7,301,20.7,17.4,81,12.88,34,8.8,295.4,332.6,297.7
981.0,307,20.7,17.5,82,12.92,35,8.8,295.4,332.7,297.7
980.4,313,20.6,17.5,82,12.96,35,8.8,295.4,332.8,297.7
979.6,319,20.6,17.5,83,12.98,36,8.9,295.4,332.9,297.7
978.9,326,20.5,17.5,83,12.99,37,8.9,295.5,332.9,297.8
978.2,332,20.5,17.5,83,12.99,37,8.9,295.5,333.0,297.8
977.5,338,20.4,17.5,83,12.97,38,8.9,295.5,332.9,297.8
976.8,345,20.4,17.4,83,12.94,38,9.0,295.5,332.8,297.8
976.1,351,20.3,17.4,83,12.93,39,9.0,295.5,332.8,297.8
975.4,357,20.3,17.4,84,12.94,39,9.0,295.5,332.9,297.8
974.8,363,20.2,17.4,84,12.95,40,9.0,295.5,332.9,297.8
974.1,369,20.1,17.4,84,12.91,40,9.1,295.5,332.8,297.8
973.4,374,20.1,17.3,84,12.85,40,9.1,295.5,332.6,297.8
972.8,380,20.0,17.2,84,12.82,41,9.1,295.5,332.5,297.8
972.2,386,20.0,17.3,84,12.85,41,9.1,295.5,332.6,297.8
971.5,392,19.9,17.3,85,12.87,41,9.1,295.5,332.6,297.8
970.9,397,19.8,17.3,85,12.88,41,9.1,295.5,332.7,297.8
970.3,403,19.8,17.3,85,12.88,41,9.2,295.5,332.7,297.8
969.7,408,19.8,17.2,85,12.85,42,9.2,295.5,332.6,297.8
969.0,414,19.7,17.2,85,12.84,42,9.2,295.5,332.6,297.8
968.4,419,19.7,17.2,86,12.86,42,9.2,295.5,332.6,297.8
967.8,425,19.6,17.2,86,12.88,42,9.2,295.5,332.7,297.8
967.2,430,19.6,17.2,86,12.90,43,9.2,295.5,332.7,297.8
966.5,436,19.5,17.2,87,12.91,43,9.2,295.5,332.8,297.8
965.9,442,19.5,17.2,87,12.91,43,9.2,295.5,332.8,297.8
965.2,447,19.4,17.2,87,12.87,44,9.2,295.5,332.6,297.8
964.6,453,19.3,17.1,87,12.79,44,9.2,295.5,332.4,297.7
963.9,459,19.2,17.0,87,12.75,45,9.2,295.5,332.3,297.7
963.3,465,19.2,17.0,87,12.77,45,9.2,295.5,332.3,297.7
962.6,471,19.1,17.1,88,12.83,46,9.1,295.5,332.5,297.8
962.0,477,19.1,17.1,88,12.86,46,9.1,295.5,332.6,297.8
961.3,483,19.0,17.1,89,12.85,47,9.1,295.5,332.6,297.8
960.7,488,19.0,17.1,89,12.84,48,9.1,295.5,332.5,297.7
960.0,494,18.9,17.1,89,12.84,49,9.0,295.5,332.5,297.7
959.4,500,18.8,17.0,89,12.84,49,9.0,295.5,332.5,297.7
958.8,506,18.8,17.0,89,12.82,50,9.0,295.5,332.5,297.7
958.1,511,18.7,17.0,89,12.79,51,8.9,295.5,332.4,297.7
957.6,516,18.7,16.9,90,12.76,52,8.9,295.5,332.3,297.7
957.0,521,18.6,16.9,90,12.76,53,8.8,295.5,332.3,297.7
956.5,526,18.6,16.9,90,12.78,53,8.8,295.5,332.3,297.7
955.9,531,18.5,16.9,90,12.78,54,8.7,295.5,332.3,297.7
955.4,536,18.5,16.9,90,12.76,55,8.7,295.4,332.3,297.7
954.9,541,18.4,16.8,91,12.74,55,8.7,295.4,332.2,297.7
954.3,546,18.4,16.8,91,12.75,56,8.6,295.5,332.3,297.7
953.8,551,18.3,16.8,91,12.76,56,8.6,295.4,332.3,297.7
953.2,556,18.3,16.8,91,12.76,57,8.5,295.4,332.3,297.7
952.6,561,18.2,16.8,91,12.74,57,8.4,295.4,332.2,297.7
952.0,567,18.2,16.8,92,12.74,57,8.4,295.4,332.2,297.7
951.4,572,18.1,16.8,92,12.76,57,8.3,295.4,332.3,297.7
950.7,578,18.1,16.8,92,12.76,57,8.3,295.4,332.3,297.7
950.1,584,18.0,16.8,93,12.77,57,8.2,295.4,332.3,297.7
949.4,590,18.0,16.8,93,12.80,56,8.2,295.5,332.4,297.7
948.7,596,17.9,16.8,94,12.83,56,8.2,295.5,332.5,297.7
948.1,602,17.9,16.9,94,12.86,55,8.1,295.5,332.6,297.7
947.4,608,17.8,16.9,94,12.88,55,8.1,295.5,332.6,297.8
946.7,614,17.8,16.9,95,12.88,54,8.1,295.5,332.7,297.8
946.0,621,17.7,16.8,95,12.86,53,8.0,295.5,332.6,297.8
945.3,627,17.6,16.8,95,12.86,53,8.0,295.5,332.6,297.8
944.7,633,17.6,16.9,96,12.90,52,8.0,295.5,332.7,297.8
944.0,639,17.5,16.9,96,12.95,51,8.0,295.5,332.9,297.8
943.3,645,17.5,17.0,97,13.00,51,8.0,295.5,333.0,297.8
942.6,651,17.4,17.0,97,13.02,50,8.0,295.5,333.1,297.8
942.0,657,17.4,16.9,97,12.99,49,8.0,295.5,333.0,297.8
941.3,663,17.3,16.9,97,12.95,49,8.0,295.5,332.9,297.8
940.7,669,17.2,16.8,97,12.91,48,8.0,295.5,332.8,297.8
940.1,675,17.2,16.8,97,12.89,48,8.1,295.5,332.7,297.8
939.5,680,17.1,16.8,98,12.89,47,8.1,295.5,332.7,297.8
938.9,685,17.1,16.8,98,12.89,47,8.1,295.5,332.7,297.8
938.3,691,17.0,16.7,98,12.87,47,8.1,295.5,332.7,297.8
937.7,696,17.0,16.7,98,12.85,47,8.2,295.5,332.6,297.8
937.1,701,16.9,16.6,98,12.81,47,8.2,295.5,332.5,297.8
936.5,707,16.9,16.6,98,12.75,47,8.2,295.5,332.3,297.8
935.9,713,16.8,16.5,98,12.71,47,8.3,295.5,332.2,297.8
935.2,719,16.8,16.5,98,12.69,47,8.3,295.5,332.1,297.8
934.6,725,16.7,16.4,98,12.69,47,8.3,295.5,332.1,297.7
933.9,731,16.6,16.5,99,12.72,47,8.4,295.5,332.2,297.8
933.2,737,16.6,16.5,99,12.77,47,8.4,295.5,332.4,297.8
932.6,743,16.5,16.5,100,12.79,48,8.4,295.5,332.5,297.8
931.9,749,16.5,16.5,100,12.78,48,8.4,295.5,332.4,297.8
931.3,755,16.5,16.5,100,12.75,48,8.5,295.6,332.4,297.8
930.7,761,16.4,16.4,100,12.74,48,8.5,295.6,332.4,297.8
930.1,766,16.4,16.4,100,12.72,49,8.5,295.6,332.3,297.9
929.5,772,16.4,16.4,100,12.70,49,8.6,295.6,332.3,297.9
928.9,777,16.3,16.3,100,12.69,49,8.6,295.7,332.3,297.9
928.3,782,16.3,16.3,100,12.68,49,8.6,295.7,332.3,297.9
927.8,787,16.3,16.3,100,12.66,49,8.6,295.7,332.3,298.0
927.2,792,16.3,16.3,100,12.64,49,8.7,295.7,332.3,298.0
926.6,798,16.2,16.2,100,12.64,50,8.7,295.8,332.3,298.0
926.1,803,16.2,16.2,100,12.63,50,8.7,295.8,332.3,298.0
925.5,808,16.2,16.2,100,12.61,50,8.7,295.8,332.3,298.1
925.0,813,16.1,16.1,100,12.57,50,8.7,295.8,332.1,298.0
924.9,814,16.1,16.1,100,12.56,50,8.8,295.8,332.1,298.0
924.3,819,16.0,16.0,100,12.50,50,8.8,295.8,331.9,298.0
923.7,824,15.9,15.9,100,12.43,50,8.8,295.7,331.7,297.9
923.1,830,15.9,15.9,100,12.39,50,8.8,295.7,331.5,297.9
922.6,835,15.9,15.9,100,12.37,50,8.8,295.7,331.5,297.9
922.0,841,15.8,15.8,100,12.37,50,8.9,295.8,331.5,298.0
921.4,846,15.8,15.8,100,12.37,50,8.9,295.8,331.6,298.0
920.8,851,15.8,15.8,100,12.36,50,8.9,295.8,331.6,298.0
920.3,856,15.8,15.8,100,12.36,50,8.9,295.9,331.6,298.1
919.7,861,15.8,15.8,100,12.34,51,8.9,295.9,331.6,298.1
919.2,866,15.7,15.7,100,12.31,51,8.9,295.9,331.5,298.1
918.7,871,15.7,15.7,100,12.28,51,8.9,295.9,331.4,298.1
918.1,877,15.6,15.6,100,12.25,51,8.9,295.9,331.4,298.1
917.5,882,15.6,15.6,100,12.23,52,8.8,295.9,331.3,298.1
917.0,887,15.6,15.6,100,12.22,52,8.8,295.9,331.3,298.1
916.4,892,15.5,15.5,100,12.19,52,8.8,296.0,331.3,298.1
915.9,897,15.5,15.5,100,12.18,53,8.8,296.0,331.3,298.2
915.3,903,15.5,15.5,100,12.17,53,8.8,296.0,331.2,298.2
914.8,908,15.4,15.4,100,12.15,54,8.7,296.0,331.2,298.2
914.2,913,15.4,15.4,100,12.13,54,8.7,296.0,331.2,298.2
913.7,918,15.4,15.4,100,12.10,55,8.6,296.0,331.1,298.2
913.1,923,15.3,15.3,100,12.08,55,8.6,296.1,331.0,298.2
912.6,928,15.3,15.3,100,12.06,56,8.6,296.1,331.0,298.2
912.1,933,15.3,15.3,100,12.04,57,8.5,296.1,331.0,298.2
911.5,938,15.2,15.2,100,12.03,57,8.5,296.1,331.0,298.3
911.0,943,15.2,15.2,100,12.01,58,8.4,296.1,330.9,298.3
910.4,948,15.2,15.2,100,12.00,58,8.4,296.2,331.0,298.3
909.9,953,15.2,15.2,100,11.99,59,8.3,296.2,330.9,298.3
909.3,958,15.1,15.1,100,11.98,60,8.2,296.2,330.9,298.4
908.7,964,15.1,15.1,100,11.97,60,8.2,296.3,331.0,298.4
908.2,969,15.1,15.1,100,11.96,61,8.1,296.3,331.0,298.4
907.6,975,15.1,15.1,100,11.95,61,8.1,296.3,331.0,298.4
906.9,981,15.0,15.0,100,11.94,62,8.0,296.3,331.0,298.5
906.3,986,15.0,15.0,100,11.93,62,7.9,296.4,331.0,298.5
905.7,992,15.0,15.0,100,11.91,63,7.9,296.4,331.0,298.5
905.1,998,15.0,15.0,100,11.90,63,7.8,296.4,331.0,298.6
904.4,1004,14.9,14.9,100,11.90,64,7.7,296.5,331.0,298.6
903.8,1010,14.9,14.9,100,11.89,64,7.7,296.5,331.0,298.6
903.2,1016,14.9,14.9,100,11.88,65,7.6,296.6,331.0,298.7
902.6,1022,14.9,14.9,100,11.87,65,7.5,296.6,331.1,298.7
902.0,1027,14.9,14.9,100,11.87,65,7.4,296.6,331.1,298.7
901.4,1033,14.8,14.8,100,11.86,66,7.4,296.7,331.1,298.8
900.8,1038,14.8,14.8,100,11.85,66,7.3,296.7,331.1,298.8
900.3,1043,14.8,14.8,100,11.83,66,7.2,296.7,331.1,298.8
899.8,1048,14.8,14.8,100,11.83,66,7.1,296.7,331.1,298.8
899.2,1053,14.8,14.8,100,11.82,66,7.0,296.8,331.1,298.9
898.7,1058,14.7,14.7,100,11.81,66,7.0,296.8,331.1,298.9
898.2,1063,14.7,14.7,100,11.80,66,6.9,296.8,331.1,298.9
897.6,1068,14.7,14.7,100,11.79,66,6.8,296.9,331.2,299.0
897.1,1073,14.7,14.7,100,11.78,66,6.8,296.9,331.1,299.0
896.6,1078,14.6,14.6,100,11.76,66,6.7,296.9,331.1,299.0
896.1,1083,14.6,14.6,100,11.75,66,6.6,296.9,331.1,299.0
895.6,1087,14.6,14.6,100,11.74,65,6.6,296.9,331.1,299.0
895.1,1092,14.6,14.6,100,11.74,65,6.6,297.0,331.1,299.1
894.6,1097,14.6,14.6,100,11.73,65,6.5,297.0,331.2,299.1
894.1,1101,14.5,14.5,100,11.72,64,6.5,297.0,331.2,299.1
893.6,1106,14.5,14.5,100,11.72,64,6.5,297.1,331.2,299.2
893.1,1111,14.5,14.5,100,11.71,63,6.5,297.1,331.2,299.2
892.6,1116,14.5,14.5,100,11.70,63,6.5,297.1,331.2,299.2
892.1,1121,14.5,14.5,100,11.68,62,6.5,297.1,331.1,299.2
891.6,1126,14.4,14.4,100,11.66,62,6.5,297.1,331.1,299.2
891.0,1131,14.4,14.4,100,11.65,61,6.5,297.2,331.1,299.3
890.5,1136,14.4,14.4,100,11.64,61,6.5,297.2,331.1,299.3
889.9,1141,14.3,14.3,100,11.63,60,6.5,297.2,331.1,299.3
889.4,1146,14.3,14.3,100,11.59,60,6.6,297.2,331.0,299.3
888.9,1152,14.2,14.2,100,11.55,59,6.6,297.2,330.8,299.3
888.3,1157,14.2,14.2,100,11.51,59,6.6,297.2,330.7,299.3
887.8,1161,14.1,14.1,100,11.50,58,6.7,297.2,330.7,299.3
887.3,1166,14.2,14.2,100,11.52,58,6.7,297.3,330.9,299.4
886.8,1171,14.2,14.2,100,11.55,57,6.7,297.4,331.0,299.4
886.4,1175,14.2,14.2,100,11.57,57,6.8,297.4,331.2,299.5
885.9,1180,14.2,14.2,100,11.60,57,6.8,297.5,331.3,299.6
885.5,1184,14.2,14.2,100,11.59,57,6.8,297.5,331.3,299.6
885.0,1188,14.2,14.2,100,11.58,57,6.8,297.6,331.3,299.6
884.6,1192,14.2,14.2,100,11.56,56,6.8,297.6,331.3,299.6
884.1,1197,14.1,14.1,100,11.55,56,6.9,297.6,331.3,299.6
883.7,1201,14.1,14.1,100,11.53,56,6.9,297.6,331.2,299.7
883.2,1205,14.1,14.1,100,11.52,56,6.8,297.6,331.2,299.7
882.8,1210,14.1,14.1,100,11.51,56,6.8,297.6,331.2,299.7
882.3,1214,14.0,14.0,100,11.50,56,6.8,297.7,331.2,299.7
881.8,1219,14.0,14.0,100,11.49,56,6.8,297.7,331.2,299.7
881.3,1224,14.0,14.0,100,11.49,57,6.8,297.7,331.3,299.8
880.8,1229,14.0,14.0,100,11.47,57,6.7,297.7,331.2,299.8
880.3,1233,14.0,14.0,100,11.46,57,6.7,297.8,331.2,299.8
879.8,1238,14.0,14.0,100,11.47,57,6.6,297.8,331.3,299.9
879.3,1243,14.0,14.0,100,11.47,57,6.6,297.8,331.4,299.9
878.8,1247,14.0,14.0,100,11.48,58,6.5,297.9,331.4,300.0
878.4,1252,13.9,13.9,100,11.47,58,6.5,297.9,331.5,300.0
877.9,1256,13.9,13.9,100,11.47,58,6.4,298.0,331.5,300.0
877.4,1261,13.9,13.9,100,11.48,58,6.3,298.0,331.6,300.1
877.0,1265,13.9,13.9,100,11.46,58,6.3,298.0,331.6,300.1
876.5,1270,13.9,13.9,100,11.45,58,6.2,298.1,331.6,300.1
876.1,1274,13.9,13.9,100,11.45,59,6.1,298.1,331.6,300.1
875.6,1279,13.9,13.9,100,11.45,59,6.1,298.1,331.6,300.2
875.1,1283,13.9,13.9,100,11.45,59,6.0,298.2,331.6,300.2
874.7,1288,13.8,13.8,100,11.44,59,5.9,298.2,331.6,300.2
874.2,1292,13.8,13.8,100,11.43,59,5.8,298.2,331.6,300.2
873.8,1297,13.8,13.8,100,11.44,59,5.8,298.2,331.7,300.3
873.3,1301,13.8,13.8,100,11.45,59,5.7,298.3,331.8,300.3
872.8,1306,13.8,13.8,100,11.45,59,5.7,298.3,331.9,300.4
872.3,1310,13.8,13.8,100,11.44,59,5.6,298.4,331.9,300.4
871.8,1316,13.8,13.8,100,11.43,59,5.5,298.4,331.9,300.5
871.2,1321,13.8,13.8,100,11.43,59,5.5,298.4,331.9,300.5
870.6,1327,13.7,13.7,100,11.42,59,5.4,298.5,331.9,300.5
870.0,1333,13.7,13.7,100,11.40,59,5.4,298.5,331.9,300.5
869.4,1339,13.7,13.7,100,11.39,59,5.3,298.5,331.9,300.6
868.7,1345,13.6,13.6,100,11.38,59,5.3,298.6,331.9,300.6
868.1,1351,13.6,13.6,100,11.35,59,5.2,298.6,331.9,300.6
867.5,1357,13.6,13.5,100,11.31,59,5.2,298.6,331.8,300.7
867.0,1363,13.6,13.5,99,11.27,59,5.2,298.7,331.7,300.7
866.4,1368,13.6,13.4,99,11.25,59,5.1,298.7,331.7,300.7
865.9,1373,13.5,13.4,99,11.24,59,5.1,298.7,331.7,300.7
865.4,1377,13.5,13.4,99,11.26,59,5.1,298.8,331.8,300.8
865.0,1382,13.5,13.5,100,11.30,60,5.0,298.8,331.9,300.8
864.5,1386,13.5,13.5,100,11.31,60,5.0,298.8,332.0,300.8
864.1,1390,13.5,13.5,100,11.30,60,5.0,298.8,332.0,300.9
863.7,1395,13.4,13.4,100,11.29,61,5.0,298.8,332.0,300.9
863.3,1399,13.4,13.4,100,11.28,61,4.9,298.9,332.0,300.9
862.9,1403,13.4,13.4,100,11.28,62,4.9,298.9,332.0,300.9
862.5,1406,13.4,13.4,100,11.27,62,4.9,298.9,332.0,300.9
862.1,1410,13.4,13.4,100,11.27,63,4.8,298.9,332.0,301.0
861.7,1414,13.4,13.4,100,11.27,63,4.8,299.0,332.1,301.0
861.3,1418,13.3,13.3,100,11.25,64,4.8,299.0,332.0,301.0
860.8,1422,13.3,13.3,100,11.23,64,4.7,299.0,332.0,301.0
860.4,1427,13.3,13.3,100,11.22,65,4.7,299.0,332.0,301.0
860.0,1431,13.3,13.2,100,11.19,65,4.7,299.0,331.9,301.0
859.6,1435,13.3,13.2,100,11.17,66,4.6,299.1,331.9,301.1
859.1,1439,13.2,13.2,100,11.15,66,4.6,299.1,331.9,301.1
858.7,1443,13.2,13.2,99,11.14,66,4.5,299.1,331.9,301.1
858.3,1447,13.2,13.1,99,11.14,67,4.5,299.1,331.9,301.2
857.9,1451,13.2,13.1,99,11.13,67,4.4,299.2,331.9,301.2
857.5,1456,13.2,13.1,100,11.13,67,4.3,299.2,331.9,301.2
857.0,1460,13.2,13.1,100,11.13,67,4.2,299.2,331.9,301.2
856.6,1464,13.1,13.1,100,11.12,67,4.1,299.2,331.9,301.2
856.1,1469,13.1,13.1,100,11.11,68,4.1,299.3,331.9,301.3
855.6,1474,13.1,13.0,100,11.10,68,4.0,299.3,332.0,301.3
855.2,1478,13.1,13.0,100,11.10,68,3.9,299.3,332.0,301.3
854.7,1483,13.1,13.0,100,11.11,68,3.7,299.3,332.0,301.3
854.2,1488,13.0,13.0,100,11.11,68,3.6,299.4,332.0,301.4
853.7,1493,13.0,13.0,100,11.09,68,3.5,299.4,332.0,301.4
853.2,1497,13.0,12.9,100,11.06,69,3.4,299.4,332.0,301.4
852.8,1502,13.0,12.9,99,11.01,69,3.3,299.4,331.9,301.4
852.3,1507,13.0,12.8,99,10.98,70,3.2,299.5,331.8,301.4
851.8,1511,12.9,12.8,99,11.00,70,3.1,299.5,331.9,301.5
851.4,1515,12.9,12.9,100,11.03,71,3.0,299.5,332.0,301.5
850.9,1520,12.9,12.9,100,11.06,73,2.9,299.6,332.1,301.6
850.5,1524,12.9,12.9,100,11.06,74,2.8,299.6,332.2,301.6
850.0,1529,12.9,12.9,100,11.04,78,2.6,299.6,332.1,301.6
849.5,1534,12.8,12.8,100,11.02,78,2.6,299.6,332.1,301.6
849.0,1539,12.8,12.8,100,11.01,80,2.5,299.6,332.1,301.6
848.5,1544,12.8,12.8,100,10.99,83,2.5,299.7,332.0,301.6
848.0,1549,12.7,12.7,100,10.94,86,2.5,299.7,331.9,301.7
847.5,1554,12.7,12.6,99,10.86,89,2.4,299.7,331.7,301.6
847.0,1559,12.7,12.5,99,10.78,91,2.4,299.7,331.5,301.6
846.5,1564,12.6,12.4,98,10.73,94,2.4,299.7,331.4,301.6
846.0,1569,12.6,12.4,99,10.73,97,2.4,299.7,331.3,301.6
845.5,1574,12.6,12.3,98,10.70,100,2.5,299.7,331.3,301.7
845.1,1578,12.5,12.3,98,10.67,102,2.5,299.7,331.2,301.7
844.6,1582,12.5,12.2,98,10.64,104,2.6,299.8,331.2,301.7
844.2,1587,12.5,12.2,98,10.62,106,2.6,299.8,331.1,301.7
843.8,1591,12.4,12.1,98,10.60,107,2.7,299.8,331.1,301.7
843.4,1595,12.4,12.1,98,10.57,109,2.8,299.8,331.0,301.7
843.0,1599,12.4,12.0,97,10.52,110,2.8,299.9,330.9,301.7
842.6,1603,12.4,12.0,97,10.49,111,2.9,299.9,330.9,301.8
842.2,1607,12.4,12.0,97,10.51,111,2.9,299.9,331.0,301.8
841.8,1611,12.4,12.0,98,10.55,112,3.0,299.9,331.1,301.8
841.4,1615,12.3,12.1,98,10.58,112,3.1,299.9,331.2,301.8
841.0,1619,12.3,12.1,98,10.58,113,3.1,299.9,331.2,301.8
840.5,1624,12.3,12.1,98,10.58,113,3.1,300.0,331.2,301.9
840.1,1628,12.3,12.0,98,10.56,113,3.2,300.0,331.2,301.9
839.6,1633,12.3,11.9,98,10.49,113,3.2,300.0,331.0,301.9
839.1,1638,12.3,11.8,97,10.40,113,3.3,300.1,330.8,301.9
838.6,1643,12.2,11.7,96,10.35,113,3.3,300.1,330.7,302.0
838.0,1649,12.2,11.7,97,10.35,113,3.3,300.1,330.7,302.0
837.5,1654,12.1,11.7,97,10.37,114,3.3,300.1,330.8,302.0
837.0,1659,12.1,11.7,98,10.39,114,3.4,300.1,330.8,302.0
836.5,1664,12.0,11.7,98,10.42,114,3.4,300.1,330.9,302.0
836.1,1668,12.0,11.8,99,10.43,115,3.4,300.1,330.9,302.0
835.6,1673,11.9,11.7,99,10.41,116,3.4,300.1,330.9,302.0
835.2,1677,11.9,11.7,98,10.38,116,3.5,300.1,330.8,302.0
834.7,1682,11.9,11.6,98,10.35,117,3.5,300.2,330.8,302.0
834.3,1686,11.9,11.6,98,10.34,118,3.5,300.2,330.8,302.0
833.9,1690,11.9,11.6,98,10.33,119,3.6,300.2,330.7,302.0
833.5,1694,11.8,11.5,98,10.31,120,3.6,300.2,330.7,302.1
833.1,1698,11.8,11.5,98,10.26,121,3.6,300.2,330.6,302.1
832.7,1702,11.8,11.4,97,10.22,122,3.7,300.3,330.5,302.1
832.3,1706,11.8,11.4,97,10.21,124,3.7,300.3,330.5,302.2
831.9,1710,11.8,11.4,97,10.22,125,3.8,300.3,330.6,302.2
831.5,1714,11.8,11.4,97,10.21,126,3.9,300.4,330.6,302.2
831.1,1719,11.8,11.3,97,10.19,127,3.9,300.4,330.6,302.2
830.7,1723,11.8,11.3,97,10.16,128,4.0,300.4,330.5,302.3
830.2,1727,11.8,11.2,96,10.13,129,4.0,300.5,330.5,302.3
829.8,1731,11.7,11.2,96,10.11,130,4.1,300.5,330.4,302.3
829.4,1736,11.7,11.2,96,10.10,131,4.2,300.5,330.4,302.3
828.9,1740,11.7,11.1,96,10.09,132,4.2,300.5,330.4,302.4
828.5,1745,11.7,11.1,96,10.08,132,4.3,300.5,330.4,302.4
828.0,1750,11.6,11.1,97,10.07,133,4.3,300.5,330.4,302.4
827.5,1754,11.6,11.1,97,10.07,133,4.4,300.5,330.4,302.4
827.1,1759,11.5,11.1,97,10.08,134,4.4,300.6,330.4,302.4
826.6,1764,11.5,11.1,97,10.08,134,4.4,300.6,330.5,302.4
826.2,1768,11.5,11.1,97,10.08,134,4.4,300.6,330.5,302.4
825.7,1773,11.4,11.1,98,10.07,135,4.4,300.6,330.5,302.4
825.2,1778,11.4,11.0,98,10.07,135,4.5,300.6,330.4,302.4
824.8,1783,11.3,11.1,98,10.09,135,4.5,300.6,330.5,302.4
824.3,1787,11.3,11.1,99,10.12,135,4.4,300.6,330.6,302.4
823.8,1792,11.3,11.1,99,10.15,135,4.4,300.6,330.7,302.4
823.4,1797,11.2,11.1,99,10.15,135,4.4,300.6,330.7,302.4
822.9,1801,11.2,11.1,99,10.14,135,4.4,300.6,330.7,302.4
822.4,1806,11.2,11.1,100,10.14,135,4.4,300.6,330.7,302.5
822.0,1811,11.1,11.1,100,10.12,136,4.4,300.6,330.6,302.5
821.5,1816,11.1,11.0,99,10.09,136,4.3,300.6,330.5,302.5
821.0,1820,11.0,10.9,99,10.04,136,4.3,300.7,330.4,302.5
820.6,1825,11.0,10.8,99,9.99,136,4.3,300.7,330.3,302.5
820.1,1830,11.0,10.8,99,9.95,137,4.3,300.7,330.2,302.5
819.7,1834,11.0,10.7,99,9.94,137,4.2,300.7,330.2,302.5
819.2,1839,10.9,10.7,98,9.92,138,4.2,300.7,330.2,302.5
818.7,1844,10.9,10.6,98,9.88,138,4.2,300.8,330.1,302.6
818.3,1849,11.0,10.6,97,9.83,139,4.2,300.9,330.1,302.6
817.8,1854,11.0,10.5,97,9.78,140,4.2,300.9,330.0,302.7
817.3,1858,11.0,10.4,96,9.76,141,4.2,301.0,330.0,302.8
816.8,1863,11.0,10.4,96,9.75,142,4.2,301.0,330.0,302.8
816.4,1868,11.0,10.4,96,9.73,143,4.2,301.1,330.0,302.8
815.9,1873,10.9,10.3,96,9.69,144,4.3,301.1,329.9,302.9
