PRES,HGHT,TEMP,DWPT,RELH,MIXR,DRCT,SPED,THTA,THTE,THTV
1015.4,31,25.0,19.8,73,14.50,62,7.5,296.9,338.9,299.4
1014.9,35,24.8,19.7,73,14.36,63,4.6,296.7,338.4,299.3
1014.3,40,24.4,19.7,75,14.39,63,3.7,296.3,338.0,298.9
1013.8,44,24.2,19.7,76,14.42,64,3.7,296.2,337.9,298.7
1013.0,52,24.1,19.6,76,14.35,64,4.0,296.2,337.7,298.7
1012.3,58,24.0,19.4,75,14.13,64,4.3,296.2,337.0,298.7
1011.8,62,23.9,19.1,74,13.88,64,4.7,296.1,336.2,298.5
1011.1,68,23.8,18.9,74,13.74,65,5.0,296.1,335.8,298.5
1010.5,73,23.8,18.8,74,13.68,65,5.3,296.0,335.6,298.5
1009.9,78,23.7,18.8,74,13.64,65,5.6,296.0,335.5,298.5
1009.3,83,23.7,18.8,74,13.64,66,5.9,296.1,335.5,298.5
1008.7,89,23.7,18.8,74,13.66,66,6.2,296.1,335.6,298.5
1008.1,94,23.6,18.8,74,13.63,66,6.5,296.1,335.5,298.5
1007.5,99,23.6,18.7,74,13.61,66,6.7,296.1,335.5,298.5
1007.0,104,23.5,18.7,75,13.63,67,7.0,296.1,335.5,298.5
1006.4,109,23.5,18.7,75,13.64,67,7.2,296.1,335.5,298.5
1005.8,114,23.4,18.7,75,13.65,67,7.4,296.1,335.6,298.5
1005.2,119,23.4,18.7,75,13.64,67,7.6,296.1,335.6,298.5
1004.6,124,23.3,18.7,75,13.63,68,7.8,296.1,335.5,298.5
1004.1,129,23.3,18.7,75,13.62,68,8.0,296.1,335.5,298.5
1003.4,134,23.2,18.7,76,13.63,68,8.2,296.1,335.5,298.5
1002.8,140,23.2,18.7,76,13.64,68,8.3,296.1,335.6,298.5
1002.2,145,23.1,18.7,76,13.65,68,8.4,296.1,335.6,298.5
1001.6,151,23.1,18.7,76,13.66,69,8.5,296.1,335.6,298.5
1000.9,157,23.0,18.7,77,13.67,69,8.6,296.1,335.6,298.5
1000.2,162,23.0,18.7,77,13.70,69,8.7,296.1,335.7,298.5
1000.0,164,22.9,18.7,77,13.70,69,8.7,296.1,335.7,298.5
999.6,168,22.9,18.7,77,13.71,69,8.7,296.1,335.7,298.5
998.9,174,22.8,18.7,77,13.68,69,8.8,296.1,335.7,298.5
998.2,180,22.8,18.6,77,13.65,69,8.8,296.1,335.6,298.5
997.6,186,22.7,18.6,78,13.65,69,8.8,296.1,335.6,298.5
996.9,191,22.7,18.6,78,13.66,69,8.8,296.1,335.6,298.5
996.4,196,22.6,18.6,78,13.70,69,8.8,296.1,335.7,298.5
995.8,201,22.6,18.7,78,13.71,70,8.8,296.1,335.8,298.5
995.3,206,22.6,18.6,78,13.68,70,8.8,296.1,335.7,298.5
994.8,210,22.5,18.6,78,13.66,70,8.8,296.1,335.6,298.5
994.2,215,22.5,18.6,79,13.66,70,8.7,296.1,335.6,298.5
993.7,219,22.4,18.5,79,13.63,70,8.7,296.1,335.6,298.5
993.2,224,22.4,18.5,79,13.59,70,8.7,296.1,335.4,298.5
992.7,228,22.3,18.5,79,13.61,70,8.6,296.1,335.5,298.5
992.2,233,22.3,18.5,79,13.66,71,8.6,296.1,335.6,298.5
991.6,238,22.3,18.6,80,13.70,71,8.5,296.1,335.8,298.6
991.1,243,22.2,18.5,80,13.68,71,8.5,296.1,335.7,298.5
990.5,248,22.2,18.5,80,13.66,71,8.5,296.1,335.6,298.6
990.0,252,22.1,18.5,80,13.67,72,8.5,296.1,335.7,298.5
989.4,257,22.1,18.5,80,13.67,72,8.4,296.1,335.7,298.6
988.9,262,22.0,18.5,80,13.66,72,8.4,296.1,335.7,298.6
988.3,267,22.0,18.5,80,13.66,72,8.4,296.1,335.7,298.6
987.8,271,22.0,18.4,80,13.63,73,8.4,296.2,335.6,298.6
987.3,276,21.9,18.3,80,13.54,73,8.4,296.2,335.3,298.6
986.8,281,21.9,18.3,80,13.49,73,8.4,296.2,335.2,298.6
986.3,285,21.8,18.3,80,13.52,74,8.4,296.2,335.3,298.6
985.8,289,21.8,18.3,81,13.57,74,8.4,296.1,335.4,298.6
985.3,294,21.8,18.4,81,13.64,74,8.5,296.2,335.6,298.6
984.8,298,21.7,18.5,82,13.73,74,8.5,296.1,335.9,298.6
984.2,303,21.6,18.6,83,13.82,75,8.5,296.1,336.1,298.6
983.7,307,21.6,18.6,83,13.83,75,8.5,296.1,336.1,298.6
983.2,312,21.6,18.5,83,13.80,75,8.5,296.1,336.0,298.6
982.8,316,21.5,18.5,83,13.79,75,8.6,296.1,336.0,298.6
982.3,320,21.5,18.5,83,13.80,75,8.6,296.1,336.1,298.6
981.7,325,21.4,18.5,84,13.81,75,8.6,296.1,336.1,298.6
981.2,330,21.4,18.5,84,13.83,75,8.7,296.1,336.1,298.6
980.7,334,21.3,18.5,84,13.82,75,8.7,296.1,336.1,298.6
980.1,339,21.3,18.5,84,13.79,75,8.7,296.1,336.0,298.6
979.6,344,21.2,18.4,84,13.76,75,8.7,296.1,335.9,298.6
979.1,349,21.2,18.4,84,13.71,75,8.7,296.1,335.8,298.6
978.6,353,21.2,18.3,84,13.67,75,8.7,296.1,335.7,298.6
978.1,358,21.1,18.3,84,13.65,75,8.7,296.1,335.6,298.6
977.5,362,21.1,18.2,84,13.61,75,8.8,296.2,335.6,298.6
977.0,367,21.1,18.2,84,13.60,75,8.8,296.2,335.5,298.6
976.5,371,21.0,18.2,84,13.60,75,8.8,296.2,335.5,298.6
976.0,376,21.0,18.2,84,13.58,75,8.8,296.2,335.5,298.6
975.5,381,20.9,18.2,84,13.58,75,8.8,296.2,335.5,298.6
974.9,386,20.9,18.2,84,13.58,75,8.8,296.2,335.5,298.6
974.4,391,20.8,18.2,85,13.60,75,8.8,296.1,335.5,298.6
973.8,396,20.8,18.2,85,13.59,75,8.8,296.1,335.5,298.6
973.3,400,20.7,18.2,85,13.60,75,8.7,296.1,335.5,298.6
972.7,405,20.7,18.2,86,13.61,75,8.7,296.1,335.5,298.6
972.2,410,20.6,18.2,86,13.63,75,8.7,296.1,335.6,298.6
971.6,415,20.6,18.2,86,13.64,75,8.7,296.1,335.6,298.6
971.1,420,20.5,18.2,86,13.65,75,8.7,296.1,335.6,298.6
970.5,425,20.5,18.2,87,13.66,75,8.7,296.1,335.7,298.6
970.0,430,20.4,18.2,87,13.65,75,8.7,296.1,335.6,298.6
969.4,435,20.4,18.1,87,13.64,75,8.7,296.1,335.6,298.6
968.9,440,20.3,18.1,87,13.63,75,8.7,296.1,335.6,298.6
968.3,445,20.3,18.1,88,13.65,75,8.7,296.1,335.6,298.6
967.7,450,20.2,18.2,88,13.68,75,8.7,296.1,335.7,298.6
967.2,455,20.2,18.2,88,13.69,75,8.7,296.1,335.7,298.5
966.6,460,20.1,18.1,88,13.67,75,8.6,296.1,335.7,298.5
966.1,465,20.1,18.1,88,13.63,75,8.6,296.1,335.5,298.5
965.5,469,20.0,18.1,88,13.62,75,8.6,296.1,335.5,298.6
965.0,474,20.0,18.0,88,13.60,75,8.6,296.1,335.5,298.6
964.5,479,20.0,18.0,88,13.57,75,8.6,296.2,335.4,298.6
964.0,483,19.9,17.9,88,13.55,75,8.6,296.2,335.4,298.6
963.5,488,19.9,17.9,88,13.54,75,8.6,296.2,335.4,298.6
963.0,492,19.9,17.9,89,13.53,75,8.6,296.2,335.4,298.6
962.5,497,19.8,17.9,89,13.56,75,8.6,296.2,335.4,298.6
962.0,501,19.8,18.0,89,13.61,75,8.6,296.2,335.6,298.6
961.5,506,19.7,18.0,90,13.66,75,8.6,296.2,335.7,298.6
961.0,510,19.7,18.1,90,13.70,74,8.6,296.2,335.8,298.6
960.5,515,19.6,18.1,91,13.70,74,8.7,296.2,335.8,298.6
959.9,520,19.6,18.0,91,13.68,74,8.7,296.2,335.8,298.6
959.4,524,19.5,18.0,91,13.65,74,8.7,296.2,335.7,298.6
958.9,529,19.5,17.9,91,13.61,74,8.7,296.2,335.6,298.6
958.4,534,19.5,17.9,91,13.57,74,8.7,296.2,335.5,298.6
957.8,539,19.4,17.9,91,13.57,74,8.7,296.2,335.5,298.6
957.2,544,19.4,17.9,91,13.58,74,8.7,296.2,335.5,298.6
956.7,549,19.3,17.9,91,13.60,74,8.7,296.2,335.5,298.6
956.1,554,19.3,17.9,92,13.60,74,8.7,296.2,335.5,298.6
955.5,559,19.2,17.8,92,13.56,74,8.7,296.2,335.4,298.6
954.9,565,19.2,17.8,92,13.53,74,8.7,296.2,335.3,298.6
954.4,570,19.1,17.7,92,13.51,74,8.7,296.2,335.3,298.6
953.8,575,19.1,17.7,92,13.50,74,8.7,296.2,335.3,298.6
953.3,580,19.0,17.7,92,13.53,74,8.7,296.2,335.3,298.6
952.7,585,19.0,17.7,93,13.53,74,8.7,296.2,335.4,298.6
952.1,590,18.9,17.7,92,13.48,74,8.7,296.2,335.2,298.6
951.6,595,18.9,17.6,92,13.44,74,8.7,296.2,335.1,298.6
951.0,600,18.9,17.7,93,13.50,74,8.7,296.2,335.3,298.6
950.5,605,18.8,17.7,93,13.54,74,8.7,296.2,335.4,298.6
949.9,610,18.7,17.7,94,13.52,74,8.7,296.2,335.3,298.6
949.4,615,18.7,17.6,93,13.43,74,8.7,296.2,335.1,298.6
948.8,620,18.7,17.4,92,13.31,74,8.7,296.2,334.8,298.6
948.3,625,18.6,17.3,92,13.24,74,8.7,296.2,334.6,298.6
947.8,630,18.6,17.4,92,13.27,74,8.7,296.3,334.7,298.6
947.2,635,18.6,17.4,93,13.34,74,8.7,296.3,334.9,298.6
946.7,640,18.5,17.5,94,13.40,74,8.7,296.3,335.1,298.6
946.1,645,18.5,17.5,94,13.42,74,8.7,296.3,335.1,298.6
945.6,650,18.4,17.5,94,13.40,74,8.6,296.2,335.0,298.6
945.0,655,18.4,17.4,94,13.39,74,8.6,296.2,335.0,298.6
944.4,660,18.3,17.4,94,13.34,74,8.6,296.3,334.9,298.6
943.8,666,18.3,17.3,94,13.24,74,8.5,296.3,334.6,298.6
943.2,671,18.2,17.0,93,13.02,74,8.5,296.3,334.0,298.6
942.6,677,18.2,16.6,90,12.68,74,8.5,296.3,333.1,298.6
941.9,683,18.2,16.2,88,12.43,74,8.4,296.4,332.4,298.6
941.3,688,18.2,16.2,88,12.39,75,8.4,296.4,332.4,298.6
940.7,694,18.2,16.2,88,12.40,75,8.4,296.5,332.4,298.7
940.0,700,18.1,16.1,88,12.37,75,8.3,296.5,332.4,298.7
939.4,706,18.1,16.1,88,12.32,75,8.3,296.5,332.2,298.7
938.7,712,18.0,16.0,88,12.26,75,8.3,296.5,332.1,298.7
938.0,718,18.0,15.9,87,12.18,76,8.2,296.5,331.9,298.7
937.4,725,17.9,15.8,87,12.13,76,8.2,296.5,331.7,298.7
936.7,731,17.9,15.7,87,12.10,76,8.1,296.5,331.6,298.7
936.0,737,17.8,15.6,87,12.02,76,8.1,296.5,331.4,298.7
935.3,743,17.8,15.5,86,11.92,77,8.1,296.5,331.2,298.7
934.7,749,17.7,15.4,86,11.87,77,8.0,296.6,331.0,298.7
934.1,754,17.7,15.4,86,11.89,77,8.0,296.6,331.1,298.7
933.6,759,17.7,15.4,87,11.90,77,8.0,296.6,331.2,298.7
933.1,764,17.6,15.4,87,11.85,77,8.0,296.6,331.0,298.7
932.5,769,17.6,15.2,85,11.69,77,7.9,296.6,330.6,298.7
932.0,774,17.6,14.8,84,11.43,77,7.9,296.7,329.9,298.7
931.5,779,17.6,14.4,82,11.16,77,7.9,296.7,329.2,298.7
930.9,784,17.6,14.0,79,10.87,77,7.9,296.8,328.4,298.7
930.3,789,17.6,13.8,79,10.75,77,7.9,296.8,328.1,298.7
929.8,794,17.5,14.0,80,10.87,77,7.9,296.8,328.5,298.7
929.2,799,17.5,13.8,79,10.76,77,7.9,296.8,328.1,298.7
928.7,805,17.5,13.5,77,10.50,77,7.9,296.8,327.4,298.7
928.1,810,17.5,13.3,77,10.42,76,7.9,296.9,327.3,298.7
927.6,815,17.4,13.4,77,10.45,76,7.9,296.9,327.4,298.8
927.0,820,17.4,13.1,76,10.29,76,8.0,296.9,326.9,298.8
926.5,824,17.4,13.0,76,10.24,76,8.0,296.9,326.8,298.8
926.0,829,17.3,13.3,77,10.44,76,8.0,296.9,327.4,298.8
925.4,834,17.3,13.4,78,10.51,76,8.0,296.9,327.6,298.8
925.0,838,17.2,13.4,78,10.48,76,8.0,296.9,327.5,298.8
924.9,839,17.2,13.3,78,10.46,76,8.0,296.9,327.4,298.8
924.4,844,17.2,13.5,79,10.55,75,8.1,296.9,327.7,298.8
923.8,849,17.1,13.7,80,10.71,75,8.1,296.9,328.1,298.8
923.3,854,17.0,13.8,81,10.77,76,8.1,296.9,328.3,298.8
922.8,859,17.0,13.6,81,10.68,76,8.1,296.9,328.0,298.8
922.2,864,17.0,13.4,79,10.50,76,8.1,296.9,327.5,298.8
921.7,869,17.0,13.1,78,10.36,76,8.1,296.9,327.2,298.8
921.1,874,16.9,13.1,78,10.35,76,8.1,297.0,327.2,298.8
920.5,880,16.9,13.2,79,10.42,76,8.1,297.0,327.4,298.8
919.9,885,16.8,13.2,79,10.43,77,8.1,297.0,327.4,298.8
919.3,891,16.8,13.0,78,10.29,77,8.1,297.0,327.0,298.8
918.7,897,16.8,12.6,77,10.05,77,8.0,297.0,326.4,298.8
918.0,903,16.8,12.1,74,9.69,78,8.0,297.1,325.4,298.8
917.3,910,16.8,11.5,71,9.34,78,8.0,297.2,324.5,298.9
916.6,916,16.8,11.2,69,9.13,79,8.0,297.3,324.0,298.9
915.9,923,16.8,11.1,69,9.07,79,8.0,297.3,323.9,298.9
915.2,929,16.7,11.0,69,9.07,80,7.9,297.3,323.9,298.9
914.5,936,16.7,11.1,69,9.11,80,7.9,297.3,324.1,299.0
913.9,942,16.7,11.3,70,9.23,81,7.9,297.4,324.4,299.0
913.3,947,16.6,11.6,72,9.46,81,7.9,297.4,325.1,299.1
912.7,953,16.6,12.0,74,9.71,82,7.9,297.4,325.8,299.1
912.1,958,16.6,12.3,76,9.88,82,7.9,297.4,326.3,299.2
911.5,964,16.5,12.3,76,9.88,83,7.9,297.5,326.4,299.2
911.0,969,16.5,12.1,75,9.76,83,7.9,297.5,326.1,299.2
910.5,974,16.5,11.9,74,9.66,84,7.9,297.5,325.8,299.2
909.9,978,16.5,11.9,74,9.65,84,7.9,297.5,325.8,299.3
909.4,983,16.4,11.9,75,9.68,85,7.9,297.6,325.9,299.3
908.9,989,16.4,11.9,75,9.70,85,7.9,297.6,326.0,299.3
908.3,994,16.4,11.9,75,9.68,85,8.0,297.6,325.9,299.3
907.8,999,16.3,11.8,75,9.62,85,8.0,297.6,325.8,299.3
907.3,1004,16.3,11.7,74,9.54,86,8.1,297.6,325.6,299.3
906.7,1008,16.2,11.5,74,9.46,86,8.1,297.6,325.4,299.3
906.2,1013,16.2,11.4,73,9.36,86,8.2,297.6,325.1,299.3
905.8,1018,16.2,11.2,72,9.24,86,8.3,297.7,324.8,299.3
905.3,1022,16.2,11.0,71,9.11,86,8.3,297.7,324.5,299.3
904.9,1026,16.2,10.8,70,9.02,86,8.4,297.7,324.2,299.3
904.4,1030,16.2,10.7,70,8.98,86,8.5,297.8,324.2,299.4
903.9,1035,16.2,10.6,70,8.93,86,8.6,297.8,324.1,299.4
903.5,1039,16.2,10.5,69,8.87,86,8.6,297.8,323.9,299.4
903.0,1044,16.1,10.4,69,8.79,86,8.7,297.8,323.7,299.4
902.4,1049,16.1,10.2,68,8.69,86,8.8,297.9,323.5,299.4
901.9,1054,16.1,10.0,67,8.56,85,8.9,297.9,323.1,299.4
901.3,1059,16.1,9.7,66,8.39,85,9.0,298.0,322.7,299.5
900.8,1065,16.1,9.4,64,8.22,85,9.0,298.0,322.3,299.5
900.2,1070,16.1,9.1,63,8.08,85,9.1,298.1,322.0,299.6
899.6,1076,16.1,8.9,62,8.00,85,9.2,298.2,321.8,299.6
899.0,1081,16.1,8.9,62,7.97,84,9.3,298.2,321.8,299.6
898.4,1087,16.1,8.8,62,7.96,84,9.3,298.2,321.7,299.6
897.8,1093,16.0,8.7,62,7.91,84,9.4,298.2,321.6,299.6
897.2,1098,16.0,8.6,61,7.81,84,9.4,298.2,321.4,299.6
896.6,1104,16.0,8.3,60,7.67,83,9.5,298.3,321.0,299.7
896.1,1109,16.0,7.9,59,7.47,83,9.5,298.3,320.5,299.7
895.5,1114,16.0,7.6,57,7.33,83,9.6,298.4,320.2,299.7
895.0,1119,16.0,7.5,57,7.29,83,9.6,298.5,320.1,299.8
894.5,1124,16.0,7.5,57,7.27,82,9.6,298.5,320.1,299.8
894.0,1129,15.9,7.5,57,7.27,82,9.6,298.5,320.1,299.8
893.5,1133,15.9,7.4,57,7.25,82,9.6,298.5,320.0,299.8
893.1,1138,15.9,7.1,56,7.12,82,9.6,298.5,319.7,299.8
892.6,1142,15.9,6.6,54,6.84,81,9.6,298.6,319.0,299.8
892.2,1146,15.9,5.7,51,6.45,81,9.5,298.7,317.9,299.8
891.7,1151,16.0,4.7,47,6.01,81,9.5,298.8,316.8,299.9
891.3,1155,16.1,3.8,44,5.64,81,9.5,298.9,315.9,299.9
890.8,1159,16.1,3.5,43,5.53,81,9.4,299.0,315.7,300.0
890.4,1164,16.1,3.6,43,5.56,80,9.3,299.0,315.8,300.0
889.8,1169,16.1,3.6,43,5.56,80,9.2,299.1,315.8,300.1
889.3,1174,16.1,3.4,43,5.50,80,9.2,299.1,315.6,300.1
888.7,1179,16.1,3.3,42,5.46,80,9.1,299.1,315.6,300.1
888.2,1185,16.0,3.3,42,5.45,80,9.0,299.2,315.6,300.1
887.6,1190,16.0,3.3,42,5.46,80,8.9,299.2,315.6,300.2
887.0,1196,16.0,3.2,42,5.45,81,8.8,299.2,315.6,300.2
886.4,1201,16.0,3.2,42,5.44,81,8.7,299.2,315.6,300.2
885.9,1206,15.9,3.2,42,5.43,81,8.6,299.3,315.6,300.2
885.3,1212,15.9,3.1,42,5.40,81,8.5,299.3,315.6,300.3
884.8,1217,15.9,3.0,42,5.37,81,8.4,299.3,315.5,300.3
884.2,1222,15.9,2.9,42,5.32,82,8.3,299.3,315.4,300.3
883.7,1227,15.8,2.7,41,5.28,82,8.2,299.4,315.3,300.3
883.2,1232,15.8,2.7,41,5.26,82,8.1,299.4,315.3,300.3
882.7,1237,15.7,2.7,41,5.26,83,8.0,299.4,315.3,300.3
882.2,1242,15.7,2.6,41,5.25,83,7.9,299.4,315.2,300.3
881.7,1247,15.7,2.5,41,5.22,84,7.8,299.4,315.1,300.3
881.2,1251,15.6,2.4,41,5.18,84,7.8,299.4,315.1,300.3
880.7,1256,15.6,2.4,41,5.18,84,7.7,299.4,315.1,300.4
880.3,1260,15.6,2.4,41,5.18,85,7.7,299.4,315.1,300.4
879.8,1265,15.5,2.4,41,5.19,85,7.6,299.4,315.1,300.4
879.3,1270,15.5,2.4,41,5.18,85,7.6,299.4,315.1,300.4
878.8,1274,15.4,2.4,41,5.18,86,7.5,299.4,315.1,300.4
878.3,1279,15.4,2.4,41,5.18,86,7.5,299.4,315.1,300.4
877.9,1284,15.4,2.4,42,5.19,86,7.5,299.4,315.1,300.4
877.4,1288,15.3,2.4,42,5.21,86,7.5,299.5,315.2,300.4
876.9,1293,15.3,2.5,42,5.22,86,7.5,299.5,315.3,300.4
876.4,1298,15.3,2.5,42,5.23,86,7.4,299.5,315.3,300.5
875.8,1303,15.2,2.5,42,5.25,86,7.4,299.5,315.4,300.5
875.3,1308,15.2,2.7,43,5.30,85,7.4,299.5,315.5,300.5
874.7,1314,15.2,2.9,44,5.40,85,7.4,299.6,315.9,300.5
874.2,1319,15.1,3.3,45,5.54,85,7.4,299.5,316.3,300.6
873.6,1325,15.1,3.7,47,5.71,85,7.4,299.5,316.8,300.6
873.0,1330,15.0,4.0,48,5.86,84,7.4,299.5,317.2,300.6
872.5,1336,14.9,4.7,50,6.14,84,7.4,299.5,318.0,300.6
871.9,1341,14.8,5.8,55,6.63,83,7.4,299.5,319.3,300.7
871.4,1346,14.7,6.8,59,7.13,83,7.4,299.4,320.7,300.7
870.9,1351,14.6,7.8,64,7.66,82,7.4,299.4,322.2,300.8
870.4,1356,14.5,8.8,68,8.18,82,7.4,299.3,323.6,300.8
869.9,1360,14.4,9.3,71,8.49,81,7.4,299.3,324.4,300.8
869.5,1365,14.3,9.8,74,8.78,81,7.4,299.2,325.2,300.8
869.0,1370,14.3,10.1,76,8.94,81,7.4,299.2,325.6,300.8
868.5,1374,14.2,10.1,76,8.94,80,7.4,299.2,325.6,300.8
868.0,1379,14.1,10.1,76,8.96,80,7.4,299.1,325.6,300.8
867.6,1383,14.1,10.0,77,8.94,80,7.4,299.1,325.5,300.7
867.2,1387,14.0,9.9,76,8.86,80,7.5,299.1,325.3,300.7
866.7,1392,14.0,9.9,76,8.87,79,7.5,299.1,325.4,300.7
866.3,1395,14.0,10.1,77,8.99,79,7.5,299.1,325.7,300.7
865.9,1399,13.9,10.3,79,9.10,79,7.5,299.1,326.0,300.8
865.5,1403,13.9,10.3,79,9.12,79,7.5,299.1,326.1,300.8
865.1,1407,13.8,10.2,79,9.10,79,7.6,299.1,326.0,300.8
864.7,1412,13.8,10.3,79,9.13,79,7.6,299.1,326.1,300.8
864.2,1416,13.8,10.4,80,9.23,79,7.6,299.1,326.4,300.8
863.7,1421,13.7,10.7,82,9.41,79,7.6,299.1,326.9,300.8
863.2,1426,13.6,11.1,85,9.65,79,7.6,299.1,327.6,300.8
862.7,1431,13.6,11.2,86,9.75,79,7.7,299.1,327.9,300.9
862.1,1437,13.6,11.1,85,9.65,79,7.7,299.1,327.6,300.9
861.6,1442,13.5,10.9,84,9.56,79,7.7,299.1,327.3,300.8
861.0,1447,13.5,10.8,84,9.50,79,7.7,299.1,327.2,300.8
860.5,1453,13.4,10.6,83,9.38,79,7.7,299.1,326.8,300.8
859.9,1458,13.4,10.4,82,9.26,79,7.7,299.2,326.5,300.8
859.4,1463,13.4,10.3,81,9.16,79,7.7,299.2,326.3,300.8
858.9,1468,13.3,10.2,81,9.13,80,7.6,299.2,326.2,300.9
858.4,1473,13.3,10.2,82,9.16,80,7.6,299.2,326.3,300.9
857.9,1478,13.3,10.3,82,9.18,80,7.6,299.2,326.4,300.9
857.4,1483,13.2,10.3,82,9.19,80,7.5,299.2,326.4,300.9
856.9,1488,13.2,10.2,82,9.15,80,7.5,299.2,326.3,300.9
856.4,1493,13.1,10.1,82,9.08,80,7.5,299.3,326.1,300.9
855.9,1498,13.1,10.0,81,9.02,80,7.4,299.3,325.9,300.9
855.4,1503,13.1,9.9,81,8.97,80,7.4,299.3,325.8,300.9
854.9,1508,13.1,9.9,81,9.00,80,7.3,299.3,325.9,301.0
854.4,1512,13.1,10.0,82,9.04,80,7.2,299.4,326.1,301.0
853.9,1517,13.0,10.1,82,9.11,80,7.2,299.4,326.3,301.0
853.4,1522,13.0,10.3,84,9.25,80,7.1,299.4,326.8,301.1
852.9,1527,13.0,10.5,85,9.37,80,7.1,299.4,327.2,301.1
852.5,1532,13.0,10.5,85,9.39,80,7.0,299.5,327.3,301.2
852.0,1536,13.0,10.4,84,9.36,80,7.0,299.5,327.2,301.2
851.5,1541,13.0,10.4,85,9.36,81,6.9,299.6,327.3,301.3
851.0,1546,12.9,10.5,85,9.40,81,6.8,299.6,327.4,301.3
850.5,1551,12.9,10.5,86,9.43,81,6.8,299.6,327.5,301.3
850.0,1556,12.8,10.5,86,9.44,81,6.8,299.6,327.5,301.3
849.5,1561,12.8,10.5,86,9.44,82,6.7,299.6,327.5,301.3
848.9,1567,12.7,10.5,86,9.44,82,6.6,299.6,327.5,301.3
848.3,1572,12.7,10.5,87,9.44,82,6.6,299.6,327.5,301.3
847.8,1578,12.6,10.5,87,9.44,82,6.5,299.6,327.5,301.3
847.2,1584,12.6,10.5,87,9.45,83,6.5,299.6,327.5,301.3
846.6,1589,12.5,10.5,88,9.46,83,6.4,299.6,327.6,301.3
846.1,1595,12.4,10.5,88,9.49,83,6.4,299.6,327.6,301.3
845.5,1600,12.4,10.5,88,9.50,84,6.3,299.6,327.7,301.3
845.0,1606,12.3,10.5,89,9.48,84,6.3,299.6,327.6,301.3
844.5,1611,12.3,10.5,88,9.46,84,6.3,299.6,327.5,301.3
843.9,1616,12.3,10.4,89,9.45,84,6.2,299.6,327.5,301.3
843.4,1621,12.2,10.4,89,9.46,85,6.2,299.6,327.6,301.3
842.9,1626,12.2,10.4,89,9.47,85,6.1,299.6,327.6,301.3
842.5,1631,12.1,10.4,89,9.44,85,6.1,299.6,327.5,301.3
842.0,1636,12.1,10.3,89,9.39,85,6.0,299.6,327.4,301.3
841.5,1640,12.1,10.2,88,9.32,85,6.0,299.7,327.2,301.3
841.0,1645,12.1,10.1,87,9.25,85,5.9,299.7,327.1,301.4
840.6,1650,12.1,10.0,87,9.23,85,5.9,299.8,327.1,301.4
840.1,1654,12.1,10.1,88,9.30,85,5.8,299.8,327.3,301.5
839.6,1659,12.1,10.3,89,9.41,85,5.8,299.8,327.7,301.5
839.2,1663,12.0,10.5,90,9.54,85,5.7,299.8,328.0,301.5
838.8,1668,12.0,10.6,91,9.62,85,5.7,299.8,328.3,301.6
838.3,1672,11.9,10.7,92,9.66,85,5.7,299.8,328.4,301.6
837.9,1676,11.9,10.6,92,9.64,85,5.7,299.8,328.4,301.6
837.5,1680,11.9,10.6,92,9.61,86,5.6,299.8,328.3,301.6
837.1,1684,11.9,10.5,92,9.60,86,5.6,299.9,328.3,301.6
836.8,1688,11.8,10.5,92,9.60,86,5.6,299.8,328.3,301.6
836.4,1691,11.8,10.5,92,9.61,86,5.6,299.9,328.3,301.6
836.0,1695,11.8,10.5,92,9.57,86,5.6,299.9,328.2,301.6
835.7,1699,11.8,10.4,91,9.50,86,5.6,299.9,328.0,301.6
835.3,1702,11.8,10.2,90,9.43,86,5.6,300.0,327.9,301.7
835.0,1706,11.8,10.2,90,9.38,87,5.6,300.0,327.8,301.7
834.6,1710,11.8,10.2,90,9.39,87,5.6,300.0,327.8,301.7
834.2,1713,11.7,10.2,90,9.41,87,5.6,300.0,327.9,301.7
833.8,1717,11.7,10.2,90,9.41,88,5.6,300.0,327.9,301.7
833.4,1721,11.7,10.2,91,9.40,88,5.7,300.0,327.9,301.7
833.0,1726,11.6,10.1,90,9.37,89,5.7,300.0,327.8,301.7
832.5,1730,11.6,10.1,90,9.35,89,5.8,300.1,327.8,301.8
832.1,1735,11.6,10.0,90,9.34,90,5.8,300.1,327.7,301.7
831.6,1739,11.5,10.0,90,9.31,90,5.9,300.1,327.7,301.7
831.2,1744,11.5,9.9,90,9.28,91,5.9,300.1,327.6,301.7
830.7,1749,11.4,9.9,90,9.25,91,6.0,300.1,327.5,301.7
830.2,1754,11.4,9.8,90,9.21,92,6.0,300.1,327.4,301.8
829.7,1759,11.4,9.8,90,9.18,92,6.1,300.1,327.3,301.8
829.1,1764,11.3,9.7,90,9.17,92,6.1,300.1,327.3,301.8
828.6,1770,11.3,9.7,90,9.14,93,6.2,300.1,327.3,301.8
828.0,1776,11.3,9.6,89,9.09,93,6.3,300.2,327.1,301.8
827.4,1782,11.2,9.5,89,9.06,93,6.3,300.2,327.1,301.8
826.8,1788,11.2,9.6,90,9.09,93,6.4,300.2,327.2,301.8
826.3,1793,11.1,9.6,90,9.14,93,6.4,300.2,327.3,301.9
825.8,1798,11.1,9.7,91,9.19,93,6.5,300.2,327.5,301.9
825.3,1803,11.1,9.7,91,9.20,93,6.5,300.2,327.5,301.9
824.9,1808,11.0,9.7,92,9.21,92,6.6,300.2,327.6,301.9
824.4,1812,11.0,9.7,92,9.21,92,6.6,300.3,327.6,301.9
824.0,1817,11.0,9.7,92,9.20,92,6.7,300.3,327.6,302.0
823.6,1821,11.0,9.6,92,9.18,91,6.7,300.3,327.5,302.0
823.1,1825,10.9,9.6,92,9.17,91,6.7,300.3,327.5,302.0
822.7,1830,10.9,9.6,92,9.17,90,6.7,300.3,327.6,302.0
822.3,1834,10.9,9.6,92,9.18,89,6.7,300.3,327.6,302.0
821.8,1839,10.8,9.6,92,9.19,89,6.7,300.4,327.6,302.0
821.4,1843,10.8,9.6,92,9.19,88,6.7,300.4,327.7,302.0
821.0,1847,10.8,9.6,93,9.19,87,6.7,300.4,327.7,302.0
820.5,1852,10.7,9.6,92,9.16,87,6.7,300.4,327.6,302.1
820.1,1856,10.7,9.4,92,9.09,86,6.6,300.4,327.4,302.1
